0.15
0.07
0.14
0.23
0.18
0.16
0.15
0.30
0.16
0.51
0.20
0.35
0.51
0.51
0.35
0.41
0.20
0.07
0.04
0.04
0.00
0.00
0.04
0.01
0.02
0.41
0.62
0.62
0.65
0.72
0.63
0.59
0.42
0.01
0.02
0.00
0.01
0.01
0.04
0.07
0.14
0.04
0.15
0.15
0.14
0.14
0.15
0.07
0.14
0.02
0.01
0.00
0.01
0.10
0.10
0.16
0.18
0.20
0.16
0.10
0.02
0.01
0.02
0.02
0.16
0.07
0.15
0.14
0.18
0.18
0.26
0.26
0.30
0.26
0.32
0.35
0.40
0.46
0.43
0.49
0.61
0.55
0.49
0.40
0.23
0.15
0.02
0.14
0.02
0.01
0.02
0.04
0.11
0.51
0.79
0.62
0.67
0.62
0.64
0.59
0.10
0.01
0.02
0.00
0.00
0.01
0.02
0.14
0.07
0.16
0.11
0.04
0.16
0.18
0.07
0.11
0.02
0.01
0.01
0.02
0.07
0.16
0.07
0.18
0.25
0.25
0.25
0.11
0.02
0.00
0.01
0.14
0.07
0.14
0.16
0.16
0.18
0.20
0.23
0.26
0.15
0.35
0.32
0.32
0.35
0.32
0.32
0.43
0.55
0.54
0.43
0.30
0.11
0.07
0.01
0.01
0.00
0.01
0.00
0.02
0.15
0.51
0.83
0.64
0.73
0.63
0.64
0.59
0.02
0.02
0.01
0.02
0.00
0.02
0.01
0.04
0.02
0.02
0.11
0.07
0.07
0.07
0.04
0.00
0.02
0.01
0.01
0.10
0.06
0.16
0.16
0.25
0.25
0.16
0.18
0.11
0.00
0.00
0.04
0.11
0.01
0.15
0.18
0.23
0.18
0.20
0.26
0.35
0.18
0.40
0.23
0.26
0.35
0.43
0.41
0.49
0.60
0.49
0.55
0.30
0.16
0.11
0.02
0.02
0.11
0.01
0.00
0.01
0.23
0.58
0.82
0.62
0.75
0.63
0.62
0.59
0.01
0.02
0.01
0.00
0.02
0.01
0.02
0.02
0.04
0.14
0.02
0.11
0.02
0.01
0.00
0.01
0.00
0.02
0.02
0.06
0.10
0.16
0.30
0.26
0.20
0.18
0.18
0.10
0.02
0.02
0.00
0.07
0.00
0.07
0.04
0.14
0.16
0.16
0.23
0.23
0.18
0.14
0.15
0.15
0.20
0.30
0.20
0.23
0.55
0.43
0.32
0.18
0.11
0.01
0.01
0.00
0.11
0.01
0.10
0.10
0.01
0.30
0.69
0.61
0.71
0.65
0.62
0.59
0.30
0.11
0.11
0.10
0.02
0.02
0.02
0.02
0.00
0.01
0.02
0.01
0.02
0.02
0.01
0.02
0.01
0.06
0.11
0.18
0.18
0.11
0.26
0.18
0.33
0.26
0.20
0.18
0.11
0.06
0.01
0.02
0.07
0.00
0.01
0.00
0.00
0.02
0.01
0.07
0.01
0.00
0.11
0.07
0.04
0.15
0.15
0.26
0.20
0.43
0.41
0.26
0.18
0.01
0.00
0.06
0.01
0.01
0.16
0.06
0.11
0.00
0.41
0.71
0.61
0.75
0.66
0.62
0.60
0.26
0.18
0.16
0.07
0.01
0.02
0.06
0.02
0.01
0.00
0.04
0.01
0.02
0.01
0.01
0.00
0.00
0.00
0.01
0.06
0.01
0.16
0.10
0.16
0.10
0.11
0.10
0.11
0.02
0.01
0.01
0.02
0.04
0.02
0.02
0.07
0.07
0.16
0.18
0.14
0.20
0.04
0.15
0.18
0.23
0.15
0.26
0.18
0.26
0.41
0.54
0.26
0.18
0.18
0.02
0.02
0.02
0.02
0.07
0.02
0.07
0.11
0.26
0.55
0.64
0.70
0.82
0.62
0.61
0.53
0.01
0.00
0.00
0.01
0.01
0.00
0.07
0.07
0.11
0.11
0.14
0.18
0.16
0.04
0.14
0.04
0.07
0.01
0.00
0.00
0.02
0.02
0.11
0.10
0.18
0.10
0.07
0.01
0.00
0.02
0.00
0.02
0.11
0.15
0.07
0.15
0.18
0.16
0.18
0.35
0.30
0.32
0.20
0.26
0.40
0.35
0.40
0.32
0.48
0.58
0.49
0.41
0.26
0.14
0.04
0.02
0.01
0.00
0.01
0.01
0.02
0.01
0.46
0.73
0.61
0.78
0.67
0.62
0.59
0.11
0.06
0.02
0.00
0.00
0.04
0.00
0.14
0.15
0.02
0.16
0.15
0.14
0.16
0.14
0.14
0.11
0.07
0.02
0.07
0.01
0.00
0.02
0.02
0.02
0.00
0.00
0.00
0.00
0.14
0.18
0.14
0.16
0.07
0.18
0.16
0.30
0.35
0.23
0.20
0.32
0.30
0.41
0.40
0.35
0.32
0.35
0.46
0.51
0.46
0.61
0.57
0.48
0.40
0.16
0.15
0.14
0.14
0.00
0.01
0.01
0.00
0.26
0.59
0.76
0.66
0.81
0.63
0.64
0.59
0.01
0.06
0.02
0.02
0.02
0.00
0.01
0.18
0.07
0.07
0.16
0.04
0.16
0.11
0.20
0.07
0.11
0.07
0.04
0.04
0.02
0.00
0.02
0.06
0.02
0.00
0.01
0.00
0.01
0.00
0.15
0.11
0.16
0.11
0.04
0.07
0.07
0.20
0.18
0.18
0.18
0.16
0.26
0.23
0.20
0.20
0.20
0.35
0.26
0.43
0.54
0.55
0.49
0.40
0.18
0.15
0.07
0.01
0.01
0.02
0.02
0.00
0.18
0.30
0.63
0.41
0.71
0.81
0.64
0.63
0.56
0.06
0.11
0.10
0.06
0.01
0.01
0.00
0.00
0.01
0.04
0.00
0.02
0.04
0.01
0.00
0.00
0.01
0.01
0.10
0.02
0.01
0.07
0.11
0.10
0.16
0.33
0.16
0.02
0.02
0.02
0.02
0.01
0.00
0.00
0.01
0.00
0.01
0.11
0.01
0.02
0.11
0.00
0.16
0.04
0.02
0.07
0.02
0.15
0.11
0.15
0.30
0.32
0.26
0.18
0.11
0.01
0.01
0.02
0.18
0.10
0.25
0.20
0.25
0.15
0.58
0.49
0.75
0.85
0.66
0.64
0.60
0.20
0.18
0.16
0.07
0.16
0.06
0.01
0.02
0.01
0.01
0.00
0.01
0.02
0.00
0.02
0.01
0.02
0.00
0.00
0.01
0.00
0.02
0.11
0.01
0.11
0.18
0.07
0.06
0.01
0.01
0.02
0.02
0.01
0.02
0.00
0.00
0.06
0.00
0.02
0.01
0.07
0.02
0.11
0.01
0.02
0.00
0.11
0.02
0.15
0.04
0.32
0.54
0.18
0.32
0.20
0.02
0.01
0.01
0.06
0.10
0.16
0.10
0.07
0.16
0.32
0.62
0.59
0.82
0.78
0.66
0.62
0.47
0.10
0.11
0.06
0.07
0.02
0.06
0.01
0.02
0.01
0.01
0.07
0.01
0.15
0.02
0.04
0.04
0.04
0.02
0.07
0.06
0.01
0.00
0.11
0.01
0.07
0.20
0.02
0.01
0.01
0.01
0.01
0.02
0.00
0.00
0.01
0.01
0.04
0.00
0.01
0.14
0.11
0.07
0.07
0.16
0.15
0.04
0.02
0.16
0.23
0.20
0.26
0.51
0.35
0.35
0.15
0.11
0.01
0.02
0.02
0.18
0.02
0.11
0.20
0.15
0.43
0.71
0.64
0.84
0.69
0.62
0.62
0.18
0.20
0.16
0.11
0.06
0.06
0.01
0.01
0.00
0.02
0.00
0.04
0.01
0.02
0.00
0.00
0.00
0.02
0.01
0.02
0.00
0.02
0.02
0.02
0.16
0.11
0.16
0.10
0.06
0.00
0.07
0.07
0.06
0.07
0.02
0.02
0.02
0.02
0.02
0.00
0.00
0.04
0.00
0.00
0.07
0.01
0.00
0.01
0.11
0.07
0.02
0.35
0.41
0.30
0.40
0.07
0.11
0.06
0.02
0.07
0.11
0.18
0.18
0.25
0.33
0.16
0.60
0.02
0.79
0.85
0.66
0.64
0.56
0.18
0.11
0.11
0.06
0.06
0.02
0.01
0.01
0.00
0.01
0.01
0.00
0.00
0.06
0.02
0.00
0.00
0.02
0.02
0.01
0.01
0.00
0.01
0.06
0.06
0.10
0.07
0.02
0.02
0.07
0.02
0.06
0.01
0.06
0.00
0.02
0.01
0.02
0.07
0.01
0.04
0.02
0.11
0.01
0.14
0.01
0.11
0.00
0.01
0.04
0.18
0.18
0.41
0.41
0.26
0.26
0.14
0.06
0.01
0.10
0.07
0.07
0.18
0.11
0.20
0.14
0.58
0.62
0.74
0.87
0.67
0.63
0.59
0.10
0.26
0.10
0.01
0.02
0.01
0.01
0.07
0.01
0.00
0.02
0.11
0.11
0.16
0.14
0.14
0.16
0.11
0.16
0.15
0.07
0.11
0.07
0.11
0.01
0.06
0.01
0.04
0.02
0.02
0.00
0.02
0.01
0.01
0.00
0.16
0.02
0.04
0.01
0.00
0.20
0.20
0.01
0.43
0.00
0.02
0.04
0.23
0.00
0.14
0.18
0.20
0.26
0.51
0.14
0.46
0.11
0.07
0.15
0.01
0.40
0.00
0.10
0.38
0.01
0.38
0.48
0.61
0.06
0.75
0.75
0.62
0.59
0.46
0.35
0.07
0.25
0.01
0.01
0.00
0.06
0.01
0.01
0.02
0.14
0.02
0.16
0.30
0.00
0.23
0.02
0.04
0.07
0.01
0.14
0.10
0.06
0.46
0.02
0.20
0.16
0.11
0.20
0.11
0.15
0.14
0.11
0.15
0.40
0.14
0.00
0.54
0.32
0.49
0.30
0.32
0.07
0.48
0.01
0.23
0.55
0.16
0.11
0.32
0.41
0.14
0.20
0.57
0.51
0.55
0.48
0.23
0.10
0.04
0.01
0.16
0.02
0.02
0.18
0.18
0.61
0.71
0.63
0.85
0.89
0.62
0.60
0.35
0.06
0.18
0.10
0.00
0.11
0.07
0.01
0.18
0.18
0.10
0.38
0.02
0.26
0.42
0.02
0.07
0.33
0.10
0.26
0.41
0.47
0.46
0.18
0.59
0.18
0.46
0.47
0.07
0.25
0.18
0.11
0.30
0.41
0.18
0.43
0.54
0.54
0.04
0.63
0.35
0.57
0.55
0.16
0.58
0.30
0.41
0.51
0.51
0.49
0.32
0.57
0.41
0.63
0.57
0.66
0.51
0.61
0.61
0.16
0.15
0.20
0.20
0.32
0.14
0.30
0.02
0.67
0.69
0.93
0.65
0.90
0.61
0.62
0.26
0.14
0.16
0.00
0.23
0.18
0.11
0.26
0.04
0.15
0.26
0.14
0.10
0.40
0.06
0.01
0.02
0.01
0.07
0.42
0.18
0.48
0.20
0.47
0.41
0.56
0.53
0.46
0.26
0.10
0.15
0.00
0.23
0.23
0.00
0.55
0.46
0.23
0.54
0.54
0.18
0.62
0.46
0.48
0.32
0.63
0.60
0.75
0.74
0.35
0.73
0.89
0.87
0.66
0.18
0.96
0.99
0.93
0.87
0.33
0.58
0.48
0.00
0.11
0.16
0.18
0.32
0.49
0.30
0.54
0.40
0.49
0.62
0.35
0.55
0.35
0.54
0.49
0.32
0.43
0.55
0.51
0.55
0.35
0.49
0.54
0.59
0.23
0.58
0.26
0.35
0.54
0.26
0.43
0.35
0.26
0.43
0.40
0.26
0.26
0.43
0.26
0.35
0.04
0.32
0.40
0.30
0.35
0.11
0.15
0.35
0.11
0.48
0.11
0.14
0.04
0.23
0.00
0.20
0.18
0.18
0.11
0.01
0.15
0.14
0.01
0.20
0.18
0.11
0.11
0.16
0.40
0.54
0.35
0.30
0.18
0.00
0.02
0.07
0.10
0.02
0.07
0.16
0.53
0.04
0.62
0.35
0.62
0.63
0.64
0.62
0.60
0.16
0.38
0.26
0.18
0.33
0.02
0.18
0.38
0.02
0.07
0.41
0.07
0.26
0.35
0.30
0.20
0.38
0.40
0.20
0.40
0.42
0.26
0.47
0.41
0.41
0.38
0.35
0.40
0.33
0.02
0.16
0.11
0.30
0.02
0.06
0.02
0.10
0.07
0.25
0.10
0.16
0.10
0.07
0.16
0.16
0.20
0.18
0.02
0.26
0.02
0.02
0.11
0.04
0.01
0.20
0.14
0.01
0.01
0.16
0.25
0.10
0.16
0.11
0.35
0.26
0.47
0.02
0.54
0.11
0.66
0.62
0.62
0.62
0.60
0.30
0.26
0.30
0.18
0.18
0.26
0.18
0.25
0.11
0.18
0.10
0.16
0.06
0.30
0.02
0.06
0.35
0.10
0.20
0.20
0.16
0.35
0.10
0.35
0.30
0.26
0.18
0.33
0.10
0.16
0.06
0.01
0.06
0.06
0.01
0.07
0.02
0.06
0.02
0.07
0.10
0.11
0.02
0.11
0.30
0.01
0.16
0.02
0.11
0.10
0.00
0.30
0.02
0.00
0.20
0.07
0.00
0.01
0.11
0.26
0.30
0.11
0.18
0.40
0.25
0.25
0.02
0.43
0.62
0.62
0.76
0.65
0.63
0.62
0.26
0.42
0.30
0.18
0.25
0.18
0.16
0.26
0.16
0.25
0.06
0.10
0.02
0.07
0.18
0.02
0.18
0.25
0.10
0.20
0.25
0.18
0.20
0.26
0.33
0.25
0.30
0.46
0.26
0.35
0.25
0.11
0.35
0.25
0.42
0.26
0.20
0.18
0.25
0.16
0.16
0.33
0.07
0.10
0.20
0.26
0.11
0.18
0.25
0.25
0.06
0.18
0.00
0.00
0.23
0.06
0.00
0.01
0.16
0.26
0.38
0.33
0.33
0.41
0.48
0.41
0.26
0.15
0.51
0.59
0.82
0.70
0.65
0.60
0.56
0.33
0.46
0.26
0.20
0.20
0.18
0.16
0.06
0.11
0.06
0.10
0.10
0.02
0.07
0.00
0.01
0.00
0.02
0.01
0.02
0.07
0.00
0.01
0.06
0.10
0.10
0.07
0.16
0.10
0.25
0.06
0.10
0.02
0.20
0.25
0.16
0.07
0.16
0.11
0.02
0.10
0.02
0.18
0.02
0.07
0.16
0.06
0.02
0.10
0.01
0.02
0.02
0.11
0.15
0.14
0.01
0.00
0.02
0.26
0.18
0.18
0.33
0.41
0.30
0.38
0.33
0.07
0.48
0.01
0.82
0.82
0.66
0.64
0.59
0.25
0.35
0.20
0.30
0.20
0.16
0.18
0.07
0.10
0.02
0.02
0.00
0.02
0.02
0.07
0.01
0.02
0.01
0.04
0.00
0.02
0.01
0.02
0.00
0.26
0.02
0.07
0.20
0.11
0.07
0.18
0.11
0.07
0.33
0.30
0.26
0.02
0.16
0.18
0.07
0.25
0.20
0.02
0.18
0.01
0.25
0.11
0.10
0.07
0.07
0.06
0.00
0.00
0.11
0.00
0.01
0.02
0.18
0.20
0.33
0.30
0.48
0.35
0.53
0.38
0.26
0.02
0.58
0.63
0.79
0.72
0.64
0.62
0.42
0.38
0.35
0.25
0.18
0.26
0.25
0.10
0.11
0.11
0.10
0.01
0.02
0.02
0.01
0.00
0.02
0.00
0.11
0.07
0.02
0.04
0.01
0.07
0.01
0.01
0.06
0.02
0.07
0.01
0.06
0.07
0.07
0.07
0.16
0.18
0.18
0.10
0.07
0.10
0.11
0.02
0.06
0.02
0.00
0.06
0.02
0.10
0.01
0.07
0.02
0.02
0.01
0.07
0.41
0.02
0.15
0.04
0.16
0.07
0.06
0.18
0.25
0.26
0.25
0.33
0.01
0.26
0.58
0.67
0.85
0.66
0.64
0.60
0.26
0.18
0.07
0.02
0.16
0.07
0.06
0.00
0.02
0.07
0.01
0.00
0.01
0.07
0.07
0.35
0.16
0.20
0.40
0.23
0.35
0.48
0.40
0.26
0.35
0.07
0.14
0.04
0.00
0.02
0.01
0.06
0.11
0.02
0.06
0.02
0.02
0.01
0.10
0.11
0.00
0.00
0.01
0.00
0.00
0.04
0.01
0.01
0.04
0.01
0.00
0.14
0.14
0.14
0.26
0.16
0.20
0.11
0.01
0.01
0.07
0.16
0.02
0.10
0.20
0.38
0.01
0.32
0.46
0.66
0.82
0.66
0.64
0.59
0.30
0.07
0.18
0.11
0.06
0.06
0.01
0.00
0.00
0.02
0.02
0.00
0.14
0.02
0.18
0.20
0.26
0.35
0.40
0.40
0.32
0.30
0.46
0.40
0.15
0.26
0.07
0.01
0.01
0.02
0.02
0.06
0.10
0.02
0.11
0.07
0.16
0.07
0.06
0.10
0.00
0.10
0.02
0.11
0.01
0.02
0.06
0.02
0.06
0.07
0.01
0.01
0.02
0.16
0.23
0.14
0.14
0.11
0.00
0.07
0.11
0.18
0.25
0.11
0.38
0.26
0.25
0.00
0.46
0.60
0.75
0.67
0.62
0.61
0.50
0.20
0.33
0.10
0.07
0.02
0.11
0.10
0.06
0.00
0.02
0.01
0.00
0.02
0.00
0.04
0.15
0.16
0.23
0.41
0.26
0.32
0.30
0.18
0.26
0.14
0.07
0.01
0.00
0.02
0.11
0.11
0.11
0.16
0.18
0.06
0.07
0.18
0.18
0.02
0.06
0.10
0.06
0.07
0.00
0.11
0.01
0.02
0.11
0.02
0.00
0.00
0.01
0.00
0.14
0.20
0.00
0.16
0.00
0.01
0.07
0.11
0.26
0.16
0.20
0.33
0.42
0.01
0.43
0.14
0.67
0.76
0.66
0.63
0.59
0.18
0.26
0.10
0.18
0.01
0.07
0.06
0.01
0.10
0.01
0.11
0.06
0.02
0.15
0.14
0.26
0.30
0.30
0.30
0.46
0.41
0.51
0.30
0.23
0.23
0.02
0.18
0.01
0.00
0.06
0.02
0.26
0.01
0.18
0.02
0.16
0.02
0.10
0.02
0.10
0.01
0.06
0.11
0.07
0.06
0.11
0.16
0.01
0.07
0.10
0.11
0.06
0.02
0.01
0.06
0.35
0.01
0.11
0.06
0.16
0.11
0.30
0.35
0.35
0.41
0.35
0.46
0.01
0.26
0.56
0.75
0.70
0.64
0.63
0.56
0.35
0.25
0.16
0.25
0.07
0.25
0.01
0.11
0.07
0.02
0.01
0.00
0.02
0.01
0.01
0.07
0.15
0.18
0.26
0.32
0.32
0.30
0.16
0.18
0.11
0.00
0.01
0.02
0.02
0.07
0.16
0.18
0.06
0.11
0.26
0.25
0.10
0.07
0.11
0.07
0.06
0.10
0.01
0.02
0.18
0.01
0.02
0.11
0.07
0.26
0.10
0.01
0.02
0.00
0.01
0.11
0.01
0.11
0.02
0.06
0.20
0.10
0.25
0.35
0.26
0.33
0.35
0.06
0.26
0.41
0.62
0.75
0.66
0.65
0.60
0.26
0.20
0.18
0.18
0.02
0.10
0.11
0.06
0.02
0.06
0.02
0.00
0.00
0.01
0.02
0.07
0.11
0.14
0.30
0.30
0.23
0.18
0.15
0.02
0.04
0.02
0.01
0.02
0.10
0.16
0.20
0.20
0.38
0.26
0.26
0.26
0.25
0.26
0.18
0.11
0.20
0.16
0.11
0.25
0.07
0.10
0.18
0.18
0.06
0.10
0.16
0.02
0.06
0.02
0.00
0.00
0.02
0.11
0.01
0.01
0.06
0.18
0.18
0.26
0.25
0.38
0.35
0.46
0.33
0.07
0.40
0.58
0.78
0.70
0.64
0.61
0.55
0.35
0.25
0.33
0.20
0.20
0.11
0.30
0.16
0.11
0.11
0.02
0.02
0.02
0.00
0.02
0.14
0.07
0.14
0.15
0.18
0.16
0.14
0.11
0.07
0.02
0.01
0.07
0.06
0.18
0.10
0.18
0.18
0.25
0.16
0.26
0.30
0.11
0.26
0.16
0.16
0.18
0.11
0.16
0.10
0.07
0.10
0.25
0.06
0.11
0.06
0.16
0.16
0.02
0.00
0.01
0.00
0.16
0.00
0.00
0.06
0.20
0.18
0.18
0.40
0.26
0.40
0.30
0.47
0.02
0.41
0.15
0.71
0.78
0.66
0.62
0.59
0.11
0.30
0.11
0.06
0.16
0.10
0.06
0.00
0.01
0.02
0.00
0.01
0.02
0.04
0.04
0.04
0.18
0.16
0.20
0.23
0.15
0.16
0.20
0.11
0.02
0.01
0.01
0.02
0.07
0.07
0.11
0.16
0.06
0.10
0.16
0.20
0.16
0.06
0.16
0.11
0.18
0.10
0.06
0.11
0.02
0.10
0.16
0.02
0.10
0.07
0.26
0.02
0.10
0.00
0.01
0.02
0.00
0.00
0.01
0.01
0.25
0.16
0.25
0.26
0.30
0.40
0.42
0.40
0.01
0.18
0.48
0.62
0.79
0.67
0.62
0.60
0.38
0.18
0.25
0.11
0.16
0.11
0.06
0.02
0.01
0.01
0.01
0.02
0.14
0.02
0.04
0.15
0.15
0.23
0.26
0.40
0.40
0.40
0.32
0.11
0.30
0.20
0.01
0.02
0.00
0.02
0.10
0.06
0.16
0.07
0.10
0.18
0.20
0.10
0.07
0.16
0.16
0.06
0.07
0.06
0.02
0.02
0.02
0.02
0.02
0.06
0.06
0.01
0.10
0.01
0.01
0.01
0.07
0.23
0.11
0.02
0.00
0.06
0.10
0.11
0.30
0.18
0.20
0.26
0.25
0.07
0.32
0.55
0.64
0.78
0.69
0.62
0.62
0.33
0.20
0.18
0.11
0.01
0.10
0.02
0.06
0.01
0.01
0.00
0.01
0.02
0.02
0.15
0.07
0.14
0.20
0.35
0.16
0.40
0.15
0.23
0.26
0.14
0.07
0.01
0.01
0.07
0.10
0.02
0.11
0.10
0.18
0.25
0.33
0.25
0.25
0.18
0.26
0.06
0.10
0.16
0.11
0.02
0.07
0.02
0.07
0.18
0.02
0.18
0.10
0.02
0.02
0.01
0.00
0.00
0.07
0.02
0.07
0.00
0.33
0.30
0.25
0.30
0.42
0.26
0.42
0.42
0.40
0.04
0.58
0.59
0.81
0.74
0.66
0.62
0.56
0.25
0.35
0.18
0.07
0.07
0.11
0.01
0.06
0.00
0.01
0.06
0.02
0.02
0.11
0.14
0.18
0.18
0.23
0.26
0.18
0.35
0.32
0.23
0.18
0.07
0.01
0.01
0.02
0.00
0.10
0.20
0.16
0.18
0.20
0.18
0.18
0.33
0.10
0.25
0.07
0.07
0.10
0.07
0.07
0.06
0.02
0.06
0.02
0.10
0.10
0.16
0.01
0.02
0.01
0.06
0.02
0.16
0.07
0.01
0.01
0.02
0.26
0.30
0.18
0.35
0.38
0.33
0.33
0.46
0.11
0.49
0.01
0.82
0.84
0.66
0.63
0.59
0.33
0.20
0.30
0.38
0.16
0.07
0.26
0.01
0.06
0.07
0.02
0.00
0.00
0.00
0.02
0.07
0.14
0.15
0.16
0.16
0.18
0.11
0.16
0.11
0.00
0.01
0.02
0.10
0.10
0.16
0.26
0.20
0.35
0.26
0.30
0.25
0.30
0.30
0.16
0.26
0.10
0.16
0.11
0.20
0.10
0.30
0.20
0.16
0.20
0.11
0.16
0.35
0.11
0.16
0.18
0.01
0.11
0.04
0.10
0.18
0.35
0.53
0.38
0.38
0.47
0.47
0.46
0.53
0.47
0.02
0.51
0.16
0.79
0.84
0.69
0.63
0.59
0.53
0.40
0.53
0.35
0.38
0.20
0.41
0.35
0.26
0.07
0.30
0.07
0.25
0.16
0.01
0.30
0.07
0.02
0.01
0.00
0.07
0.07
0.06
0.40
0.20
0.20
0.11
0.42
0.02
0.30
0.25
0.01
0.40
0.25
0.30
0.06
0.26
0.40
0.16
0.33
0.18
0.26
0.02
0.07
0.16
0.25
0.02
0.07
0.18
0.07
0.01
0.53
0.02
0.26
0.41
0.10
0.02
0.18
0.10
0.01
0.54
0.41
0.54
0.51
0.20
0.59
0.58
0.65
0.77
0.90
0.94
0.93
0.75
0.56
0.59
0.60
0.56
0.59
0.58
0.60
0.53
0.60
0.60
0.64
0.59
0.59
0.61
0.64
0.64
0.64
0.62
0.66
0.64
0.62
0.66
0.61
0.63
0.62
0.62
0.60
0.59
0.59
0.56
0.59
0.56
0.53
0.18
0.46
0.53
0.41
0.33
0.40
0.02
0.56
0.26
0.40
0.02
0.59
0.01
0.01
0.01
0.40
0.40
0.26
0.10
0.55
0.48
0.01
0.40
0.02
0.47
0.42
0.58
0.30
0.11
0.01
0.07
0.53
0.64
0.20
0.18
0.07
0.18
0.46
0.16
0.48
0.62
0.01
0.23
0.53
0.87
0.87
0.62
0.64
0.59
0.46
0.78
0.56
0.25
0.61
0.01
0.00
0.55
0.01
0.76
0.47
0.57
0.41
0.30
0.73
0.49
0.73
0.89
0.66
0.86
0.67
0.64
0.93
0.60
0.69
0.80
0.18
0.89
0.01
0.46
0.54
0.35
0.01
0.77
0.47
0.06
0.90
0.62
0.20
0.16
0.51
0.20
0.67
0.66
0.62
0.07
0.30
0.63
0.30
0.80
0.25
0.67
0.47
0.67
0.54
0.20
0.89
0.35
0.11
0.87
0.18
0.88
0.58
0.82
0.11
0.33
0.77
0.00
0.46
0.77
0.58
0.93
0.94
0.60
0.62
0.64
0.26
0.07
0.02
0.65
0.58
0.55
0.57
0.65
0.30
0.62
0.83
0.06
0.51
0.30
0.74
0.00
0.72
0.58
0.51
0.63
0.18
0.72
0.69
0.60
0.60
0.01
0.73
0.41
0.64
0.75
0.04
0.35
0.75
0.26
0.71
0.62
0.23
0.68
0.40
0.90
0.16
0.61
0.87
0.33
0.26
0.58
0.16
0.91
0.01
0.16
0.62
0.62
0.07
0.77
0.67
0.02
0.62
0.71
0.04
0.77
0.63
0.43
0.75
0.02
0.89
0.07
0.58
0.14
0.18
0.88
0.33
0.86
0.61
0.68
0.80
0.64
0.79
0.82
0.69
0.15
0.41
0.40
0.73
0.90
0.25
0.20
0.87
0.86
0.71
0.43
0.89
0.46
0.80
0.74
0.87
0.75
0.89
0.84
0.88
0.90
0.78
0.92
0.88
0.84
0.84
0.95
0.07
0.95
0.02
0.69
0.58
0.71
0.87
0.18
0.64
0.74
0.00
0.49
0.11
0.89
0.46
0.41
0.77
0.16
0.88
0.62
0.59
0.66
0.77
0.68
0.40
0.85
0.93
0.46
0.87
0.16
0.69
0.77
0.74
0.61
0.69
0.68
0.07
0.76
0.48
0.88
0.26
0.71
0.42
0.85
0.77
0.90
0.96
0.94
0.07
0.70
0.59
0.01
0.60
0.87
0.49
0.16
0.02
0.89
0.30
0.71
0.55
0.93
0.11
0.51
0.46
0.90
0.56
0.82
0.61
0.02
0.75
0.14
0.61
0.62
0.02
0.33
0.74
0.63
0.65
0.67
0.53
0.71
0.60
0.41
0.61
0.79
0.60
0.43
0.61
0.15
0.23
0.69
0.68
0.54
0.46
0.55
0.71
0.61
0.02
0.68
0.40
0.69
0.40
0.26
0.68
0.02
0.41
0.00
0.87
0.25
0.64
0.62
0.61
0.69
0.48
0.69
0.01
0.01
0.04
0.32
0.35
0.07
0.41
0.78
0.47
0.88
0.16
0.62
0.90
0.87
0.69
0.59
0.04
0.23
0.02
0.14
0.73
0.35
0.35
0.54
0.48
0.55
0.48
0.23
0.54
0.60
0.69
0.65
0.58
0.63
0.67
0.69
0.62
0.66
0.62
0.63
0.62
0.60
0.43
0.15
0.07
0.06
0.15
0.55
0.04
0.35
0.18
0.38
0.42
0.02
0.26
0.16
0.42
0.01
0.30
0.18
0.40
0.11
0.35
0.26
0.35
0.38
0.38
0.42
0.26
0.38
0.40
0.33
0.30
0.26
0.38
0.18
0.33
0.41
0.42
0.58
0.56
0.55
0.55
0.56
0.58
0.58
0.59
0.42
0.20
0.15
0.84
0.90
0.79
0.66
0.62
0.56
0.55
0.56
0.56
0.53
0.48
0.47
0.41
0.48
0.26
0.35
0.30
0.33
0.20
0.07
0.16
0.06
0.10
0.02
0.02
0.02
0.10
0.10
0.25
0.35
0.41
0.48
0.56
0.55
0.53
0.56
0.58
0.56
0.56
0.58
0.56
0.56
0.56
0.56
0.55
0.56
0.58
0.55
0.55
0.53
0.56
0.56
0.55
0.56
0.55
0.56
0.56
0.58
0.56
0.48
0.56
0.48
0.48
0.35
0.53
0.55
0.59
0.60
0.59
0.59
0.59
0.59
0.59
0.59
0.61
0.59
0.33
0.11
0.69
0.90
0.82
0.70
0.65
0.59
0.59
0.59
0.59
0.56
0.56
0.55
0.53
0.53
0.50
0.50
0.41
0.42
0.40
0.26
0.35
0.25
0.25
0.26
0.25
0.25
0.30
0.40
0.42
0.53
0.48
0.56
0.55
0.56
0.56
0.56
0.55
0.56
0.56
0.56
0.56
0.55
0.53
0.55
0.53
0.53
0.55
0.53
0.53
0.53
0.56
0.56
0.53
0.56
0.53
0.56
0.56
0.56
0.55
0.53
0.47
0.56
0.40
0.46
0.30
0.41
0.50
0.55
0.59
0.58
0.58
0.58
0.58
0.58
0.58
0.59
0.48
0.02
0.54
0.71
0.89
0.73
0.66
0.63
0.58
0.56
0.56
0.53
0.47
0.48
0.46
0.38
0.40
0.33
0.33
0.30
0.18
0.20
0.18
0.16
0.18
0.07
0.16
0.18
0.20
0.26
0.35
0.40
0.46
0.56
0.48
0.55
0.48
0.50
0.53
0.53
0.53
0.53
0.56
0.53
0.53
0.48
0.46
0.50
0.47
0.47
0.53
0.48
0.46
0.47
0.50
0.48
0.55
0.50
0.50
0.42
0.48
0.53
0.38
0.35
0.47
0.18
0.26
0.07
0.25
0.30
0.41
0.55
0.50
0.56
0.53
0.53
0.53
0.56
0.58
0.25
0.20
0.57
0.66
0.72
0.70
0.63
0.63
0.55
0.56
0.53
0.50
0.46
0.42
0.40
0.35
0.48
0.41
0.40
0.10
0.33
0.25
0.30
0.18
0.16
0.11
0.02
0.16
0.16
0.11
0.07
0.16
0.18
0.30
0.25
0.26
0.18
0.30
0.26
0.18
0.25
0.25
0.41
0.18
0.25
0.26
0.20
0.26
0.25
0.25
0.35
0.18
0.26
0.33
0.30
0.35
0.11
0.30
0.38
0.30
0.25
0.30
0.18
0.10
0.10
0.01
0.07
0.04
0.07
0.18
0.16
0.41
0.30
0.41
0.38
0.35
0.50
0.42
0.42
0.10
0.43
0.65
0.66
0.87
0.73
0.64
0.61
0.30
0.33
0.25
0.25
0.11
0.16
0.16
0.10
0.01
0.01
0.02
0.00
0.14
0.14
0.15
0.15
0.20
0.35
0.30
0.35
0.30
0.18
0.18
0.07
0.04
0.01
0.02
0.01
0.06
0.11
0.07
0.11
0.16
0.10
0.25
0.16
0.20
0.11
0.11
0.20
0.11
0.11
0.18
0.01
0.07
0.06
0.07
0.16
0.06
0.11
0.07
0.16
0.06
0.10
0.10
0.06
0.07
0.11
0.00
0.14
0.01
0.02
0.07
0.20
0.30
0.38
0.25
0.30
0.26
0.30
0.40
0.25
0.16
0.62
0.61
0.81
0.75
0.66
0.61
0.46
0.20
0.25
0.16
0.11
0.16
0.11
0.01
0.02
0.02
0.00
0.04
0.07
0.01
0.15
0.15
0.18
0.16
0.16
0.18
0.16
0.16
0.11
0.02
0.00
0.02
0.00
0.01
0.00
0.06
0.01
0.07
0.06
0.02
0.02
0.06
0.06
0.06
0.02
0.02
0.00
0.02
0.00
0.07
0.00
0.01
0.00
0.01
0.00
0.01
0.06
0.00
0.01
0.02
0.02
0.01
0.00
0.14
0.04
0.41
0.16
0.02
0.00
0.18
0.06
0.16
0.18
0.10
0.30
0.11
0.35
0.00
0.41
0.64
0.63
0.72
0.66
0.63
0.61
0.30
0.11
0.16
0.02
0.02
0.01
0.00
0.02
0.01
0.00
0.02
0.14
0.14
0.07
0.00
0.16
0.15
0.18
0.16
0.16
0.14
0.14
0.15
0.11
0.00
0.01
0.01
0.01
0.02
0.00
0.01
0.00
0.01
0.01
0.01
0.01
0.11
0.02
0.02
0.01
0.00
0.00
0.04
0.01
0.01
0.01
0.01
0.00
0.00
0.01
0.04
0.01
0.01
0.07
0.04
0.15
0.01
0.18
0.11
0.30
0.18
0.11
0.02
0.06
0.07
0.02
0.02
0.07
0.07
0.16
0.10
0.01
0.55
0.68
0.63
0.75
0.67
0.62
0.59
0.20
0.02
0.00
0.11
0.07
0.11
0.16
0.14
0.20
0.26
0.30
0.30
0.46
0.30
0.48
0.46
0.51
0.46
0.57
0.55
0.55
0.41
0.41
0.30
0.30
0.23
0.14
0.04
0.04
0.04
0.02
0.04
0.02
0.01
0.01
0.01
0.02
0.01
0.01
0.00
0.00
0.01
0.01
0.02
0.01
0.01
0.02
0.01
0.01
0.01
0.00
0.02
0.00
0.00
0.10
0.07
0.00
0.11
0.07
0.30
0.20
0.07
0.02
0.06
0.07
0.10
0.10
0.18
0.16
0.11
0.20
0.16
0.26
0.62
0.38
0.75
0.73
0.65
0.61
0.56
0.07
0.10
0.02
0.00
0.02
0.01
0.07
0.07
0.01
0.18
0.16
0.11
0.18
0.18
0.26
0.18
0.41
0.43
0.46
0.32
0.40
0.32
0.26
0.30
0.16
0.11
0.15
0.00
0.02
0.01
0.02
0.02
0.06
0.01
0.02
0.06
0.01
0.07
0.07
0.06
0.07
0.01
0.02
0.01
0.01
0.00
0.01
0.00
0.01
0.02
0.01
0.02
0.00
0.00
0.00
0.07
0.14
0.15
0.30
0.23
0.14
0.04
0.01
0.02
0.02
0.07
0.11
0.10
0.16
0.07
0.20
0.23
0.62
0.43
0.78
0.87
0.68
0.64
0.59
0.01
0.02
0.01
0.02
0.00
0.15
0.07
0.15
0.16
0.20
0.35
0.26
0.35
0.43
0.48
0.57
0.57
0.62
0.61
0.62
0.58
0.58
0.58
0.49
0.46
0.20
0.18
0.14
0.15
0.01
0.02
0.04
0.00
0.02
0.01
0.00
0.00
0.02
0.00
0.02
0.00
0.01
0.02
0.01
0.07
0.07
0.01
0.04
0.01
0.04
0.04
0.01
0.02
0.00
0.01
0.15
0.04
0.11
0.14
0.40
0.20
0.14
0.02
0.01
0.06
0.02
0.02
0.02
0.11
0.16
0.25
0.06
0.41
0.63
0.02
0.82
0.85
0.67
0.62
0.50
0.01
0.01
0.00
0.04
0.00
0.07
0.07
0.04
0.07
0.18
0.15
0.15
0.26
0.30
0.20
0.35
0.35
0.41
0.43
0.43
0.46
0.41
0.32
0.18
0.18
0.07
0.02
0.01
0.00
0.01
0.02
0.01
0.06
0.06
0.02
0.06
0.07
0.10
0.06
0.06
0.02
0.02
0.01
0.02
0.01
0.01
0.01
0.00
0.01
0.00
0.01
0.02
0.02
0.02
0.07
0.01
0.00
0.00
0.01
0.15
0.20
0.04
0.01
0.01
0.07
0.16
0.07
0.16
0.16
0.16
0.16
0.10
0.15
0.62
0.48
0.79
0.87
0.67
0.65
0.59
0.02
0.06
0.00
0.00
0.00
0.04
0.14
0.14
0.16
0.32
0.15
0.32
0.30
0.41
0.46
0.54
0.55
0.61
0.58
0.60
0.61
0.51
0.59
0.58
0.48
0.35
0.23
0.15
0.11
0.15
0.02
0.02
0.07
0.02
0.01
0.02
0.00
0.01
0.01
0.00
0.00
0.02
0.01
0.04
0.14
0.04
0.02
0.11
0.11
0.04
0.11
0.04
0.01
0.02
0.07
0.00
0.04
0.14
0.01
0.32
0.60
0.67
0.74
0.77
0.20
0.01
0.69
0.82
0.89
0.93
0.95
0.94
0.94
0.87
0.35
0.56
0.53
0.50
0.53
0.58
0.59
0.59
0.60
0.60
0.59
0.61
0.62
0.63
0.64
0.63
0.61
0.64
0.64
0.64
0.64
0.63
0.62
0.64
0.63
0.61
0.59
0.59
0.56
0.40
0.20
0.10
0.26
0.02
0.07
0.10
0.10
0.02
0.02
0.01
0.02
0.02
0.01
0.01
0.02
0.01
0.01
0.02
0.07
0.00
0.02
0.07
0.02
0.07
0.02
0.02
0.02
0.06
0.06
0.10
0.06
0.07
0.02
0.11
0.00
0.02
0.02
0.00
0.07
0.20
0.16
0.02
0.00
0.06
0.11
0.11
0.16
0.02
0.16
0.11
0.25
0.00
0.51
0.61
0.60
0.85
0.82
0.67
0.61
0.46
0.00
0.01
0.04
0.00
0.11
0.15
0.14
0.20
0.23
0.20
0.30
0.40
0.41
0.48
0.51
0.60
0.61
0.62
0.63
0.64
0.65
0.67
0.67
0.61
0.61
0.57
0.32
0.26
0.15
0.11
0.04
0.04
0.01
0.01
0.01
0.01
0.01
0.00
0.00
0.01
0.00
0.01
0.00
0.00
0.00
0.07
0.01
0.07
0.01
0.01
0.02
0.04
0.00
0.01
0.01
0.14
0.00
0.07
0.60
0.58
0.73
0.75
0.86
0.87
0.93
0.96
0.96
0.94
0.96
0.96
0.97
0.94
0.71
0.30
0.33
0.47
0.56
0.59
0.61
0.59
0.59
0.60
0.62
0.64
0.64
0.62
0.62
0.66
0.68
0.74
0.75
0.79
0.78
0.75
0.68
0.65
0.62
0.64
0.61
0.60
0.56
0.47
0.35
0.16
0.06
0.06
0.02
0.02
0.01
0.07
0.02
0.02
0.02
0.11
0.01
0.02
0.01
0.02
0.01
0.06
0.01
0.06
0.10
0.06
0.02
0.02
0.00
0.02
0.06
0.06
0.01
0.01
0.02
0.07
0.02
0.02
0.10
0.02
0.01
0.07
0.01
0.01
0.02
0.01
0.07
0.01
0.04
0.02
0.02
0.10
0.20
0.26
0.25
0.25
0.18
0.35
0.30
0.20
0.16
0.61
0.55
0.75
0.87
0.70
0.63
0.60
0.11
0.02
0.01
0.02
0.01
0.02
0.11
0.00
0.07
0.11
0.30
0.14
0.16
0.35
0.40
0.30
0.48
0.40
0.43
0.55
0.54
0.58
0.57
0.48
0.43
0.43
0.20
0.01
0.04
0.00
0.01
0.02
0.02
0.07
0.06
0.02
0.07
0.06
0.01
0.06
0.07
0.07
0.01
0.01
0.06
0.01
0.01
0.01
0.01
0.00
0.07
0.07
0.01
0.01
0.01
0.00
0.02
0.02
0.18
0.11
0.16
0.23
0.15
0.00
0.02
0.20
0.18
0.25
0.06
0.14
0.48
0.60
0.72
0.88
0.88
0.18
0.64
0.60
0.61
0.60
0.47
0.20
0.30
0.18
0.18
0.16
0.20
0.10
0.25
0.11
0.20
0.11
0.11
0.25
0.26
0.25
0.30
0.38
0.33
0.41
0.38
0.11
0.42
0.11
0.11
0.07
0.01
0.01
0.01
0.01
0.01
0.00
0.00
0.00
0.00
0.02
0.01
0.01
0.02
0.00
0.02
0.00
0.02
0.02
0.01
0.01
0.01
0.06
0.00
0.02
0.01
0.00
0.00
0.02
0.01
0.01
0.01
0.02
0.02
0.01
0.00
0.01
0.01
0.20
0.04
0.30
0.07
0.02
0.04
0.25
0.07
0.02
0.11
0.10
0.06
0.10
0.02
0.41
0.61
0.54
0.79
0.89
0.68
0.64
0.59
0.02
0.00
0.01
0.07
0.16
0.15
0.15
0.30
0.26
0.35
0.41
0.40
0.41
0.51
0.51
0.58
0.62
0.62
0.62
0.62
0.62
0.62
0.54
0.59
0.58
0.41
0.23
0.11
0.01
0.00
0.01
0.02
0.01
0.07
0.10
0.02
0.02
0.02
0.07
0.07
0.10
0.02
0.06
0.06
0.02
0.00
0.01
0.00
0.00
0.01
0.01
0.02
0.01
0.01
0.00
0.01
0.01
0.02
0.11
0.01
0.04
0.02
0.11
0.07
0.01
0.01
0.16
0.18
0.33
0.16
0.16
0.25
0.25
0.33
0.01
0.51
0.60
0.63
0.87
0.77
0.66
0.62
0.38
0.02
0.07
0.06
0.02
0.00
0.01
0.14
0.00
0.11
0.07
0.14
0.26
0.26
0.23
0.32
0.46
0.51
0.59
0.57
0.59
0.58
0.61
0.51
0.43
0.41
0.14
0.15
0.07
0.01
0.02
0.01
0.01
0.01
0.01
0.07
0.06
0.02
0.02
0.06
0.02
0.01
0.11
0.02
0.01
0.01
0.01
0.02
0.01
0.01
0.01
0.01
0.02
0.02
0.01
0.06
0.02
0.02
0.02
0.00
0.01
0.01
0.02
0.16
0.07
0.02
0.01
0.06
0.18
0.18
0.11
0.10
0.11
0.25
0.18
0.02
0.46
0.59
0.62
0.87
0.84
0.68
0.61
0.38
0.10
0.02
0.01
0.00
0.01
0.11
0.18
0.16
0.23
0.26
0.30
0.46
0.46
0.58
0.58
0.61
0.63
0.65
0.67
0.66
0.66
0.63
0.63
0.60
0.54
0.43
0.30
0.18
0.04
0.04
0.00
0.02
0.02
0.00
0.01
0.01
0.01
0.00
0.00
0.00
0.00
0.01
0.04
0.01
0.01
0.01
0.02
0.07
0.01
0.04
0.01
0.01
0.04
0.01
0.00
0.01
0.02
0.01
0.00
0.04
0.00
0.11
0.14
0.15
0.11
0.01
0.02
0.07
0.20
0.11
0.20
0.16
0.20
0.30
0.11
0.32
0.57
0.55
0.78
0.87
0.70
0.63
0.60
0.20
0.20
0.11
0.06
0.02
0.01
0.00
0.00
0.00
0.01
0.04
0.20
0.11
0.16
0.18
0.26
0.26
0.43
0.41
0.46
0.51
0.35
0.46
0.26
0.32
0.04
0.07
0.00
0.02
0.11
0.02
0.10
0.06
0.16
0.11
0.20
0.26
0.16
0.18
0.07
0.16
0.16
0.20
0.02
0.07
0.02
0.10
0.02
0.06
0.02
0.00
0.06
0.02
0.02
0.06
0.02
0.07
0.01
0.10
0.00
0.01
0.00
0.02
0.20
0.04
0.02
0.02
0.10
0.02
0.25
0.16
0.11
0.25
0.16
0.20
0.16
0.40
0.58
0.16
0.84
0.87
0.67
0.62
0.58
0.06
0.02
0.02
0.00
0.07
0.07
0.15
0.11
0.16
0.20
0.30
0.35
0.40
0.48
0.57
0.59
0.59
0.63
0.66
0.67
0.67
0.67
0.63
0.62
0.57
0.54
0.26
0.15
0.04
0.01
0.01
0.01
0.01
0.01
0.02
0.01
0.01
0.01
0.01
0.00
0.01
0.01
0.01
0.01
0.07
0.18
0.02
0.07
0.11
0.11
0.15
0.07
0.07
0.07
0.16
0.00
0.07
0.00
0.00
0.02
0.11
0.04
0.14
0.11
0.16
0.26
0.16
0.01
0.01
0.01
0.06
0.06
0.06
0.02
0.11
0.11
0.11
0.06
0.61
0.60
0.59
0.89
0.89
0.69
0.59
0.41
0.06
0.01
0.01
0.04
0.02
0.04
0.14
0.14
0.14
0.16
0.32
0.26
0.43
0.41
0.40
0.51
0.57
0.59
0.58
0.59
0.58
0.55
0.58
0.48
0.35
0.20
0.16
0.00
0.00
0.00
0.02
0.00
0.02
0.06
0.02
0.06
0.07
0.02
0.07
0.07
0.16
0.10
0.06
0.06
0.06
0.02
0.06
0.06
0.02
0.02
0.02
0.02
0.10
0.16
0.10
0.11
0.18
0.06
0.07
0.07
0.11
0.20
0.07
0.06
0.02
0.00
0.01
0.02
0.01
0.00
0.02
0.18
0.33
0.18
0.18
0.33
0.26
0.25
0.33
0.02
0.40
0.58
0.61
0.81
0.78
0.66
0.62
0.50
0.16
0.07
0.06
0.01
0.02
0.00
0.00
0.00
0.07
0.02
0.07
0.04
0.20
0.20
0.26
0.35
0.43
0.46
0.55
0.58
0.61
0.58
0.60
0.54
0.40
0.26
0.15
0.01
0.01
0.00
0.02
0.02
0.01
0.01
0.02
0.01
0.02
0.06
0.10
0.02
0.01
0.01
0.02
0.00
0.01
0.01
0.01
0.01
0.02
0.01
0.00
0.00
0.00
0.02
0.01
0.01
0.01
0.01
0.02
0.00
0.02
0.02
0.10
0.02
0.02
0.01
0.02
0.00
0.15
0.01
0.07
0.02
0.02
0.02
0.18
0.16
0.18
0.25
0.25
0.10
0.18
0.07
0.30
0.62
0.66
0.67
0.82
0.72
0.62
0.56
0.06
0.02
0.00
0.00
0.00
0.02
0.14
0.26
0.20
0.26
0.26
0.32
0.41
0.43
0.49
0.55
0.57
0.61
0.58
0.59
0.62
0.62
0.60
0.57
0.46
0.40
0.20
0.15
0.11
0.11
0.07
0.06
0.01
0.01
0.01
0.01
0.02
0.01
0.04
0.06
0.01
0.01
0.01
0.02
0.00
0.01
0.01
0.07
0.01
0.02
0.07
0.00
0.06
0.01
0.00
0.07
0.06
0.06
0.02
0.06
0.07
0.10
0.06
0.11
0.02
0.06
0.02
0.00
0.02
0.07
0.02
0.07
0.10
0.35
0.38
0.30
0.33
0.26
0.35
0.30
0.30
0.15
0.58
0.62
0.69
0.82
0.69
0.62
0.61
0.30
0.11
0.18
0.06
0.10
0.02
0.02
0.11
0.02
0.01
0.00
0.00
0.02
0.00
0.11
0.30
0.07
0.20
0.26
0.43
0.41
0.41
0.32
0.32
0.23
0.18
0.02
0.04
0.02
0.02
0.07
0.10
0.16
0.06
0.07
0.01
0.16
0.07
0.16
0.25
0.07
0.10
0.06
0.10
0.02
0.01
0.02
0.02
0.06
0.00
0.07
0.02
0.02
0.01
0.07
0.02
0.02
0.02
0.01
0.06
0.02
0.06
0.07
0.18
0.01
0.00
0.01
0.00
0.14
0.04
0.02
0.07
0.14
0.18
0.65
0.80
0.88
0.90
0.91
0.94
0.94
0.90
0.93
0.94
0.76
0.46
0.59
0.59
0.59
0.56
0.56
0.56
0.59
0.59
0.59
0.60
0.59
0.62
0.62
0.63
0.64
0.63
0.62
0.62
0.62
0.62
0.62
0.64
0.64
0.61
0.60
0.61
0.56
0.38
0.30
0.20
0.02
0.02
0.02
0.00
0.10
0.02
0.06
0.11
0.01
0.02
0.10
0.07
0.02
0.10
0.02
0.06
0.10
0.06
0.06
0.16
0.10
0.11
0.16
0.10
0.07
0.10
0.06
0.11
0.02
0.07
0.18
0.10
0.11
0.06
0.11
0.10
0.06
0.06
0.02
0.00
0.01
0.04
0.00
0.01
0.07
0.00
0.18
0.25
0.25
0.26
0.25
0.26
0.26
0.38
0.06
0.40
0.60
0.59
0.87
0.87
0.71
0.61
0.47
0.18
0.16
0.06
0.00
0.00
0.01
0.07
0.01
0.07
0.01
0.18
0.07
0.15
0.26
0.16
0.15
0.30
0.41
0.32
0.41
0.43
0.40
0.32
0.23
0.32
0.15
0.01
0.01
0.02
0.10
0.18
0.11
0.11
0.10
0.11
0.16
0.16
0.16
0.18
0.10
0.18
0.18
0.25
0.06
0.06
0.06
0.16
0.06
0.06
0.10
0.07
0.06
0.11
0.16
0.06
0.02
0.18
0.10
0.18
0.20
0.30
0.06
0.07
0.11
0.01
0.00
0.02
0.07
0.02
0.06
0.02
0.25
0.30
0.30
0.41
0.30
0.20
0.26
0.33
0.14
0.60
0.62
0.66
0.84
0.72
0.61
0.62
0.30
0.11
0.11
0.06
0.06
0.01
0.01
0.01
0.02
0.04
0.01
0.07
0.18
0.16
0.20
0.26
0.35
0.41
0.55
0.48
0.57
0.55
0.57
0.57
0.43
0.35
0.16
0.04
0.00
0.01
0.01
0.10
0.18
0.18
0.16
0.10
0.16
0.16
0.10
0.20
0.11
0.20
0.10
0.20
0.10
0.10
0.11
0.07
0.10
0.10
0.10
0.07
0.18
0.11
0.16
0.10
0.16
0.10
0.11
0.18
0.25
0.16
0.11
0.11
0.01
0.06
0.01
0.00
0.01
0.02
0.06
0.02
0.18
0.20
0.35
0.11
0.30
0.26
0.30
0.25
0.20
0.32
0.32
0.40
0.89
0.90
0.72
0.63
0.53
0.07
0.06
0.10
0.00
0.02
0.00
0.11
0.14
0.11
0.15
0.18
0.20
0.32
0.41
0.51
0.49
0.61
0.62
0.62
0.62
0.63
0.62
0.62
0.58
0.54
0.32
0.16
0.02
0.01
0.16
0.02
0.18
0.25
0.25
0.16
0.33
0.33
0.30
0.20
0.26
0.33
0.30
0.33
0.18
0.26
0.20
0.33
0.16
0.25
0.26
0.25
0.30
0.35
0.26
0.30
0.38
0.40
0.35
0.41
0.40
0.41
0.25
0.33
0.38
0.11
0.38
0.02
0.20
0.20
0.40
0.42
0.42
0.53
0.48
0.50
0.53
0.56
0.56
0.10
0.32
0.48
0.73
0.87
0.75
0.62
0.62
0.56
0.48
0.41
0.38
0.41
0.35
0.33
0.25
0.26
0.33
0.18
0.18
0.25
0.02
0.16
0.06
0.06
0.01
0.00
0.07
0.02
0.04
0.02
0.01
0.01
0.18
0.10
0.33
0.33
0.40
0.38
0.42
0.41
0.48
0.50
0.46
0.42
0.48
0.47
0.47
0.48
0.47
0.42
0.42
0.42
0.42
0.41
0.41
0.48
0.41
0.46
0.47
0.46
0.41
0.38
0.48
0.46
0.42
0.48
0.47
0.47
0.41
0.40
0.40
0.20
0.33
0.16
0.35
0.42
0.40
0.56
0.56
0.56
0.56
0.56
0.55
0.56
0.53
0.10
0.26
0.18
0.87
0.90
0.78
0.64
0.60
0.46
0.42
0.40
0.40
0.20
0.26
0.20
0.07
0.16
0.01
0.01
0.01
0.01
0.01
0.18
0.30
0.54
0.55
0.55
0.62
0.62
0.61
0.61
0.60
0.57
0.40
0.02
0.02
0.10
0.25
0.35
0.38
0.35
0.35
0.40
0.40
0.50
0.38
0.38
0.50
0.33
0.30
0.40
0.40
0.35
0.18
0.26
0.38
0.35
0.26
0.35
0.41
0.16
0.35
0.38
0.33
0.30
0.33
0.35
0.38
0.35
0.25
0.33
0.16
0.30
0.01
0.40
0.01
0.16
0.35
0.26
0.46
0.41
0.56
0.48
0.55
0.53
0.42
0.42
0.07
0.06
0.57
0.85
0.90
0.84
0.69
0.59
0.33
0.16
0.16
0.11
0.02
0.26
0.06
0.06
0.02
0.38
0.16
0.20
0.15
0.11
0.60
0.43
0.32
0.62
0.41
0.60
0.68
0.18
0.10
0.43
0.64
0.41
0.10
0.11
0.59
0.07
0.01
0.60
0.00
0.47
0.58
0.33
0.07
0.59
0.59
0.46
0.30
0.20
0.16
0.06
0.59
0.20
0.59
0.01
0.00
0.47
0.07
0.10
0.20
0.18
0.20
0.02
0.01
0.55
0.30
0.46
0.16
0.01
0.59
0.18
0.55
0.60
0.32
0.75
0.59
0.32
0.62
0.58
0.01
0.62
0.72
0.61
0.32
0.26
0.16
0.48
0.84
0.43
0.62
0.90
0.64
0.61
0.56
0.62
0.60
0.16
0.18
0.59
0.57
0.79
0.56
0.01
0.16
0.11
0.11
0.58
0.10
0.66
0.48
0.88
0.64
0.15
0.88
0.63
0.69
0.40
0.23
0.25
0.53
0.60
0.84
0.61
0.76
0.59
0.40
0.49
0.01
0.67
0.35
0.77
0.62
0.49
0.67
0.84
0.53
0.87
0.02
0.88
0.67
0.55
0.30
0.58
0.61
0.67
0.57
0.75
0.60
0.25
0.89
0.53
0.88
0.02
0.48
0.59
0.88
0.77
0.64
0.18
0.61
0.78
0.59
0.58
0.87
0.57
0.07
0.87
0.30
0.93
0.40
0.69
0.96
0.76
0.93
0.69
0.94
0.97
0.96
0.95
0.96
0.97
0.88
0.94
0.30
0.14
0.53
0.66
0.40
0.14
0.38
0.35
0.20
0.59
0.07
0.59
0.00
0.78
0.56
0.62
0.59
0.62
0.66
0.15
0.60
0.59
0.33
0.01
0.59
0.62
0.94
0.41
0.62
0.87
0.90
0.49
0.51
0.51
0.14
0.74
0.60
0.74
0.07
0.78
0.92
0.68
0.01
0.62
0.95
0.62
0.47
0.88
0.62
0.14
0.67
0.78
0.00
0.63
0.38
0.94
0.88
0.61
0.40
0.59
0.77
0.92
0.64
0.32
0.96
0.30
0.41
0.41
0.89
0.30
0.56
0.96
0.25
0.78
0.75
0.64
0.01
0.89
0.87
0.71
0.51
0.78
0.40
0.78
0.89
0.75
0.88
0.63
0.41
0.75
0.87
0.63
0.48
0.89
0.77
0.35
0.65
0.76
0.97
0.83
0.64
0.33
0.56
0.23
0.74
0.02
0.77
0.43
0.91
0.01
0.96
0.63
0.88
0.87
0.01
0.43
0.89
0.61
0.67
0.89
0.11
0.26
0.53
0.74
0.89
0.46
0.40
0.74
0.02
0.25
0.77
0.16
0.38
0.25
0.77
0.07
0.67
0.85
0.73
0.63
0.58
0.62
0.84
0.01
0.66
0.07
0.89
0.01
0.86
0.40
0.01
0.93
0.87
0.75
0.87
0.20
0.89
0.07
0.89
0.59
0.02
0.90
0.32
0.20
0.89
0.63
0.90
0.50
0.74
0.49
0.07
0.74
0.90
0.01
0.72
0.04
0.88
0.60
0.88
0.41
0.73
0.01
0.82
0.78
0.59
0.93
0.84
0.18
0.62
0.04
0.68
0.74
0.78
0.69
0.88
0.61
0.65
0.56
0.02
0.02
0.30
0.78
0.25
0.01
0.71
0.02
0.56
0.41
0.85
0.55
0.62
0.59
0.71
0.61
0.84
0.65
0.41
0.68
0.18
0.53
0.53
0.53
0.15
0.62
0.61
0.65
0.87
0.01
0.30
0.56
0.43
0.48
0.01
0.11
0.88
0.60
0.43
0.77
0.63
0.47
0.73
0.62
0.18
0.74
0.71
0.60
0.90
0.35
0.61
0.30
0.11
0.16
0.77
0.35
0.55
0.69
0.59
0.58
0.74
0.63
0.58
0.62
0.63
0.35
0.94
0.65
0.11
0.30
0.02
0.25
0.07
0.86
0.43
0.61
0.40
0.55
0.55
0.76
0.07
0.80
0.58
0.01
0.48
0.26
0.71
0.33
0.89
0.63
0.90
0.84
0.64
0.61
0.62
0.59
0.61
0.02
0.59
0.89
0.00
0.54
0.07
0.59
0.62
0.61
0.41
0.65
0.59
0.48
0.62
0.23
0.50
0.64
0.49
0.00
0.47
0.67
0.87
0.59
0.07
0.66
0.62
0.18
0.62
0.89
0.64
0.78
0.01
0.35
0.62
0.46
0.92
0.59
0.41
0.90
0.56
0.93
0.59
0.58
0.18
0.90
0.71
0.14
0.06
0.42
0.67
0.88
0.77
0.04
0.06
0.76
0.61
0.97
0.79
0.75
0.43
0.87
0.35
0.59
0.55
0.46
0.20
0.98
0.90
0.11
0.88
0.64
0.90
0.63
0.89
0.57
0.58
0.73
0.25
0.73
0.74
0.30
0.15
0.11
0.26
0.61
0.62
0.58
0.56
0.41
0.90
0.61
0.93
0.60
0.62
0.59
0.07
0.01
0.00
0.30
0.10
0.58
0.07
0.16
0.30
0.61
0.56
0.02
0.01
0.47
0.38
0.49
0.59
0.00
0.59
0.46
0.41
0.59
0.56
0.59
0.62
0.60
0.63
0.56
0.62
0.60
0.02
0.61
0.62
0.18
0.07
0.59
0.40
0.61
0.25
0.65
0.59
0.59
0.67
0.59
0.18
0.40
0.07
0.59
0.63
0.56
0.56
0.68
0.58
0.26
0.56
0.35
0.02
0.61
0.06
0.01
0.04
0.01
0.07
0.32
0.59
0.10
0.57
0.07
0.62
0.41
0.07
0.01
0.48
0.49
0.10
0.67
0.61
0.63
0.56
0.16
0.61
0.15
0.63
0.89
0.64
0.59
0.59
0.56
0.66
0.30
0.88
0.25
0.75
0.62
0.62
0.61
0.18
0.59
0.07
0.53
0.61
0.06
0.68
0.61
0.59
0.56
0.26
0.59
0.07
0.16
0.60
0.59
0.60
0.30
0.64
0.46
0.64
0.33
0.62
0.62
0.63
0.62
0.62
0.60
0.53
0.58
0.56
0.20
0.59
0.18
0.02
0.30
0.60
0.73
0.64
0.73
0.06
0.53
0.55
0.49
0.61
0.20
0.06
0.07
0.18
0.58
0.35
0.30
0.04
0.26
0.46
0.23
0.40
0.30
0.10
0.18
0.02
0.41
0.02
0.07
0.00
0.07
0.10
0.02
0.00
0.01
0.06
0.01
0.11
0.16
0.18
0.25
0.41
0.59
0.42
0.33
0.38
0.56
0.47
0.33
0.58
0.01
0.16
0.88
0.59
0.72
0.59
0.63
0.59
0.58
0.58
0.60
0.48
0.59
0.60
0.58
0.60
0.59
0.58
0.60
0.60
0.60
0.61
0.59
0.61
0.61
0.61
0.61
0.62
0.63
0.62
0.63
0.64
0.63
0.64
0.63
0.64
0.61
0.59
0.59
0.60
0.59
0.59
0.55
0.59
0.56
0.53
0.59
0.56
0.56
0.47
0.55
0.56
0.59
0.59
0.55
0.50
0.47
0.56
0.59
0.56
0.55
0.56
0.59
0.53
0.56
0.53
0.42
0.58
0.55
0.58
0.56
0.48
0.35
0.53
0.55
0.53
0.40
0.35
0.48
0.56
0.55
0.61
0.59
0.48
0.56
0.58
0.56
0.56
0.62
0.42
0.67
0.62
0.59
0.07
0.63
0.60
0.60
0.60
0.60
0.61
0.59
0.62
0.61
0.59
0.60
0.61
0.59
0.62
0.61
0.60
0.63
0.61
0.64
0.64
0.63
0.63
0.63
0.62
0.62
0.62
0.62
0.62
0.62
0.65
0.62
0.62
0.59
0.59
0.59
0.59
0.56
0.56
0.58
0.56
0.48
0.55
0.56
0.47
0.42
0.59
0.59
0.56
0.53
0.59
0.46
0.56
0.55
0.58
0.58
0.59
0.42
0.56
0.59
0.55
0.58
0.56
0.55
0.59
0.58
0.59
0.59
0.61
0.58
0.47
0.41
0.56
0.46
0.56
0.59
0.55
0.60
0.60
0.53
0.56
0.61
0.62
0.63
0.59
0.61
0.61
0.60
0.60
0.60
0.61
0.60
0.59
0.62
0.60
0.60
0.59
0.59
0.59
0.61
0.59
0.61
0.62
0.61
0.65
0.64
0.65
0.64
0.63
0.64
0.62
0.63
0.64
0.64
0.59
0.60
0.59
0.59
0.60
0.59
0.59
0.59
0.59
0.59
0.59
0.58
0.59
0.58
0.56
0.56
0.59
0.56
0.56
0.41
0.58
0.59
0.59
0.59
0.59
0.60
0.56
0.60
0.59
0.59
0.60
0.47
0.56
0.35
0.56
0.58
0.53
0.59
0.59
0.61
0.60
0.59
0.59
0.60
0.59
0.59
0.59
0.59
0.64
0.66
0.63
0.64
0.64
0.60
0.59
0.59
0.59
0.59
0.59
0.59
0.56
0.60
0.56
0.59
0.58
0.56
0.61
0.59
0.59
0.59
0.59
0.59
0.56
0.59
0.58
0.60
0.59
0.59
0.59
0.56
0.58
0.59
0.56
0.50
0.59
0.59
0.59
0.56
0.56
0.60
0.48
0.59
0.53
0.59
0.55
0.53
0.59
0.56
0.56
0.59
0.58
0.59
0.53
0.58
0.56
0.58
0.56
0.53
0.56
0.53
0.30
0.35
0.30
0.35
0.56
0.59
0.42
0.61
0.48
0.56
0.59
0.60
0.26
0.41
0.40
0.63
0.66
0.64
0.64
0.62
0.55
0.48
0.56
0.47
0.55
0.59
0.30
0.46
0.50
0.25
0.41
0.53
0.30
0.02
0.58
0.11
0.18
0.18
0.16
0.16
0.00
0.02
0.01
0.07
0.11
0.30
0.01
0.06
0.53
0.53
0.01
0.26
0.58
0.33
0.20
0.48
0.42
0.40
0.16
0.53
0.40
0.25
0.56
0.25
0.30
0.30
0.53
0.35
0.38
0.10
0.26
0.25
0.25
0.38
0.40
0.42
0.20
0.01
0.16
0.00
0.26
0.48
0.41
0.16
0.50
0.38
0.02
0.53
0.00
0.11
0.32
0.62
0.72
0.65
0.63
0.59
0.25
0.10
0.06
0.35
0.01
0.16
0.10
0.30
0.00
0.04
0.38
0.15
0.26
0.04
0.07
0.32
0.04
0.59
0.35
0.51
0.63
0.57
0.59
0.65
0.58
0.60
0.15
0.35
0.20
0.01
0.20
0.16
0.16
0.16
0.01
0.02
0.00
0.00
0.15
0.15
0.23
0.00
0.32
0.07
0.15
0.20
0.18
0.26
0.04
0.20
0.30
0.32
0.04
0.46
0.60
0.48
0.54
0.62
0.46
0.51
0.48
0.41
0.54
0.55
0.23
0.41
0.16
0.01
0.02
0.62
0.55
0.56
0.67
0.66
0.63
0.40
0.14
0.32
0.61
0.51
0.41
0.61
0.63
0.61
0.49
0.68
0.43
0.58
0.67
0.76
0.67
0.73
0.80
0.88
0.75
0.87
0.88
0.89
0.88
0.82
0.88
0.78
0.76
0.76
0.61
0.74
0.01
0.73
0.07
0.35
0.14
0.74
0.51
0.30
0.58
0.59
0.62
0.57
0.64
0.48
0.62
0.58
0.54
0.62
0.48
0.62
0.62
0.54
0.46
0.68
0.68
0.63
0.68
0.71
0.64
0.68
0.63
0.61
0.58
0.61
0.62
0.16
0.62
0.57
0.01
0.67
0.69
0.66
0.66
0.68
0.62
0.10
0.04
0.74
0.40
0.65
0.14
0.69
0.60
0.60
0.66
0.43
0.73
0.62
0.66
0.68
0.69
0.74
0.73
0.78
0.79
0.77
0.84
0.84
0.76
0.83
0.77
0.77
0.71
0.66
0.68
0.65
0.62
0.62
0.60
0.63
0.61
0.61
0.62
0.59
0.55
0.59
0.62
0.60
0.60
0.59
0.60
0.59
0.60
0.60
0.55
0.58
0.58
0.58
0.62
0.61
0.60
0.63
0.65
0.61
0.58
0.43
0.23
0.23
0.40
0.16
0.20
0.20
0.15
0.07
0.55
0.69
0.60
0.82
0.66
0.62
0.46
0.23
0.14
0.40
0.20
0.26
0.41
0.40
0.46
0.43
0.41
0.48
0.49
0.51
0.51
0.57
0.59
0.58
0.60
0.63
0.58
0.62
0.61
0.58
0.60
0.55
0.46
0.41
0.23
0.15
0.18
0.15
0.07
0.11
0.15
0.11
0.04
0.15
0.11
0.07
0.11
0.02
0.04
0.07
0.11
0.14
0.11
0.11
0.02
0.07
0.07
0.23
0.15
0.18
0.23
0.41
0.16
0.23
0.01
0.01
0.01
0.01
0.06
0.02
0.11
0.16
0.33
0.04
0.32
0.25
0.67
0.61
0.64
0.59
0.42
0.30
0.18
0.20
0.11
0.10
0.06
0.06
0.01
0.02
0.01
0.01
0.00
0.01
0.01
0.04
0.00
0.04
0.04
0.11
0.01
0.01
0.02
0.01
0.02
0.07
0.20
0.16
0.16
0.20
0.10
0.16
0.11
0.16
0.02
0.18
0.16
0.16
0.11
0.10
0.20
0.07
0.10
0.16
0.18
0.10
0.11
0.20
0.20
0.01
0.01
0.10
0.01
0.11
0.07
0.01
0.01
0.18
0.38
0.38
0.25
0.33
0.35
0.42
0.38
0.56
0.16
0.23
0.56
0.65
0.63
0.63
0.62
0.58
0.48
0.42
0.41
0.33
0.30
0.30
0.16
0.16
0.18
0.16
0.10
0.16
0.01
0.06
0.02
0.00
0.02
0.00
0.00
0.04
0.01
0.02
0.02
0.01
0.10
0.07
0.06
0.20
0.06
0.18
0.11
0.18
0.10
0.20
0.11
0.06
0.07
0.07
0.07
0.18
0.11
0.07
0.10
0.10
0.10
0.11
0.07
0.10
0.11
0.02
0.02
0.00
0.00
0.15
0.01
0.02
0.07
0.30
0.25
0.30
0.33
0.40
0.26
0.33
0.48
0.01
0.26
0.59
0.66
0.75
0.64
0.63
0.59
0.33
0.30
0.40
0.25
0.25
0.18
0.10
0.10
0.06
0.07
0.02
0.06
0.00
0.01
0.01
0.00
0.02
0.02
0.02
0.01
0.01
0.00
0.00
0.10
0.07
0.11
0.10
0.16
0.07
0.11
0.11
0.16
0.26
0.10
0.16
0.07
0.20
0.30
0.10
0.16
0.16
0.18
0.11
0.20
0.20
0.11
0.20
0.11
0.16
0.06
0.10
0.01
0.02
0.41
0.26
0.61
0.67
0.58
0.62
0.71
0.75
0.73
0.64
0.23
0.91
0.94
0.78
0.61
0.59
0.60
0.58
0.59
0.38
0.38
0.35
0.38
0.41
0.41
0.41
0.46
0.46
0.53
0.56
0.56
0.56
0.56
0.56
0.53
0.46
0.41
0.26
0.16
0.18
0.06
0.06
0.07
0.16
0.06
0.02
0.18
0.10
0.10
0.20
0.20
0.35
0.33
0.25
0.33
0.18
0.38
0.18
0.25
0.20
0.20
0.25
0.26
0.33
0.26
0.25
0.26
0.30
0.20
0.18
0.20
0.06
0.07
0.02
0.02
0.11
0.30
0.35
0.33
0.38
0.41
0.35
0.40
0.41
0.48
0.01
0.58
0.14
0.73
0.82
0.67
0.64
0.60
0.40
0.42
0.35
0.33
0.38
0.26
0.18
0.11
0.11
0.11
0.10
0.10
0.07
0.02
0.02
0.02
0.01
0.02
0.01
0.07
0.06
0.11
0.10
0.20
0.07
0.25
0.26
0.25
0.20
0.20
0.26
0.20
0.18
0.18
0.10
0.25
0.20
0.18
0.25
0.20
0.16
0.18
0.18
0.18
0.11
0.10
0.10
0.11
0.06
0.02
0.01
0.04
0.07
0.04
0.07
0.11
0.56
0.59
0.62
0.58
0.55
0.93
0.99
1.00
1.00
0.99
0.99
0.96
0.87
0.54
0.11
0.55
0.59
0.59
0.59
0.59
0.62
0.61
0.61
0.63
0.64
0.63
0.62
0.64
0.66
0.70
0.77
0.84
0.87
0.89
0.90
0.90
0.89
0.88
0.82
0.70
0.64
0.63
0.62
0.59
0.55
0.42
0.26
0.30
0.10
0.11
0.16
0.18
0.16
0.11
0.16
0.10
0.11
0.25
0.26
0.06
0.10
0.07
0.11
0.18
0.11
0.00
0.00
0.00
0.02
0.02
0.46
0.59
0.56
0.18
0.88
0.97
1.00
1.00
1.00
0.99
0.96
0.96
0.98
0.97
0.93
0.68
0.00
0.58
0.60
0.61
0.62
0.61
0.64
0.63
0.63
0.63
0.66
0.67
0.74
0.79
0.85
0.89
0.90
0.90
0.90
0.90
0.90
0.90
0.89
0.85
0.72
0.64
0.64
0.61
0.60
0.53
0.40
0.30
0.16
0.20
0.10
0.07
0.07
0.10
0.11
0.11
0.07
0.01
0.18
0.07
0.06
0.07
0.07
0.11
0.02
0.02
0.07
0.01
0.02
0.02
0.16
0.14
0.30
0.16
0.20
0.00
0.01
0.02
0.07
0.07
0.10
0.07
0.16
0.25
0.20
0.62
0.20
0.66
0.69
0.64
0.62
0.59
0.06
0.02
0.00
0.14
0.04
0.16
0.16
0.16
0.16
0.18
0.15
0.40
0.20
0.23
0.41
0.41
0.46
0.46
0.43
0.57
0.54
0.49
0.51
0.43
0.43
0.41
0.30
0.18
0.15
0.04
0.07
0.01
0.01
0.01
0.00
0.00
0.00
0.00
0.00
0.00
0.01
0.01
0.01
0.01
0.14
0.01
0.07
0.14
0.18
0.14
0.16
0.30
0.54
0.41
0.30
0.15
0.00
0.04
0.10
0.00
0.01
0.07
0.02
0.10
0.04
0.40
0.61
0.59
0.75
0.66
0.62
0.59
0.35
0.01
0.06
0.04
0.07
0.14
0.14
0.04
0.15
0.07
0.26
0.15
0.14
0.26
0.26
0.23
0.23
0.30
0.35
0.26
0.30
0.23
0.32
0.20
0.30
0.14
0.07
0.14
0.11
0.04
0.00
0.04
0.01
0.01
0.00
0.00
0.00
0.01
0.02
0.01
0.02
0.00
0.01
0.00
0.02
0.00
0.04
0.02
0.04
0.15
0.15
0.40
0.30
0.35
0.20
0.18
0.00
0.01
0.01
0.01
0.10
0.01
0.10
0.07
0.06
0.30
0.60
0.55
0.67
0.75
0.66
0.61
0.58
0.06
0.00
0.00
0.02
0.07
0.00
0.02
0.26
0.16
0.20
0.23
0.20
0.32
0.35
0.30
0.32
0.55
0.41
0.43
0.46
0.43
0.35
0.48
0.46
0.20
0.35
0.07
0.02
0.32
0.04
0.14
0.02
0.16
0.14
0.11
0.04
0.14
0.07
0.04
0.04
0.07
0.00
0.26
0.02
0.14
0.11
0.11
0.30
0.20
0.14
0.41
0.32
0.60
0.40
0.35
0.26
0.02
0.14
0.01
0.00
0.07
0.01
0.00
0.06
0.23
0.61
0.61
0.64
0.81
0.67
0.62
0.60
0.20
0.02
0.07
0.00
0.14
0.30
0.14
0.30
0.16
0.35
0.30
0.30
0.51
0.35
0.32
0.49
0.57
0.46
0.51
0.58
0.57
0.54
0.51
0.49
0.41
0.41
0.26
0.15
0.18
0.14
0.14
0.01
0.02
0.01
0.11
0.15
0.02
0.11
0.00
0.00
0.07
0.00
0.01
0.04
0.02
0.16
0.01
0.07
0.15
0.26
0.23
0.32
0.26
0.48
0.23
0.15
0.14
0.02
0.02
0.01
0.02
0.07
0.07
0.00
0.02
0.32
0.58
0.26
0.78
0.78
0.64
0.59
0.50
0.01
0.00
0.01
0.14
0.16
0.11
0.18
0.23
0.26
0.20
0.30
0.41
0.35
0.48
0.49
0.54
0.57
0.60
0.59
0.58
0.58
0.58
0.57
0.51
0.41
0.41
0.20
0.16
0.15
0.14
0.01
0.07
0.11
0.02
0.07
0.02
0.00
0.02
0.01
0.07
0.01
0.01
0.01
0.11
0.14
0.14
0.14
0.18
0.26
0.26
0.41
0.40
0.54
0.30
0.43
0.18
0.04
0.07
0.02
0.00
0.01
0.00
0.01
0.01
0.32
0.61
0.61
0.65
0.82
0.66
0.64
0.58
0.00
0.02
0.02
0.15
0.15
0.26
0.14
0.23
0.23
0.35
0.35
0.41
0.46
0.46
0.54
0.54
0.61
0.61
0.61
0.62
0.63
0.62
0.62
0.60
0.59
0.46
0.40
0.26
0.32
0.14
0.15
0.15
0.14
0.11
0.14
0.11
0.01
0.07
0.02
0.07
0.14
0.04
0.14
0.14
0.23
0.14
0.18
0.20
0.18
0.32
0.40
0.46
0.48
0.55
0.32
0.40
0.20
0.07
0.01
0.07
0.00
0.00
0.02
0.00
0.02
0.35
0.54
0.51
0.76
0.87
0.66
0.63
0.50
0.01
0.00
0.14
0.11
0.16
0.23
0.20
0.30
0.32
0.30
0.41
0.41
0.46
0.57
0.57
0.59
0.61
0.61
0.61
0.62
0.62
0.62
0.62
0.58
0.55
0.46
0.41
0.23
0.20
0.16
0.11
0.14
0.11
0.14
0.07
0.01
0.00
0.02
0.07
0.01
0.02
0.01
0.11
0.07
0.11
0.15
0.11
0.16
0.04
0.41
0.15
0.30
0.41
0.55
0.35
0.40
0.16
0.00
0.00
0.00
0.01
0.00
0.02
0.02
0.06
0.14
0.57
0.62
0.66
0.82
0.69
0.62
0.60
0.07
0.01
0.00
0.02
0.07
0.04
0.11
0.20
0.16
0.16
0.23
0.23
0.26
0.41
0.35
0.40
0.43
0.48
0.51
0.49
0.46
0.49
0.41
0.30
0.23
0.23
0.16
0.11
0.14
0.11
0.01
0.01
0.04
0.01
0.00
0.01
0.01
0.00
0.01
0.02
0.07
0.01
0.02
0.04
0.02
0.14
0.11
0.14
0.16
0.20
0.20
0.35
0.41
0.49
0.26
0.26
0.16
0.00
0.02
0.06
0.00
0.02
0.11
0.10
0.02
0.15
0.59
0.62
0.66
0.85
0.66
0.64
0.61
0.07
0.07
0.02
0.01
0.00
0.01
0.07
0.14
0.14
0.07
0.11
0.23
0.14
0.23
0.18
0.20
0.23
0.26
0.30
0.30
0.26
0.32
0.23
0.16
0.14
0.07
0.14
0.07
0.07
0.01
0.01
0.00
0.01
0.00
0.00
0.01
0.02
0.00
0.02
0.00
0.01
0.01
0.01
0.00
0.01
0.02
0.01
0.04
0.07
0.14
0.11
0.26
0.35
0.35
0.16
0.18
0.11
0.07
0.02
0.07
0.02
0.02
0.18
0.11
0.07
0.30
0.61
0.16
0.75
0.85
0.66
0.62
0.59
0.06
0.07
0.01
0.00
0.11
0.00
0.07
0.11
0.11
0.15
0.14
0.18
0.20
0.23
0.20
0.41
0.30
0.32
0.40
0.35
0.35
0.41
0.20
0.20
0.16
0.14
0.07
0.04
0.04
0.01
0.07
0.02
0.02
0.02
0.00
0.01
0.02
0.00
0.00
0.00
0.01
0.02
0.02
0.02
0.11
0.07
0.07
0.15
0.14
0.26
0.11
0.32
0.32
0.46
0.26
0.14
0.11
0.02
0.01
0.06
0.01
0.02
0.11
0.02
0.06
0.26
0.62
0.62
0.72
0.87
0.67
0.64
0.59
0.06
0.02
0.01
0.02
0.01
0.04
0.14
0.07
0.16
0.15
0.16
0.30
0.20
0.26
0.32
0.32
0.32
0.43
0.41
0.41
0.41
0.35
0.32
0.20
0.20
0.11
0.14
0.02
0.02
0.00
0.00
0.01
0.01
0.01
0.00
0.02
0.01
0.02
0.02
0.01
0.01
0.01
0.01
0.00
0.01
0.02
0.01
0.01
0.04
0.14
0.14
0.16
0.26
0.35
0.35
0.07
0.14
0.00
0.06
0.01
0.10
0.02
0.10
0.02
0.07
0.02
0.41
0.58
0.59
0.82
0.85
0.66
0.61
0.53
0.02
0.02
0.00
0.01
0.00
0.02
0.04
0.04
0.14
0.15
0.16
0.15
0.23
0.14
0.30
0.23
0.20
0.32
0.30
0.32
0.26
0.18
0.26
0.16
0.07
0.01
0.02
0.00
0.01
0.01
0.01
0.01
0.01
0.01
0.02
0.01
0.06
0.02
0.01
0.02
0.01
0.00
0.01
0.00
0.02
0.02
0.01
0.01
0.07
0.11
0.15
0.20
0.26
0.48
0.23
0.18
0.04
0.01
0.07
0.10
0.10
0.16
0.10
0.10
0.16
0.02
0.48
0.59
0.64
0.87
0.74
0.62
0.59
0.25
0.18
0.11
0.06
0.02
0.01
0.00
0.01
0.00
0.11
0.07
0.02
0.14
0.16
0.16
0.23
0.20
0.26
0.23
0.20
0.40
0.26
0.18
0.14
0.04
0.00
0.02
0.00
0.02
0.02
0.02
0.07
0.00
0.11
0.02
0.10
0.07
0.16
0.07
0.02
0.07
0.06
0.07
0.00
0.01
0.01
0.01
0.01
0.00
0.02
0.11
0.04
0.11
0.20
0.30
0.07
0.00
0.00
0.18
0.10
0.11
0.25
0.16
0.33
0.25
0.35
0.23
0.55
0.06
0.81
0.85
0.68
0.63
0.58
0.18
0.16
0.07
0.06
0.01
0.02
0.01
0.00
0.04
0.14
0.07
0.11
0.20
0.18
0.35
0.26
0.35
0.46
0.41
0.48
0.48
0.40
0.40
0.32
0.18
0.15
0.15
0.07
0.00
0.00
0.02
0.02
0.01
0.02
0.02
0.00
0.01
0.07
0.06
0.00
0.01
0.01
0.01
0.00
0.00
0.00
0.00
0.00
0.00
0.01
0.07
0.04
0.23
0.15
0.35
0.14
0.16
0.04
0.01
0.11
0.10
0.07
0.16
0.25
0.16
0.25
0.04
0.49
0.54
0.72
0.87
0.68
0.64
0.59
0.10
0.07
0.02
0.02
0.00
0.00
0.02
0.00
0.04
0.01
0.16
0.15
0.23
0.20
0.40
0.30
0.46
0.46
0.54
0.57
0.51
0.55
0.49
0.43
0.41
0.20
0.18
0.18
0.04
0.02
0.00
0.00
0.04
0.02
0.00
0.01
0.02
0.01
0.01
0.01
0.01
0.02
0.02
0.00
0.01
0.02
0.01
0.01
0.00
0.01
0.00
0.11
0.11
0.16
0.07
0.32
0.26
0.20
0.00
0.00
0.01
0.07
0.07
0.18
0.25
0.18
0.11
0.04
0.41
0.49
0.69
0.87
0.68
0.63
0.59
0.20
0.11
0.01
0.01
0.01
0.00
0.01
0.00
0.07
0.01
0.18
0.14
0.20
0.26
0.26
0.26
0.35
0.40
0.40
0.49
0.43
0.41
0.43
0.35
0.30
0.15
0.04
0.04
0.02
0.00
0.02
0.02
0.02
0.02
0.07
0.02
0.07
0.06
0.06
0.07
0.01
0.01
0.01
0.01
0.01
0.06
0.02
0.02
0.01
0.02
0.02
0.00
0.07
0.01
0.07
0.23
0.11
0.16
0.00
0.02
0.16
0.18
0.11
0.30
0.25
0.33
0.26
0.18
0.15
0.51
0.62
0.81
0.75
0.61
0.61
0.42
0.26
0.16
0.25
0.07
0.07
0.00
0.01
0.01
0.02
0.07
0.02
0.00
0.11
0.11
0.15
0.20
0.23
0.32
0.35
0.32
0.26
0.40
0.16
0.20
0.18
0.01
0.00
0.02
0.01
0.07
0.01
0.01
0.07
0.02
0.02
0.02
0.06
0.02
0.01
0.06
0.01
0.02
0.00
0.00
0.00
0.02
0.02
0.06
0.02
0.02
0.00
0.00
0.07
0.07
0.30
0.04
0.02
0.00
0.02
0.16
0.16
0.25
0.20
0.26
0.30
0.33
0.01
0.26
0.58
0.64
0.81
0.71
0.62
0.62
0.30
0.10
0.16
0.02
0.00
0.01
0.01
0.07
0.01
0.04
0.11
0.16
0.14
0.20
0.18
0.18
0.20
0.40
0.40
0.35
0.32
0.35
0.20
0.40
0.15
0.11
0.11
0.00
0.00
0.02
0.01
0.01
0.02
0.01
0.01
0.02
0.02
0.02
0.02
0.00
0.01
0.02
0.01
0.00
0.01
0.04
0.04
0.01
0.01
0.00
0.00
0.04
0.15
0.07
0.20
0.20
0.32
0.16
0.04
0.01
0.07
0.07
0.10
0.16
0.16
0.20
0.18
0.33
0.15
0.55
0.57
0.69
0.85
0.68
0.64
0.60
0.30
0.26
0.16
0.07
0.07
0.07
0.00
0.00
0.00
0.01
0.01
0.02
0.02
0.07
0.14
0.15
0.14
0.18
0.23
0.20
0.20
0.30
0.15
0.14
0.07
0.00
0.02
0.01
0.02
0.01
0.10
0.06
0.10
0.10
0.06
0.10
0.07
0.11
0.11
0.10
0.10
0.07
0.02
0.06
0.02
0.01
0.02
0.02
0.01
0.10
0.02
0.02
0.02
0.01
0.11
0.04
0.23
0.15
0.01
0.01
0.06
0.18
0.30
0.25
0.16
0.35
0.33
0.35
0.06
0.43
0.61
0.66
0.84
0.70
0.62
0.61
0.35
0.38
0.25
0.26
0.20
0.16
0.20
0.02
0.07
0.02
0.06
0.00
0.01
0.02
0.00
0.02
0.01
0.00
0.01
0.01
0.04
0.07
0.01
0.00
0.00
0.06
0.06
0.25
0.10
0.07
0.25
0.06
0.25
0.11
0.06
0.16
0.26
0.18
0.33
0.16
0.01
0.16
0.10
0.07
0.07
0.06
0.02
0.02
0.06
0.02
0.10
0.07
0.00
0.07
0.04
0.02
0.16
0.14
0.01
0.04
0.11
0.16
0.10
0.30
0.38
0.30
0.33
0.33
0.33
0.11
0.54
0.18
0.78
0.79
0.67
0.64
0.56
0.25
0.20
0.25
0.18
0.11
0.02
0.07
0.01
0.20
0.00
0.02
0.02
0.01
0.04
0.07
0.07
0.04
0.15
0.14
0.14
0.15
0.26
0.04
0.16
0.01
0.01
0.02
0.02
0.01
0.01
0.06
0.16
0.11
0.02
0.11
0.25
0.16
0.02
0.10
0.18
0.07
0.07
0.11
0.01
0.16
0.02
0.02
0.07
0.11
0.02
0.10
0.07
0.00
0.01
0.11
0.01
0.23
0.07
0.01
0.02
0.07
0.16
0.25
0.26
0.18
0.35
0.18
0.18
0.06
0.20
0.66
0.62
0.75
0.66
0.63
0.59
0.25
0.00
0.30
0.00
0.01
0.02
0.16
0.01
0.32
0.15
0.30
0.40
0.32
0.51
0.54
0.55
0.46
0.62
0.63
0.63
0.62
0.63
0.62
0.62
0.61
0.59
0.46
0.41
0.30
0.20
0.51
0.40
0.20
0.20
0.07
0.20
0.20
0.01
0.30
0.26
0.32
0.23
0.30
0.41
0.23
0.35
0.40
0.23
0.35
0.30
0.48
0.18
0.16
0.51
0.41
0.41
0.57
0.48
0.51
0.59
0.48
0.26
0.14
0.11
0.32
0.02
0.15
0.01
0.00
0.02
0.59
0.54
0.85
0.75
0.90
0.64
0.64
0.47
0.18
0.01
0.32
0.00
0.11
0.02
0.40
0.40
0.16
0.35
0.32
0.41
0.26
0.20
0.60
0.46
0.41
0.23
0.43
0.41
0.18
0.23
0.26
0.16
0.00
0.07
0.20
0.01
0.26
0.02
0.01
0.23
0.00
0.23
0.11
0.16
0.30
0.11
0.11
0.23
0.40
0.32
0.18
0.23
0.58
0.16
0.32
0.23
0.00
0.35
0.23
0.43
0.11
0.20
0.23
0.23
0.26
0.54
0.62
0.54
0.32
0.26
0.16
0.46
0.01
0.23
0.18
0.07
0.11
0.01
0.18
0.57
0.77
0.16
0.79
0.87
0.65
0.58
0.02
0.00
0.01
0.01
0.04
0.14
0.06
0.01
0.35
0.07
0.11
0.00
0.41
0.00
0.35
0.01
0.16
0.07
0.07
0.11
0.10
0.33
0.40
0.16
0.56
0.02
0.02
0.18
0.01
0.07
0.04
0.00
0.00
0.06
0.00
0.02
0.14
0.15
0.18
0.04
0.02
0.02
0.51
0.01
0.04
0.11
0.00
0.11
0.07
0.02
0.01
0.01
0.01
0.01
0.11
0.01
0.02
0.16
0.00
0.46
0.14
0.01
0.07
0.25
0.07
0.18
0.01
0.20
0.30
0.20
0.16
0.11
0.18
0.69
0.62
0.68
0.62
0.62
0.59
0.40
0.38
0.20
0.33
0.38
0.07
0.16
0.18
0.26
0.25
0.35
0.11
0.33
0.30
0.33
0.35
0.30
0.38
0.38
0.53
0.41
0.56
0.48
0.46
0.48
0.55
0.33
0.33
0.20
0.11
0.16
0.18
0.18
0.20
0.30
0.41
0.16
0.10
0.10
0.10
0.18
0.18
0.26
0.02
0.20
0.16
0.25
0.10
0.35
0.38
0.16
0.16
0.07
0.30
0.26
0.11
0.02
0.01
0.07
0.10
0.11
0.42
0.20
0.33
0.16
0.48
0.35
0.41
0.53
0.46
0.02
0.07
0.50
0.71
0.62
0.61
0.64
0.59
0.40
0.20
0.35
0.38
0.11
0.33
0.33
0.30
0.11
0.26
0.50
0.01
0.20
0.46
0.25
0.38
0.40
0.00
0.46
0.48
0.16
0.46
0.20
0.18
0.30
0.53
0.02
0.47
0.38
0.07
0.30
0.33
0.10
0.41
0.25
0.20
0.30
0.16
0.07
0.06
0.26
0.26
0.30
0.20
0.41
0.20
0.33
0.30
0.10
0.41
0.35
0.20
0.18
0.02
0.10
0.18
0.00
0.00
0.01
0.06
0.00
0.20
0.26
0.30
0.18
0.30
0.33
0.07
0.38
0.18
0.15
0.55
0.62
0.69
0.66
0.63
0.59
0.42
0.01
0.11
0.02
0.02
0.02
0.00
0.01
0.00
0.04
0.30
0.49
0.20
0.35
0.26
0.55
0.55
0.62
0.62
0.62
0.66
0.63
0.61
0.57
0.65
0.54
0.49
0.23
0.32
0.26
0.23
0.01
0.14
0.30
0.01
0.11
0.00
0.14
0.18
0.11
0.01
0.01
0.51
0.07
0.18
0.02
0.01
0.02
0.01
0.40
0.07
0.01
0.20
0.02
0.02
0.41
0.20
0.04
0.41
0.48
0.16
0.32
0.15
0.00
0.02
0.04
0.02
0.01
0.07
0.10
0.01
0.18
0.54
0.68
0.63
0.82
0.71
0.62
0.60
0.25
0.06
0.00
0.06
0.00
0.10
0.16
0.02
0.07
0.07
0.04
0.02
0.14
0.00
0.18
0.00
0.16
0.26
0.15
0.04
0.01
0.00
0.07
0.16
0.02
0.06
0.30
0.10
0.00
0.02
0.07
0.02
0.02
0.01
0.20
0.00
0.01
0.06
0.10
0.01
0.04
0.11
0.01
0.18
0.02
0.14
0.07
0.18
0.04
0.11
0.02
0.00
0.02
0.00
0.01
0.00
0.01
0.16
0.01
0.41
0.02
0.18
0.01
0.01
0.30
0.02
0.11
0.16
0.02
0.10
0.11
0.14
0.20
0.74
0.67
0.76
0.63
0.62
0.59
0.35
0.11
0.02
0.20
0.16
0.18
0.25
0.00
0.02
0.10
0.30
0.15
0.00
0.06
0.16
0.07
0.04
0.02
0.25
0.20
0.00
0.33
0.38
0.01
0.38
0.07
0.06
0.01
0.01
0.04
0.01
0.02
0.07
0.16
0.06
0.18
0.02
0.02
0.02
0.01
0.11
0.01
0.07
0.06
0.07
0.00
0.04
0.01
0.00
0.10
0.02
0.11
0.00
0.02
0.02
0.04
0.14
0.01
0.02
0.02
0.11
0.02
0.56
0.07
0.33
0.20
0.40
0.42
0.33
0.00
0.30
0.46
0.70
0.66
0.64
0.62
0.56
0.33
0.38
0.06
0.30
0.30
0.01
0.18
0.06
0.18
0.18
0.07
0.07
0.35
0.00
0.02
0.02
0.18
0.01
0.01
0.20
0.41
0.00
0.10
0.01
0.07
0.16
0.10
0.11
0.02
0.02
0.30
0.02
0.16
0.25
0.07
0.02
0.41
0.00
0.30
0.06
0.00
0.10
0.06
0.16
0.18
0.07
0.20
0.00
0.16
0.00
0.26
0.02
0.02
0.07
0.00
0.20
0.01
0.49
0.07
0.18
0.01
0.00
0.07
0.16
0.01
0.42
0.11
0.30
0.25
0.00
0.18
0.60
0.62
0.67
0.64
0.62
0.59
0.10
0.06
0.10
0.02
0.11
0.07
0.07
0.16
0.15
0.26
0.32
0.30
0.54
0.26
0.51
0.59
0.64
0.64
0.63
0.68
0.67
0.65
0.66
0.66
0.58
0.61
0.55
0.41
0.40
0.07
0.18
0.00
0.11
0.40
0.02
0.35
0.04
0.07
0.07
0.15
0.15
0.35
0.15
0.14
0.16
0.20
0.02
0.35
0.18
0.11
0.15
0.23
0.11
0.11
0.04
0.49
0.11
0.46
0.35
0.55
0.23
0.14
0.15
0.01
0.00
0.07
0.01
0.01
0.01
0.01
0.10
0.48
0.40
0.51
0.74
0.87
0.62
0.60
0.42
0.00
0.07
0.07
0.14
0.01
0.02
0.07
0.16
0.14
0.20
0.11
0.16
0.40
0.43
0.26
0.23
0.41
0.41
0.20
0.30
0.26
0.15
0.23
0.07
0.01
0.00
0.14
0.00
0.01
0.02
0.02
0.35
0.07
0.07
0.00
0.11
0.02
0.01
0.16
0.15
0.07
0.01
0.11
0.11
0.01
0.11
0.00
0.00
0.02
0.01
0.00
0.02
0.16
0.00
0.11
0.07
0.00
0.18
0.16
0.41
0.00
0.01
0.07
0.07
0.06
0.26
0.01
0.02
0.16
0.07
0.23
0.07
0.74
0.62
0.79
0.63
0.63
0.56
0.20
0.16
0.11
0.01
0.01
0.11
0.02
0.06
0.02
0.11
0.00
0.10
0.00
0.02
0.01
0.00
0.01
0.02
0.00
0.02
0.20
0.16
0.07
0.30
0.10
0.25
0.01
0.07
0.01
0.01
0.01
0.02
0.14
0.00
0.01
0.14
0.02
0.02
0.01
0.01
0.02
0.07
0.04
0.04
0.02
0.01
0.00
0.00
0.00
0.07
0.18
0.00
0.07
0.00
0.11
0.20
0.23
0.20
0.01
0.02
0.11
0.02
0.30
0.16
0.18
0.25
0.11
0.41
0.40
0.06
0.57
0.59
0.69
0.62
0.63
0.62
0.56
0.25
0.16
0.25
0.33
0.26
0.18
0.07
0.02
0.07
0.18
0.20
0.18
0.07
0.46
0.00
0.16
0.01
0.25
0.26
0.10
0.07
0.25
0.25
0.11
0.41
0.06
0.10
0.02
0.07
0.10
0.01
0.18
0.20
0.02
0.30
0.25
0.02
0.26
0.02
0.18
0.00
0.10
0.16
0.35
0.01
0.16
0.06
0.11
0.02
0.11
0.26
0.11
0.16
0.11
0.02
0.02
0.07
0.16
0.00
0.04
0.02
0.26
0.00
0.10
0.20
0.16
0.20
0.11
0.40
0.15
0.59
0.51
0.65
0.71
0.64
0.62
0.59
0.01
0.10
0.01
0.01
0.07
0.01
0.00
0.07
0.26
0.16
0.15
0.26
0.20
0.46
0.32
0.57
0.58
0.58
0.57
0.60
0.65
0.60
0.55
0.61
0.57
0.46
0.32
0.14
0.18
0.00
0.18
0.00
0.32
0.01
0.01
0.07
0.20
0.01
0.15
0.02
0.15
0.04
0.30
0.11
0.02
0.15
0.04
0.01
0.04
0.02
0.02
0.23
0.00
0.04
0.02
0.16
0.16
0.18
0.46
0.04
0.48
0.00
0.02
0.01
0.02
0.02
0.07
0.02
0.02
0.18
0.11
0.23
0.58
0.59
0.79
0.71
0.62
0.60
0.25
0.07
0.02
0.14
0.14
0.04
0.14
0.07
0.20
0.14
0.14
0.35
0.32
0.26
0.15
0.58
0.41
0.16
0.41
0.35
0.26
0.02
0.14
0.15
0.02
0.18
0.00
0.00
0.11
0.01
0.01
0.15
0.04
0.01
0.00
0.06
0.00
0.00
0.01
0.01
0.04
0.07
0.01
0.01
0.00
0.02
0.26
0.07
0.18
0.02
0.02
0.15
0.00
0.07
0.07
0.16
0.07
0.07
0.30
0.00
0.00
0.00
0.02
0.18
0.06
0.25
0.11
0.18
0.26
0.30
0.02
0.40
0.16
0.66
0.68
0.62
0.61
0.59
0.26
0.33
0.06
0.18
0.07
0.01
0.07
0.01
0.02
0.07
0.18
0.01
0.01
0.26
0.01
0.01
0.01
0.01
0.02
0.10
0.06
0.01
0.16
0.10
0.10
0.02
0.02
0.11
0.18
0.00
0.11
0.18
0.16
0.11
0.02
0.16
0.26
0.01
0.10
0.10
0.16
0.07
0.16
0.02
0.02
0.02
0.02
0.01
0.20
0.01
0.01
0.16
0.00
0.02
0.02
0.11
0.01
0.20
0.07
0.01
0.16
0.18
0.07
0.30
0.06
0.25
0.30
0.26
0.30
0.04
0.48
0.30
0.75
0.70
0.65
0.60
0.55
0.07
0.10
0.02
0.02
0.01
0.00
0.07
0.07
0.04
0.15
0.14
0.11
0.41
0.23
0.40
0.46
0.51
0.58
0.60
0.58
0.57
0.46
0.51
0.30
0.60
0.16
0.26
0.01
0.15
0.01
0.00
0.01
0.02
0.04
0.00
0.01
0.01
0.02
0.07
0.00
0.01
0.02
0.11
0.18
0.01
0.00
0.00
0.01
0.01
0.01
0.06
0.00
0.10
0.01
0.07
0.00
0.02
0.18
0.55
0.61
0.66
0.69
0.48
0.42
0.65
0.74
0.88
0.94
0.94
0.94
0.93
0.79
0.06
0.48
0.50
0.56
0.42
0.56
0.59
0.59
0.60
0.59
0.60
0.59
0.61
0.62
0.65
0.64
0.62
0.63
0.64
0.62
0.62
0.63
0.63
0.64
0.62
0.60
0.56
0.59
0.50
0.40
0.20
0.06
0.10
0.20
0.02
0.25
0.02
0.06
0.10
0.06
0.10
0.18
0.07
0.02
0.06
0.10
0.00
0.16
0.07
0.02
0.16
0.20
0.07
0.20
0.10
0.01
0.16
0.10
0.11
0.30
0.01
0.01
0.06
0.06
0.20
0.11
0.00
0.01
0.07
0.11
0.26
0.18
0.41
0.06
0.38
0.35
0.35
0.14
0.49
0.35
0.64
0.79
0.66
0.64
0.59
0.30
0.33
0.10
0.01
0.01
0.06
0.23
0.11
0.04
0.11
0.11
0.16
0.23
0.32
0.18
0.58
0.41
0.49
0.58
0.59
0.59
0.61
0.62
0.48
0.58
0.43
0.40
0.26
0.18
0.00
0.02
0.00
0.07
0.11
0.00
0.00
0.00
0.01
0.02
0.15
0.01
0.04
0.01
0.04
0.01
0.02
0.11
0.02
0.00
0.11
0.01
0.16
0.02
0.02
0.02
0.16
0.23
0.60
0.87
0.94
0.97
0.99
0.99
0.97
0.96
0.95
0.97
0.98
0.93
0.66
0.11
0.11
0.59
0.59
0.60
0.59
0.61
0.62
0.63
0.65
0.62
0.62
0.66
0.70
0.70
0.82
0.87
0.87
0.87
0.87
0.79
0.78
0.66
0.63
0.64
0.62
0.59
0.59
0.56
0.41
0.33
0.25
0.25
0.07
0.18
0.16
0.07
0.16
0.07
0.11
0.01
0.11
0.01
0.10
0.10
0.06
0.00
0.01
0.20
0.56
0.59
0.59
0.56
0.65
0.93
0.99
1.00
1.00
0.99
0.99
0.96
0.97
0.99
0.96
0.90
0.71
0.01
0.53
0.59
0.61
0.62
0.63
0.62
0.62
0.65
0.66
0.70
0.79
0.85
0.89
0.90
0.90
0.90
0.90
0.90
0.90
0.90
0.90
0.87
0.75
0.64
0.63
0.61
0.59
0.58
0.47
0.41
0.47
0.35
0.42
0.18
0.40
0.02
0.35
0.33
0.25
0.26
0.35
0.07
0.26
0.30
0.01
0.26
0.18
0.10
0.02
0.16
0.10
0.11
0.07
0.25
0.06
0.07
0.06
0.02
0.07
0.06
0.18
0.01
0.25
0.11
0.00
0.07
0.02
0.02
0.10
0.02
0.30
0.26
0.07
0.02
0.06
0.10
0.06
0.18
0.01
0.01
0.00
0.15
0.15
0.30
0.02
0.01
0.02
0.07
0.26
0.25
0.20
0.02
0.26
0.10
0.16
0.18
0.48
0.48
0.75
0.78
0.66
0.62
0.59
0.07
0.06
0.07
0.02
0.00
0.07
0.07
0.01
0.30
0.18
0.15
0.23
0.40
0.40
0.40
0.41
0.49
0.40
0.59
0.46
0.62
0.61
0.60
0.58
0.54
0.41
0.26
0.35
0.32
0.07
0.07
0.01
0.00
0.15
0.01
0.06
0.02
0.01
0.10
0.00
0.10
0.14
0.00
0.01
0.02
0.01
0.00
0.11
0.04
0.15
0.02
0.00
0.38
0.41
0.07
0.16
0.54
0.93
0.97
0.97
0.99
0.97
0.94
0.94
0.94
0.96
0.97
0.87
0.63
0.30
0.26
0.59
0.59
0.59
0.59
0.62
0.62
0.64
0.63
0.62
0.64
0.66
0.72
0.76
0.82
0.87
0.87
0.87
0.87
0.79
0.75
0.67
0.62
0.63
0.61
0.60
0.59
0.53
0.20
0.33
0.26
0.07
0.11
0.01
0.20
0.02
0.10
0.02
0.07
0.02
0.18
0.00
0.02
0.16
0.11
0.01
0.01
0.00
0.00
0.18
0.40
0.50
0.47
0.32
0.89
0.97
0.99
1.00
1.00
0.99
0.98
0.97
0.97
0.98
0.94
0.87
0.62
0.20
0.48
0.59
0.59
0.61
0.63
0.64
0.62
0.61
0.66
0.68
0.70
0.84
0.87
0.89
0.90
0.90
0.90
0.90
0.90
0.90
0.87
0.78
0.67
0.64
0.61
0.59
0.58
0.26
0.06
0.20
0.02
0.10
0.02
0.06
0.06
0.02
0.02
0.07
0.20
0.02
0.02
0.07
0.02
0.11
0.07
0.11
0.04
0.06
0.06
0.01
0.02
0.01
0.01
0.02
0.02
0.01
0.02
0.10
0.07
0.07
0.11
0.11
0.06
0.02
0.01
0.06
0.16
0.02
0.02
0.00
0.02
0.02
0.10
0.07
0.06
0.01
0.00
0.04
0.01
0.16
0.18
0.07
0.04
0.02
0.07
0.02
0.02
0.06
0.16
0.41
0.02
0.16
0.16
0.62
0.47
0.74
0.77
0.67
0.64
0.59
0.01
0.02
0.01
0.00
0.01
0.16
0.14
0.11
0.14
0.46
0.26
0.20
0.30
0.43
0.40
0.43
0.48
0.54
0.58
0.66
0.62
0.67
0.62
0.62
0.61
0.58
0.43
0.26
0.16
0.01
0.02
0.43
0.04
0.01
0.01
0.04
0.01
0.02
0.07
0.00
0.04
0.06
0.16
0.06
0.11
0.01
0.02
0.07
0.15
0.07
0.01
0.14
0.32
0.02
0.01
0.26
0.14
0.77
0.94
0.99
1.00
1.00
0.99
0.99
0.97
0.97
0.98
0.97
0.88
0.61
0.10
0.59
0.60
0.59
0.61
0.63
0.64
0.63
0.62
0.64
0.66
0.73
0.78
0.87
0.87
0.90
0.90
0.90
0.90
0.90
0.90
0.88
0.78
0.66
0.62
0.62
0.59
0.56
0.46
0.18
0.18
0.10
0.18
0.07
0.00
0.10
0.10
0.06
0.02
0.11
0.07
0.18
0.07
0.02
0.16
0.10
0.06
0.02
0.11
0.10
0.02
0.16
0.01
0.35
0.53
0.59
0.40
0.63
0.93
0.99
1.00
1.00
1.00
0.99
0.99
0.98
0.99
0.98
0.94
0.82
0.11
0.56
0.60
0.61
0.61
0.63
0.63
0.63
0.61
0.64
0.67
0.70
0.78
0.84
0.89
0.90
0.90
0.90
0.90
0.90
0.90
0.90
0.87
0.75
0.66
0.64
0.63
0.59
0.59
0.25
0.35
0.16
0.18
0.06
0.10
0.01
0.10
0.26
0.00
0.02
0.07
0.16
0.06
0.10
0.00
0.10
0.02
0.01
0.02
0.02
0.04
0.07
0.02
0.02
0.07
0.06
0.01
0.07
0.07
0.10
0.02
0.06
0.10
0.06
0.01
0.02
0.01
0.11
0.06
0.01
0.02
0.02
0.15
0.15
0.00
0.01
0.26
0.01
0.10
0.01
0.11
0.11
0.25
0.38
0.20
0.35
0.23
0.14
0.02
0.75
0.85
0.70
0.64
0.59
0.33
0.25
0.25
0.02
0.16
0.02
0.01
0.20
0.02
0.00
0.11
0.15
0.01
0.49
0.14
0.20
0.26
0.41
0.51
0.26
0.62
0.57
0.55
0.30
0.58
0.20
0.16
0.00
0.01
0.02
0.06
0.06
0.10
0.06
0.10
0.07
0.06
0.20
0.02
0.07
0.18
0.07
0.20
0.01
0.10
0.00
0.11
0.01
0.02
0.02
0.02
0.00
0.00
0.15
0.41
0.16
0.43
0.07
0.07
0.01
0.02
0.25
0.11
0.30
0.16
0.18
0.25
0.11
0.16
0.59
0.58
0.78
0.90
0.71
0.64
0.59
0.02
0.07
0.02
0.01
0.00
0.01
0.02
0.07
0.16
0.18
0.26
0.20
0.32
0.40
0.49
0.48
0.58
0.61
0.67
0.59
0.61
0.59
0.49
0.26
0.49
0.01
0.16
0.01
0.02
0.04
0.10
0.01
0.01
0.06
0.11
0.07
0.20
0.20
0.07
0.10
0.07
0.06
0.16
0.20
0.01
0.10
0.00
0.02
0.11
0.02
0.01
0.00
0.02
0.02
0.02
0.01
0.11
0.14
0.18
0.01
0.02
0.07
0.25
0.11
0.20
0.02
0.57
0.18
0.60
0.61
0.06
0.57
0.62
0.55
0.59
0.59
0.59
0.42
0.26
0.41
0.01
0.35
0.26
0.30
0.35
0.30
0.33
0.40
0.35
0.48
0.53
0.40
0.55
0.59
0.59
0.59
0.59
0.59
0.58
0.40
0.46
0.38
0.16
0.11
0.02
0.10
0.02
0.26
0.02
0.18
0.25
0.16
0.02
0.06
0.02
0.06
0.02
0.07
0.07
0.25
0.01
0.16
0.02
0.02
0.02
0.01
0.07
0.10
0.07
0.02
0.00
0.01
0.00
0.15
0.20
0.07
0.02
0.10
0.10
0.35
0.16
0.30
0.20
0.35
0.11
0.02
0.30
0.54
0.63
0.82
0.77
0.66
0.62
0.40
0.07
0.25
0.02
0.11
0.14
0.02
0.01
0.00
0.02
0.02
0.04
0.07
0.02
0.35
0.11
0.30
0.18
0.48
0.40
0.41
0.26
0.48
0.23
0.16
0.11
0.14
0.00
0.01
0.18
0.10
0.30
0.02
0.02
0.01
0.02
0.11
0.06
0.25
0.16
0.33
0.11
0.01
0.26
0.00
0.01
0.01
0.00
0.01
0.02
0.00
0.01
0.01
0.01
0.11
0.23
0.11
0.41
0.15
0.15
0.02
0.00
0.01
0.10
0.10
0.20
0.11
0.06
0.20
0.02
0.35
0.60
0.62
0.84
0.67
0.62
0.59
0.35
0.07
0.01
0.01
0.07
0.07
0.01
0.01
0.16
0.15
0.26
0.26
0.30
0.32
0.32
0.32
0.23
0.60
0.46
0.26
0.58
0.40
0.48
0.40
0.20
0.04
0.14
0.02
0.04
0.01
0.01
0.16
0.00
0.01
0.02
0.02
0.01
0.02
0.10
0.02
0.01
0.06
0.01
0.02
0.01
0.01
0.15
0.11
0.00
0.01
0.00
0.15
0.01
0.04
0.15
0.11
0.20
0.16
0.46
0.07
0.01
0.01
0.30
0.40
0.58
0.60
0.48
0.59
0.40
0.46
0.88
0.94
0.94
0.48
0.59
0.46
0.60
0.25
0.42
0.42
0.41
0.56
0.40
0.50
0.50
0.55
0.58
0.59
0.59
0.60
0.59
0.63
0.62
0.64
0.64
0.61
0.63
0.61
0.60
0.59
0.58
0.25
0.26
0.16
0.06
0.02
0.02
0.01
0.01
0.20
0.02
0.01
0.11
0.07
0.00
0.00
0.00
0.01
0.00
0.02
0.06
0.00
0.11
0.02
0.01
0.02
0.02
0.04
0.01
0.02
0.01
0.01
0.35
0.06
0.32
0.30
0.35
0.32
0.02
0.15
0.01
0.02
0.01
0.06
0.10
0.06
0.10
0.10
0.59
0.49
0.04
0.82
0.87
0.67
0.64
0.59
0.26
0.00
0.07
0.14
0.04
0.14
0.02
0.11
0.18
0.16
0.35
0.18
0.32
0.41
0.32
0.62
0.46
0.57
0.60
0.59
0.61
0.60
0.57
0.54
0.49
0.40
0.23
0.04
0.01
0.02
0.16
0.02
0.18
0.02
0.06
0.00
0.00
0.07
0.06
0.07
0.01
0.07
0.00
0.10
0.15
0.02
0.18
0.11
0.00
0.02
0.02
0.00
0.01
0.20
0.00
0.00
0.00
0.32
0.40
0.23
0.20
0.11
0.00
0.00
0.06
0.07
0.06
0.30
0.16
0.16
0.07
0.41
0.58
0.40
0.82
0.82
0.66
0.61
0.55
0.02
0.06
0.02
0.01
0.00
0.02
0.48
0.00
0.15
0.07
0.16
0.16
0.18
0.40
0.26
0.32
0.23
0.59
0.48
0.59
0.54
0.40
0.51
0.32
0.30
0.16
0.02
0.02
0.02
0.02
0.01
0.01
0.07
0.15
0.07
0.01
0.00
0.02
0.02
0.02
0.00
0.01
0.01
0.06
0.04
0.01
0.00
0.23
0.02
0.02
0.01
0.01
0.01
0.01
0.07
0.16
0.01
0.15
0.07
0.00
0.15
0.41
0.62
0.88
0.96
0.97
0.99
0.99
0.97
0.94
0.95
0.97
0.97
0.88
0.58
0.02
0.41
0.59
0.60
0.60
0.62
0.61
0.62
0.64
0.62
0.62
0.64
0.67
0.73
0.78
0.87
0.88
0.89
0.90
0.89
0.87
0.82
0.72
0.66
0.62
0.64
0.62
0.59
0.56
0.42
0.33
0.20
0.06
0.30
0.00
0.11
0.16
0.02
0.02
0.18
0.16
0.01
0.07
0.16
0.02
0.07
0.16
0.11
0.01
0.01
0.11
0.07
0.02
0.06
0.10
0.01
0.10
0.07
0.00
0.10
0.02
0.00
0.00
0.02
0.04
0.23
0.07
0.20
0.00
0.07
0.07
0.07
0.20
0.18
0.26
0.11
0.16
0.11
0.46
0.66
0.65
0.87
0.78
0.66
0.61
0.26
0.02
0.06
0.00
0.01
0.02
0.00
0.15
0.16
0.07
0.30
0.15
0.46
0.30
0.41
0.40
0.51
0.57
0.57
0.58
0.58
0.61
0.61
0.58
0.59
0.46
0.46
0.18
0.20
0.04
0.02
0.10
0.06
0.02
0.02
0.00
0.02
0.02
0.07
0.07
0.02
0.00
0.01
0.01
0.00
0.02
0.00
0.00
0.00
0.11
0.02
0.07
0.02
0.25
0.26
0.07
0.48
0.59
0.88
0.96
0.96
0.99
0.99
0.96
0.96
0.96
0.97
0.98
0.93
0.67
0.32
0.20
0.59
0.59
0.60
0.60
0.61
0.64
0.63
0.63
0.62
0.62
0.67
0.72
0.79
0.85
0.87
0.89
0.89
0.87
0.87
0.75
0.69
0.65
0.63
0.64
0.59
0.59
0.56
0.33
0.26
0.16
0.07
0.02
0.10
0.16
0.25
0.01
0.02
0.01
0.06
0.02
0.01
0.07
0.02
0.16
0.00
0.00
0.01
0.06
0.02
0.01
0.01
0.01
0.10
0.02
0.06
0.01
0.02
0.01
0.01
0.07
0.02
0.01
0.02
0.02
0.06
0.06
0.10
0.00
0.06
0.23
0.02
0.07
0.15
0.18
0.16
0.04
0.01
0.07
0.06
0.11
0.06
0.07
0.10
0.02
0.25
0.18
0.61
0.68
0.67
0.84
0.70
0.62
0.59
0.18
0.11
0.01
0.01
0.01
0.01
0.07
0.00
0.11
0.18
0.20
0.11
0.23
0.26
0.30
0.40
0.26
0.41
0.49
0.48
0.60
0.58
0.54
0.57
0.57
0.43
0.32
0.20
0.16
0.02
0.18
0.00
0.00
0.01
0.00
0.01
0.07
0.07
0.02
0.02
0.02
0.01
0.00
0.01
0.00
0.02
0.00
0.07
0.00
0.07
0.02
0.01
0.20
0.32
0.61
0.62
0.69
0.64
0.88
0.95
0.95
0.94
0.96
0.96
0.97
0.95
0.88
0.11
0.06
0.53
0.55
0.59
0.60
0.60
0.59
0.61
0.61
0.64
0.64
0.62
0.64
0.65
0.66
0.71
0.73
0.76
0.75
0.71
0.67
0.64
0.62
0.63
0.62
0.58
0.56
0.47
0.33
0.35
0.01
0.10
0.16
0.02
0.10
0.02
0.01
0.02
0.02
0.01
0.07
0.04
0.02
0.01
0.01
0.01
0.02
0.00
0.01
0.06
0.01
0.16
0.07
0.07
0.01
0.02
0.01
0.02
0.07
0.00
0.06
0.11
0.01
0.01
0.01
0.06
0.01
0.01
0.02
0.06
0.02
0.01
0.02
0.07
0.00
0.02
0.23
0.23
0.23
0.00
0.01
0.00
0.07
0.18
0.11
0.06
0.18
0.16
0.16
0.15
0.58
0.68
0.64
0.82
0.74
0.65
0.61
0.11
0.25
0.02
0.02
0.00
0.00
0.04
0.00
0.02
0.30
0.14
0.11
0.14
0.11
0.16
0.32
0.20
0.11
0.49
0.43
0.41
0.51
0.55
0.51
0.48
0.46
0.23
0.11
0.30
0.02
0.01
0.01
0.00
0.07
0.00
0.10
0.10
0.02
0.16
0.10
0.02
0.02
0.11
0.02
0.16
0.25
0.06
0.18
0.11
0.06
0.01
0.02
0.07
0.11
0.06
0.06
0.01
0.01
0.00
0.01
0.02
0.00
0.07
0.01
0.06
0.16
0.30
0.01
0.18
0.16
0.25
0.25
0.30
0.20
0.61
0.23
0.69
0.82
0.69
0.64
0.60
0.16
0.10
0.07
0.06
0.02
0.06
0.02
0.01
0.06
0.04
0.07
0.07
0.04
0.04
0.14
0.15
0.26
0.18
0.32
0.35
0.35
0.23
0.30
0.23
0.14
0.30
0.00
0.06
0.01
0.02
0.01
0.07
0.16
0.02
0.02
0.06
0.11
0.06
0.02
0.20
0.04
0.10
0.02
0.06
0.02
0.01
0.00
0.02
0.00
0.01
0.06
0.00
0.06
0.07
0.00
0.02
0.02
0.00
0.06
0.04
0.16
0.04
0.23
0.14
0.02
0.01
0.25
0.02
0.07
0.10
0.18
0.26
0.26
0.07
0.18
0.49
0.69
0.65
0.86
0.71
0.64
0.62
0.38
0.02
0.02
0.10
0.01
0.01
0.06
0.02
0.14
0.01
0.00
0.11
0.11
0.15
0.18
0.14
0.26
0.23
0.35
0.43
0.35
0.41
0.30
0.11
0.49
0.07
0.14
0.07
0.01
0.02
0.01
0.02
0.10
0.07
0.11
0.10
0.02
0.25
0.16
0.16
0.26
0.00
0.02
0.16
0.06
0.02
0.01
0.02
0.07
0.02
0.06
0.02
0.10
0.11
0.00
0.02
0.01
0.01
0.01
0.00
0.18
0.11
0.01
0.02
0.11
0.18
0.20
0.20
0.26
0.38
0.38
0.16
0.16
0.18
0.57
0.46
0.81
0.81
0.67
0.61
0.56
0.07
0.11
0.07
0.00
0.01
0.01
0.00
0.02
0.02
0.01
0.14
0.18
0.16
0.18
0.16
0.32
0.26
0.20
0.41
0.41
0.46
0.32
0.40
0.23
0.16
0.00
0.14
0.01
0.02
0.00
0.01
0.20
0.01
0.02
0.07
0.02
0.02
0.02
0.16
0.06
0.02
0.07
0.01
0.06
0.06
0.01
0.02
0.01
0.02
0.06
0.00
0.01
0.02
0.02
0.07
0.02
0.11
0.01
0.16
0.04
0.32
0.04
0.11
0.00
0.02
0.11
0.07
0.10
0.20
0.11
0.16
0.30
0.02
0.41
0.61
0.64
0.81
0.75
0.64
0.61
0.38
0.16
0.16
0.07
0.02
0.01
0.06
0.02
0.02
0.14
0.04
0.01
0.14
0.01
0.20
0.20
0.16
0.20
0.35
0.30
0.40
0.41
0.41
0.26
0.16
0.32
0.01
0.01
0.00
0.01
0.02
0.01
0.06
0.01
0.06
0.18
0.11
0.02
0.02
0.02
0.06
0.02
0.01
0.02
0.00
0.01
0.01
0.11
0.00
0.01
0.01
0.02
0.23
0.06
0.01
0.01
0.07
0.00
0.14
0.04
0.32
0.11
0.16
0.01
0.18
0.00
0.25
0.01
0.20
0.07
0.25
0.18
0.16
0.51
0.64
0.66
0.81
0.66
0.63
0.59
0.30
0.06
0.07
0.02
0.01
0.02
0.00
0.07
0.00
0.11
0.07
0.16
0.15
0.18
0.23
0.23
0.41
0.40
0.35
0.32
0.48
0.41
0.32
0.30
0.43
0.20
0.11
0.07
0.02
0.01
0.00
0.00
0.02
0.01
0.02
0.02
0.11
0.00
0.02
0.01
0.01
0.02
0.02
0.02
0.01
0.04
0.01
0.00
0.04
0.04
0.01
0.02
0.00
0.00
0.00
0.02
0.11
0.02
0.00
0.23
0.49
0.23
0.20
0.15
0.06
0.02
0.06
0.16
0.07
0.16
0.11
0.20
0.16
0.57
0.62
0.71
0.84
0.66
0.63
0.59
0.16
0.01
0.07
0.01
0.00
0.00
0.00
0.02
0.01
0.11
0.14
0.14
0.16
0.15
0.26
0.18
0.11
0.58
0.20
0.48
0.35
0.32
0.43
0.20
0.15
0.07
0.11
0.04
0.01
0.10
0.00
0.01
0.02
0.07
0.02
0.01
0.01
0.07
0.07
0.01
0.02
0.07
0.16
0.04
0.02
0.01
0.01
0.00
0.02
0.00
0.01
0.01
0.00
0.01
0.00
0.11
0.02
0.11
0.33
0.02
0.16
0.58
0.93
0.97
0.99
0.99
0.99
0.97
0.93
0.94
0.97
0.96
0.66
0.15
0.11
0.58
0.61
0.61
0.59
0.63
0.64
0.64
0.63
0.62
0.64
0.66
0.72
0.79
0.87
0.89
0.90
0.90
0.90
0.90
0.89
0.82
0.76
0.64
0.63
0.62
0.59
0.58
0.56
0.46
0.06
0.10
0.11
0.18
0.11
0.10
0.20
0.07
0.16
0.02
0.07
0.06
0.02
0.16
0.20
0.01
0.06
0.02
0.07
0.06
0.02
0.10
0.02
0.02
0.02
0.02
0.10
0.10
0.00
0.16
0.01
0.00
0.02
0.02
0.07
0.20
0.14
0.14
0.01
0.01
0.11
0.02
0.18
0.07
0.07
0.20
0.01
0.02
0.41
0.48
0.20
0.78
0.85
0.67
0.61
0.53
0.02
0.00
0.02
0.07
0.16
0.15
0.16
0.11
0.16
0.26
0.35
0.32
0.41
0.41
0.43
0.32
0.54
0.51
0.58
0.60
0.55
0.62
0.54
0.54
0.46
0.35
0.18
0.32
0.11
0.00
0.04
0.00
0.01
0.07
0.02
0.00
0.02
0.00
0.01
0.02
0.01
0.00
0.00
0.02
0.07
0.07
0.01
0.20
0.07
0.00
0.04
0.00
0.18
0.35
0.11
0.23
0.61
0.89
0.96
0.97
0.99
0.97
0.95
0.94
0.96
0.97
0.96
0.87
0.57
0.02
0.48
0.59
0.61
0.59
0.60
0.61
0.62
0.64
0.64
0.62
0.65
0.68
0.77
0.74
0.85
0.87
0.87
0.87
0.86
0.82
0.73
0.66
0.63
0.64
0.61
0.60
0.59
0.46
0.38
0.42
0.01
0.20
0.06
0.06
0.07
0.07
0.10
0.10
0.07
0.06
0.10
0.02
0.10
0.01
0.00
0.06
0.06
0.02
0.11
0.02
0.00
0.07
0.00
0.00
0.01
0.00
0.01
0.06
0.02
0.01
0.01
0.02
0.01
0.01
0.06
0.10
0.14
0.11
0.14
0.11
0.32
0.16
0.14
0.00
0.10
0.02
0.07
0.16
0.07
0.11
0.11
0.11
0.15
0.54
0.62
0.64
0.79
0.68
0.62
0.60
0.16
0.02
0.02
0.01
0.01
0.02
0.01
0.30
0.14
0.04
0.35
0.30
0.30
0.32
0.32
0.57
0.41
0.51
0.58
0.59
0.58
0.58
0.60
0.61
0.55
0.51
0.40
0.26
0.07
0.26
0.01
0.00
0.02
0.01
0.02
0.02
0.18
0.00
0.01
0.00
0.00
0.01
0.00
0.00
0.01
0.01
0.00
0.01
0.01
0.02
0.01
0.00
0.02
0.00
0.01
0.06
0.41
0.20
0.16
0.23
0.11
0.02
0.00
0.06
0.10
0.26
0.10
0.11
0.18
0.20
0.30
0.26
0.59
0.48
0.79
0.75
0.65
0.62
0.56
0.06
0.07
0.10
0.00
0.06
0.20
0.01
0.04
0.07
0.04
0.11
0.15
0.18
0.26
0.35
0.20
0.43
0.35
0.54
0.49
0.51
0.49
0.46
0.43
0.40
0.18
0.04
0.02
0.00
0.04
0.01
0.01
0.07
0.11
0.02
0.01
0.02
0.01
0.07
0.14
0.06
0.02
0.00
0.01
0.01
0.00
0.07
0.01
0.00
0.07
0.07
0.07
0.00
0.01
0.01
0.00
0.00
0.18
0.14
0.18
0.41
0.20
0.07
0.20
0.02
0.06
0.00
0.02
0.02
0.10
0.16
0.10
0.04
0.49
0.63
0.65
0.82
0.77
0.63
0.59
0.16
0.01
0.00
0.01
0.15
0.11
0.14
0.15
0.20
0.20
0.15
0.26
0.41
0.35
0.41
0.46
0.51
0.48
0.57
0.51
0.51
0.61
0.51
0.54
0.43
0.41
0.15
0.01
0.30
0.07
0.04
0.01
0.00
0.00
0.00
0.01
0.01
0.00
0.02
0.02
0.02
0.01
0.00
0.07
0.01
0.00
0.02
0.01
0.00
0.00
0.01
0.00
0.04
0.01
0.01
0.00
0.01
0.01
0.20
0.04
0.32
0.16
0.00
0.18
0.07
0.06
0.07
0.18
0.07
0.16
0.20
0.16
0.00
0.57
0.58
0.65
0.85
0.70
0.62
0.59
0.20
0.18
0.02
0.02
0.06
0.02
0.16
0.04
0.01
0.00
0.14
0.04
0.14
0.18
0.16
0.20
0.35
0.35
0.40
0.51
0.51
0.48
0.41
0.51
0.46
0.20
0.16
0.11
0.01
0.00
0.00
0.00
0.06
0.02
0.11
0.10
0.06
0.01
0.02
0.06
0.02
0.02
0.07
0.07
0.01
0.04
0.01
0.00
0.01
0.02
0.02
0.11
0.02
0.01
0.01
0.00
0.02
0.01
0.14
0.04
0.40
0.16
0.16
0.02
0.10
0.11
0.02
0.06
0.16
0.07
0.25
0.18
0.01
0.49
0.63
0.62
0.84
0.71
0.62
0.59
0.25
0.02
0.02
0.01
0.02
0.15
0.02
0.01
0.14
0.02
0.14
0.15
0.23
0.30
0.40
0.16
0.57
0.48
0.43
0.54
0.49
0.48
0.46
0.40
0.32
0.35
0.14
0.01
0.02
0.00
0.02
0.00
0.01
0.01
0.04
0.10
0.01
0.10
0.02
0.06
0.01
0.01
0.14
0.02
0.04
0.01
0.01
0.07
0.00
0.01
0.00
0.00
0.02
0.01
0.00
0.01
0.02
0.04
0.02
0.41
0.11
0.14
0.02
0.16
0.06
0.20
0.11
0.25
0.18
0.30
0.20
0.07
0.30
0.40
0.63
0.85
0.74
0.64
0.61
0.18
0.16
0.11
0.16
0.07
0.01
0.06
0.07
0.02
0.01
0.02
0.02
0.00
0.14
0.02
0.20
0.20
0.26
0.26
0.35
0.26
0.40
0.35
0.23
0.20
0.23
0.07
0.00
0.00
0.06
0.00
0.18
0.02
0.02
0.10
0.06
0.11
0.07
0.10
0.10
0.11
0.07
0.16
0.02
0.01
0.02
0.00
0.02
0.01
0.06
0.02
0.02
0.02
0.02
0.07
0.01
0.04
0.01
0.07
0.01
0.16
0.02
0.04
0.06
0.11
0.16
0.18
0.35
0.40
0.26
0.26
0.41
0.02
0.41
0.58
0.64
0.82
0.70
0.62
0.59
0.26
0.11
0.11
0.01
0.01
0.04
0.00
0.02
0.04
0.07
0.07
0.11
0.18
0.18
0.26
0.30
0.46
0.41
0.51
0.54
0.51
0.48
0.58
0.46
0.20
0.32
0.18
0.07
0.00
0.00
0.01
0.00
0.06
0.00
0.02
0.02
0.06
0.02
0.07
0.02
0.01
0.01
0.02
0.00
0.02
0.00
0.01
0.01
0.01
0.00
0.18
0.15
0.01
0.00
0.02
0.06
0.00
0.04
0.02
0.07
0.01
0.26
0.07
0.14
0.00
0.25
0.02
0.25
0.11
0.06
0.16
0.25
0.30
0.00
0.43
0.61
0.62
0.85
0.75
0.64
0.62
0.40
0.18
0.16
0.16
0.01
0.07
0.02
0.00
0.02
0.01
0.01
0.01
0.14
0.00
0.07
0.07
0.18
0.11
0.18
0.20
0.26
0.26
0.15
0.40
0.14
0.07
0.02
0.00
0.01
0.02
0.07
0.10
0.25
0.02
0.18
0.20
0.18
0.20
0.18
0.35
0.20
0.11
0.10
0.18
0.16
0.11
0.10
0.07
0.07
0.07
0.10
0.16
0.07
0.06
0.10
0.10
0.18
0.11
0.16
0.14
0.48
0.65
0.73
0.75
0.01
0.20
0.65
0.72
0.86
0.93
0.93
0.93
0.93
0.78
0.01
0.58
0.56
0.60
0.53
0.58
0.59
0.59
0.60
0.60
0.60
0.61
0.62
0.64
0.64
0.62
0.62
0.63
0.64
0.64
0.63
0.62
0.63
0.64
0.62
0.59
0.59
0.56
0.41
0.25
0.25
0.02
0.14
0.57
0.68
0.71
0.20
0.64
0.64
0.63
0.56
0.69
0.96
0.97
0.94
0.89
0.18
0.00
0.53
0.07
0.01
0.10
0.11
0.25
0.26
0.33
0.33
0.38
0.38
0.35
0.48
0.48
0.53
0.53
0.41
0.18
0.26
0.02
0.04
0.04
0.04
0.04
0.15
0.01
0.14
0.02
0.10
0.11
0.02
0.01
0.32
0.86
0.93
0.97
0.99
0.98
0.86
0.02
0.18
0.55
0.47
0.47
0.56
0.56
0.58
0.58
0.59
0.59
0.59
0.59
0.59
0.62
0.63
0.64
0.62
0.62
0.63
0.64
0.66
0.64
0.62
0.64
0.61
0.61
0.56
0.48
0.41
0.20
0.25
0.11
0.10
0.11
0.25
0.01
0.07
0.06
0.16
0.07
0.30
0.00
0.07
0.06
0.10
0.11
0.16
0.25
0.00
0.07
0.11
0.10
0.02
0.10
0.07
0.10
0.20
0.01
0.02
0.01
0.00
0.00
0.20
0.00
0.14
0.01
0.11
0.06
0.11
0.11
0.18
0.30
0.33
0.40
0.02
0.23
0.55
0.16
0.75
0.87
0.70
0.63
0.60
0.16
0.16
0.02
0.01
0.00
0.00
0.02
0.00
0.49
0.11
0.18
0.18
0.16
0.32
0.32
0.48
0.49
0.58
0.58
0.61
0.62
0.62
0.63
0.62
0.61
0.54
0.55
0.32
0.16
0.07
0.02
0.00
0.02
0.01
0.01
0.01
0.02
0.02
0.02
0.01
0.01
0.01
0.01
0.01
0.01
0.01
0.04
0.04
0.02
0.00
0.00
0.02
0.07
0.00
0.00
0.00
0.00
0.14
0.02
0.26
0.16
0.32
0.16
0.18
0.07
0.02
0.06
0.02
0.11
0.01
0.02
0.02
0.10
0.14
0.60
0.67
0.62
0.85
0.69
0.62
0.60
0.02
0.00
0.01
0.07
0.11
0.15
0.14
0.26
0.26
0.32
0.43
0.23
0.35
0.48
0.54
0.58
0.58
0.62
0.59
0.62
0.61
0.61
0.57
0.62
0.58
0.49
0.40
0.32
0.14
0.16
0.15
0.04
0.02
0.02
0.02
0.01
0.01
0.01
0.04
0.00
0.02
0.01
0.04
0.07
0.01
0.00
0.11
0.14
0.01
0.02
0.07
0.01
0.01
0.00
0.01
0.02
0.01
0.07
0.00
0.16
0.20
0.20
0.04
0.01
0.07
0.07
0.16
0.20
0.16
0.16
0.10
0.25
0.26
0.23
0.57
0.04
0.82
0.87
0.68
0.63
0.58
0.07
0.16
0.11
0.01
0.02
0.00
0.00
0.02
0.02
0.07
0.18
0.14
0.18
0.16
0.20
0.20
0.41
0.41
0.49
0.43
0.55
0.49
0.49
0.41
0.23
0.20
0.14
0.00
0.07
0.02
0.01
0.00
0.01
0.02
0.02
0.10
0.01
0.06
0.06
0.10
0.01
0.00
0.01
0.00
0.04
0.01
0.00
0.02
0.00
0.00
0.01
0.01
0.01
0.02
0.02
0.01
0.07
0.00
0.15
0.18
0.18
0.11
0.00
0.02
0.02
0.06
0.02
0.10
0.11
0.20
0.25
0.10
0.23
0.60
0.20
0.76
0.79
0.66
0.62
0.59
0.01
0.02
0.01
0.00
0.01
0.04
0.07
0.11
0.16
0.15
0.23
0.26
0.35
0.41
0.48
0.51
0.49
0.58
0.59
0.61
0.59
0.62
0.59
0.60
0.49
0.46
0.26
0.18
0.11
0.11
0.04
0.01
0.01
0.00
0.00
0.01
0.01
0.02
0.01
0.04
0.00
0.02
0.01
0.02
0.01
0.07
0.02
0.02
0.02
0.01
0.00
0.04
0.00
0.00
0.00
0.02
0.07
0.11
0.16
0.14
0.32
0.20
0.07
0.01
0.02
0.06
0.10
0.02
0.10
0.11
0.10
0.10
0.07
0.46
0.64
0.63
0.84
0.71
0.62
0.60
0.16
0.02
0.00
0.01
0.04
0.02
0.01
0.11
0.14
0.20
0.20
0.20
0.20
0.18
0.26
0.32
0.41
0.43
0.46
0.35
0.43
0.48
0.35
0.48
0.23
0.15
0.16
0.16
0.01
0.01
0.01
0.02
0.02
0.02
0.07
0.06
0.16
0.02
0.02
0.07
0.06
0.07
0.01
0.02
0.01
0.10
0.00
0.00
0.01
0.00
0.10
0.00
0.07
0.01
0.01
0.01
0.01
0.07
0.26
0.55
0.64
0.66
0.61
0.41
0.02
0.65
0.77
0.88
0.94
0.92
0.94
0.88
0.65
0.47
0.59
0.58
0.59
0.59
0.60
0.59
0.59
0.59
0.62
0.62
0.63
0.64
0.63
0.62
0.63
0.64
0.66
0.66
0.65
0.63
0.62
0.63
0.64
0.62
0.59
0.59
0.56
0.41
0.30
0.26
0.16
0.11
0.10
0.16
0.10
0.18
0.10
0.10
0.02
0.06
0.02
0.06
0.18
0.01
0.11
0.07
0.11
0.10
0.07
0.02
0.02
0.10
0.06
0.10
0.07
0.02
0.07
0.20
0.02
0.02
0.01
0.00
0.00
0.11
0.00
0.15
0.07
0.02
0.02
0.16
0.16
0.10
0.25
0.25
0.18
0.35
0.18
0.23
0.41
0.51
0.69
0.87
0.71
0.62
0.60
0.07
0.07
0.02
0.01
0.00
0.04
0.04
0.14
0.14
0.16
0.26
0.30
0.40
0.41
0.48
0.58
0.57
0.55
0.67
0.63
0.64
0.62
0.62
0.62
0.61
0.48
0.46
0.20
0.15
0.01
0.01
0.00
0.01
0.00
0.02
0.00
0.00
0.01
0.02
0.01
0.02
0.00
0.01
0.01
0.01
0.00
0.00
0.14
0.16
0.01
0.00
0.00
0.02
0.41
0.41
0.63
0.61
0.41
0.35
0.88
0.90
0.93
0.94
0.96
0.96
0.96
0.93
0.62
0.50
0.56
0.59
0.55
0.59
0.60
0.59
0.59
0.59
0.62
0.62
0.64
0.63
0.62
0.62
0.65
0.66
0.68
0.66
0.67
0.66
0.62
0.62
0.64
0.61
0.59
0.59
0.56
0.38
0.38
0.33
0.20
0.18
0.16
0.16
0.16
0.18
0.16
0.16
0.16
0.16
0.25
0.18
0.20
0.11
0.25
0.18
0.25
0.20
0.30
0.26
0.25
0.25
0.25
0.18
0.20
0.35
0.25
0.25
0.30
0.18
0.26
0.30
0.26
0.33
0.30
0.18
0.18
0.02
0.06
0.00
0.01
0.01
0.02
0.06
0.18
0.25
0.35
0.26
0.35
0.33
0.35
0.38
0.26
0.11
0.54
0.07
0.78
0.85
0.67
0.64
0.61
0.20
0.06
0.07
0.01
0.02
0.00
0.07
0.11
0.07
0.15
0.18
0.20
0.30
0.32
0.43
0.46
0.54
0.58
0.62
0.62
0.63
0.64
0.64
0.63
0.62
0.61
0.48
0.40
0.20
0.04
0.04
0.00
0.00
0.02
0.00
0.02
0.00
0.02
0.02
0.02
0.00
0.01
0.00
0.01
0.02
0.02
0.01
0.00
0.01
0.00
0.02
0.01
0.04
0.01
0.01
0.11
0.14
0.16
0.11
0.41
0.18
0.11
0.07
0.06
0.02
0.06
0.06
0.10
0.16
0.07
0.26
0.16
0.43
0.57
0.62
0.87
0.81
0.66
0.59
0.30
0.11
0.16
0.02
0.01
0.01
0.00
0.04
0.00
0.11
0.00
0.07
0.23
0.11
0.20
0.18
0.30
0.26
0.41
0.30
0.32
0.30
0.26
0.30
0.20
0.14
0.02
0.01
0.02
0.02
0.02
0.02
0.07
0.10
0.07
0.10
0.25
0.16
0.11
0.16
0.16
0.07
0.06
0.07
0.02
0.10
0.06
0.07
0.07
0.16
0.02
0.06
0.11
0.02
0.10
0.06
0.02
0.00
0.02
0.16
0.01
0.02
0.06
0.30
0.16
0.30
0.26
0.30
0.35
0.35
0.41
0.07
0.30
0.26
0.75
0.87
0.69
0.63
0.60
0.26
0.38
0.11
0.06
0.10
0.02
0.02
0.00
0.01
0.00
0.01
0.01
0.11
0.15
0.16
0.23
0.30
0.32
0.46
0.48
0.51
0.48
0.51
0.46
0.32
0.32
0.18
0.01
0.02
0.01
0.02
0.06
0.01
0.02
0.06
0.02
0.07
0.02
0.06
0.07
0.02
0.02
0.01
0.06
0.01
0.02
0.00
0.01
0.00
0.01
0.00
0.02
0.00
0.01
0.02
0.01
0.11
0.07
0.14
0.04
0.40
0.14
0.15
0.00
0.02
0.01
0.16
0.02
0.20
0.11
0.20
0.11
0.16
0.30
0.57
0.63
0.85
0.78
0.66
0.59
0.30
0.01
0.02
0.00
0.00
0.04
0.04
0.18
0.14
0.18
0.18
0.32
0.40
0.41
0.46
0.58
0.58
0.61
0.63
0.62
0.63
0.63
0.62
0.62
0.60
0.48
0.43
0.26
0.23
0.15
0.11
0.04
0.00
0.00
0.00
0.01
0.01
0.01
0.01
0.00
0.01
0.00
0.00
0.01
0.02
0.02
0.01
0.02
0.02
0.02
0.02
0.00
0.00
0.00
0.01
0.01
0.04
0.04
0.01
0.15
0.20
0.20
0.11
0.02
0.01
0.10
0.11
0.07
0.25
0.25
0.18
0.30
0.30
0.18
0.48
0.18
0.82
0.86
0.66
0.62
0.58
0.11
0.16
0.02
0.02
0.02
0.00
0.01
0.02
0.02
0.04
0.00
0.14
0.11
0.11
0.23
0.16
0.23
0.23
0.32
0.35
0.43
0.46
0.23
0.16
0.18
0.14
0.01
0.01
0.02
0.02
0.18
0.11
0.07
0.18
0.07
0.10
0.16
0.18
0.16
0.11
0.07
0.07
0.10
0.02
0.02
0.01
0.07
0.01
0.02
0.07
0.02
0.10
0.07
0.07
0.02
0.01
0.01
0.02
0.00
0.55
0.55
0.69
0.68
0.66
0.26
0.04
0.68
0.77
0.88
0.94
0.90
0.94
0.88
0.68
0.47
0.56
0.56
0.56
0.56
0.59
0.59
0.59
0.60
0.59
0.59
0.61
0.62
0.64
0.63
0.62
0.62
0.64
0.63
0.62
0.62
0.62
0.64
0.62
0.59
0.59
0.53
0.42
0.25
0.10
0.02
0.02
0.02
0.00
0.01
0.01
0.01
0.01
0.00
0.01
0.01
0.00
0.00
0.00
0.01
0.00
0.02
0.01
0.00
0.01
0.00
0.01
0.00
0.00
0.00
0.00
0.01
0.01
0.01
0.01
0.01
0.01
0.00
0.04
0.07
0.20
0.14
0.23
0.16
0.02
0.00
0.02
0.02
0.07
0.10
0.16
0.07
0.16
0.16
0.18
0.41
0.54
0.72
0.89
0.70
0.62
0.59
0.06
0.01
0.01
0.02
0.11
0.15
0.20
0.18
0.26
0.40
0.30
0.41
0.48
0.49
0.48
0.51
0.58
0.61
0.59
0.60
0.61
0.62
0.60
0.59
0.55
0.51
0.41
0.20
0.16
0.04
0.04
0.04
0.00
0.01
0.00
0.01
0.02
0.01
0.02
0.02
0.00
0.00
0.02
0.00
0.00
0.01
0.00
0.00
0.01
0.01
0.01
0.00
0.00
0.00
0.02
0.00
0.01
0.04
0.04
0.11
0.16
0.15
0.00
0.01
0.06
0.16
0.16
0.10
0.25
0.11
0.25
0.11
0.16
0.15
0.49
0.42
0.79
0.78
0.66
0.62
0.58
0.18
0.02
0.10
0.06
0.02
0.02
0.00
0.10
0.00
0.01
0.01
0.07
0.01
0.11
0.02
0.15
0.15
0.30
0.26
0.30
0.35
0.32
0.32
0.30
0.23
0.11
0.15
0.00
0.00
0.01
0.01
0.02
0.07
0.10
0.11
0.06
0.10
0.16
0.02
0.10
0.07
0.06
0.07
0.01
0.02
0.06
0.02
0.01
0.06
0.10
0.01
0.01
0.02
0.06
0.02
0.06
0.00
0.01
0.07
0.30
0.57
0.65
0.71
0.75
0.00
0.20
0.64
0.72
0.88
0.93
0.94
0.94
0.93
0.82
0.11
0.56
0.48
0.56
0.56
0.56
0.58
0.59
0.59
0.60
0.59
0.59
0.62
0.61
0.64
0.63
0.62
0.62
0.64
0.64
0.63
0.62
0.63
0.64
0.62
0.59
0.59
0.56
0.35
0.25
0.02
0.02
0.01
0.01
0.01
0.01
0.06
0.02
0.00
0.01
0.00
0.01
0.01
0.02
0.00
0.02
0.00
0.01
0.01
0.01
0.01
0.01
0.01
0.01
0.00
0.00
0.01
0.01
0.02
0.01
0.01
0.00
0.01
0.01
0.02
0.07
0.04
0.00
0.14
0.20
0.15
0.04
0.00
0.01
0.06
0.18
0.10
0.07
0.07
0.16
0.16
0.02
0.43
0.59
0.63
0.87
0.81
0.66
0.59
0.26
0.07
0.02
0.00
0.01
0.01
0.02
0.11
0.15
0.14
0.18
0.15
0.20
0.18
0.30
0.26
0.40
0.41
0.32
0.41
0.48
0.55
0.49
0.54
0.51
0.40
0.30
0.18
0.02
0.01
0.00
0.01
0.02
0.02
0.06
0.07
0.02
0.07
0.02
0.02
0.07
0.06
0.01
0.01
0.00
0.01
0.01
0.02
0.01
0.00
0.01
0.01
0.01
0.06
0.02
0.02
0.00
0.00
0.01
0.01
0.07
0.07
0.00
0.01
0.07
0.20
0.18
0.20
0.33
0.20
0.20
0.35
0.35
0.07
0.43
0.02
0.75
0.79
0.66
0.64
0.59
0.26
0.10
0.02
0.02
0.01
0.00
0.00
0.02
0.02
0.01
0.11
0.14
0.15
0.26
0.23
0.32
0.35
0.46
0.46
0.54
0.51
0.48
0.49
0.46
0.40
0.15
0.16
0.14
0.07
0.00
0.00
0.02
0.01
0.02
0.02
0.01
0.02
0.07
0.01
0.02
0.01
0.02
0.01
0.00
0.01
0.02
0.00
0.01
0.00
0.00
0.01
0.00
0.00
0.01
0.00
0.00
0.02
0.11
0.02
0.20
0.49
0.61
0.89
0.94
0.96
0.99
0.98
0.97
0.96
0.96
0.97
0.97
0.88
0.26
0.01
0.47
0.59
0.59
0.60
0.59
0.61
0.62
0.62
0.64
0.63
0.62
0.65
0.67
0.74
0.78
0.85
0.87
0.87
0.87
0.85
0.77
0.68
0.64
0.63
0.63
0.59
0.56
0.42
0.33
0.18
0.02
0.07
0.02
0.01
0.06
0.06
0.01
0.01
0.02
0.02
0.02
0.01
0.02
0.02
0.07
0.06
0.01
0.01
0.02
0.02
0.02
0.01
0.02
0.06
0.02
0.06
0.02
0.06
0.06
0.02
0.06
0.07
0.10
0.06
0.06
0.01
0.01
0.00
0.00
0.14
0.07
0.02
0.02
0.10
0.20
0.33
0.18
0.26
0.18
0.26
0.30
0.10
0.23
0.51
0.60
0.82
0.79
0.67
0.62
0.48
0.10
0.10
0.10
0.00
0.06
0.01
0.01
0.00
0.04
0.11
0.04
0.07
0.11
0.23
0.18
0.20
0.35
0.40
0.46
0.51
0.58
0.57
0.61
0.51
0.48
0.41
0.23
0.14
0.01
0.04
0.01
0.06
0.02
0.10
0.10
0.06
0.06
0.06
0.02
0.06
0.02
0.06
0.02
0.06
0.02
0.00
0.01
0.00
0.01
0.02
0.00
0.10
0.16
0.25
0.23
0.48
0.87
0.94
0.97
0.99
0.99
0.96
0.96
0.96
0.97
0.98
0.90
0.64
0.01
0.38
0.59
0.60
0.59
0.61
0.62
0.63
0.64
0.63
0.62
0.64
0.66
0.70
0.76
0.82
0.85
0.87
0.87
0.85
0.79
0.71
0.65
0.62
0.63
0.59
0.59
0.53
0.42
0.33
0.25
0.10
0.18
0.10
0.11
0.10
0.16
0.10
0.11
0.11
0.11
0.10
0.10
0.06
0.06
0.11
0.02
0.07
0.06
0.06
0.06
0.07
0.01
0.07
0.02
0.06
0.06
0.10
0.02
0.10
0.01
0.02
0.02
0.02
0.01
0.02
0.07
0.01
0.02
0.01
0.07
0.02
0.11
0.16
0.20
0.15
0.07
0.01
0.11
0.07
0.10
0.11
0.02
0.16
0.11
0.07
0.15
0.32
0.62
0.68
0.87
0.70
0.64
0.61
0.16
0.02
0.02
0.01
0.07
0.04
0.07
0.20
0.20
0.20
0.32
0.30
0.30
0.41
0.40
0.40
0.49
0.54
0.46
0.57
0.58
0.59
0.60
0.58
0.57
0.54
0.41
0.30
0.15
0.11
0.07
0.01
0.01
0.02
0.02
0.02
0.07
0.06
0.06
0.02
0.11
0.02
0.02
0.01
0.02
0.02
0.01
0.01
0.02
0.02
0.02
0.02
0.02
0.06
0.02
0.02
0.00
0.02
0.14
0.00
0.20
0.00
0.00
0.01
0.10
0.25
0.25
0.18
0.26
0.25
0.33
0.33
0.00
0.23
0.41
0.62
0.81
0.69
0.62
0.60
0.35
0.25
0.07
0.11
0.02
0.01
0.02
0.00
0.01
0.01
0.04
0.04
0.14
0.14
0.16
0.20
0.35
0.35
0.41
0.51
0.55
0.54
0.51
0.46
0.41
0.32
0.18
0.15
0.04
0.00
0.01
0.02
0.02
0.06
0.06
0.07
0.07
0.10
0.07
0.16
0.07
0.11
0.06
0.06
0.02
0.07
0.02
0.01
0.01
0.02
0.02
0.06
0.07
0.01
0.01
0.02
0.02
0.02
0.02
0.14
0.23
0.23
0.11
0.01
0.00
0.06
0.02
0.02
0.07
0.06
0.07
0.16
0.10
0.32
0.58
0.00
0.79
0.85
0.66
0.61
0.48
0.00
0.01
0.01
0.04
0.14
0.11
0.18
0.16
0.20
0.26
0.32
0.32
0.41
0.46
0.54
0.55
0.58
0.62
0.63
0.63
0.62
0.63
0.61
0.60
0.58
0.48
0.26
0.26
0.16
0.14
0.04
0.01
0.00
0.02
0.00
0.01
0.00
0.01
0.01
0.01
0.01
0.01
0.00
0.07
0.00
0.00
0.07
0.01
0.01
0.11
0.04
0.02
0.00
0.01
0.07
0.11
0.11
0.01
0.16
0.26
0.26
0.15
0.04
0.01
0.02
0.10
0.02
0.07
0.11
0.10
0.10
0.20
0.35
0.46
0.16
0.79
0.81
0.65
0.61
0.47
0.16
0.02
0.02
0.02
0.00
0.00
0.01
0.01
0.02
0.02
0.11
0.07
0.11
0.16
0.18
0.18
0.26
0.23
0.35
0.32
0.35
0.30
0.35
0.26
0.18
0.15
0.02
0.00
0.00
0.01
0.02
0.01
0.02
0.06
0.07
0.02
0.06
0.10
0.11
0.10
0.02
0.06
0.06
0.01
0.01
0.01
0.01
0.01
0.01
0.01
0.01
0.02
0.01
0.02
0.01
0.00
0.02
0.07
0.20
0.26
0.11
0.25
0.51
0.93
0.97
0.99
0.99
0.99
0.97
0.94
0.96
0.97
0.96
0.68
0.23
0.06
0.58
0.60
0.60
0.60
0.62
0.62
0.64
0.64
0.62
0.62
0.65
0.68
0.75
0.82
0.87
0.90
0.90
0.90
0.90
0.89
0.85
0.75
0.66
0.62
0.64
0.59
0.59
0.50
0.40
0.20
0.16
0.07
0.11
0.07
0.10
0.11
0.07
0.07
0.11
0.07
0.10
0.06
0.11
0.16
0.02
0.06
0.07
0.06
0.02
0.07
0.06
0.02
0.06
0.06
0.07
0.06
0.02
0.06
0.02
0.02
0.02
0.06
0.00
0.01
0.02
0.07
0.04
0.16
0.00
0.00
0.06
0.10
0.20
0.06
0.10
0.11
0.16
0.16
0.01
0.46
0.57
0.61
0.85
0.87
0.68
0.60
0.38
0.02
0.02
0.02
0.01
0.07
0.11
0.16
0.15
0.23
0.26
0.30
0.35
0.41
0.41
0.49
0.54
0.58
0.58
0.59
0.61
0.62
0.61
0.61
0.58
0.55
0.48
0.41
0.18
0.16
0.14
0.01
0.02
0.01
0.01
0.01
0.01
0.01
0.01
0.02
0.02
0.02
0.00
0.01
0.01
0.00
0.01
0.00
0.01
0.01
0.01
0.02
0.00
0.01
0.00
0.00
0.01
0.02
0.01
0.15
0.01
0.15
0.02
0.02
0.00
0.07
0.11
0.11
0.11
0.11
0.11
0.18
0.18
0.04
0.40
0.60
0.64
0.82
0.67
0.62
0.59
0.20
0.07
0.10
0.06
0.00
0.01
0.01
0.00
0.01
0.01
0.04
0.02
0.15
0.07
0.14
0.20
0.30
0.40
0.35
0.48
0.46
0.40
0.43
0.35
0.30
0.16
0.11
0.04
0.01
0.01
0.01
0.02
0.07
0.10
0.11
0.11
0.20
0.18
0.18
0.18
0.18
0.26
0.18
0.16
0.11
0.10
0.11
0.11
0.07
0.02
0.11
0.07
0.10
0.18
0.16
0.10
0.06
0.02
0.01
0.01
0.04
0.04
0.11
0.02
0.00
0.02
0.10
0.18
0.11
0.10
0.10
0.16
0.16
0.20
0.30
0.55
0.04
0.79
0.85
0.66
0.61
0.53
0.01
0.01
0.01
0.04
0.02
0.14
0.14
0.16
0.16
0.20
0.30
0.35
0.40
0.41
0.48
0.51
0.58
0.59
0.61
0.60
0.62
0.60
0.60
0.54
0.54
0.35
0.23
0.20
0.15
0.11
0.02
0.04
0.01
0.02
0.00
0.01
0.02
0.01
0.00
0.00
0.02
0.01
0.00
0.02
0.07
0.02
0.04
0.01
0.07
0.02
0.02
0.01
0.00
0.02
0.00
0.04
0.01
0.01
0.02
0.02
0.01
0.14
0.02
0.15
0.04
0.02
0.01
0.11
0.18
0.11
0.16
0.16
0.18
0.18
0.25
0.15
0.49
0.02
0.81
0.86
0.66
0.62
0.56
0.10
0.07
0.02
0.02
0.01
0.01
0.00
0.07
0.02
0.07
0.07
0.11
0.20
0.16
0.23
0.40
0.35
0.32
0.40
0.41
0.32
0.46
0.35
0.40
0.23
0.14
0.15
0.11
0.00
0.00
0.02
0.06
0.02
0.10
0.02
0.10
0.10
0.16
0.10
0.10
0.10
0.06
0.11
0.01
0.01
0.02
0.01
0.02
0.01
0.00
0.01
0.01
0.01
0.02
0.02
0.02
0.02
0.06
0.02
0.00
0.00
0.00
0.01
0.14
0.04
0.01
0.02
0.02
0.11
0.18
0.10
0.16
0.18
0.20
0.20
0.25
0.20
0.48
0.11
0.79
0.79
0.66
0.62
0.56
0.10
0.11
0.10
0.01
0.01
0.01
0.00
0.01
0.07
0.14
0.15
0.20
0.23
0.23
0.32
0.48
0.46
0.57
0.55
0.57
0.57
0.59
0.57
0.54
0.43
0.40
0.23
0.18
0.11
0.07
0.02
0.01
0.00
0.00
0.00
0.01
0.02
0.02
0.01
0.00
0.01
0.00
0.01
0.07
0.01
0.01
0.04
0.02
0.01
0.00
0.00
0.01
0.00
0.00
0.00
0.01
0.01
0.10
0.18
0.41
0.61
0.67
0.73
0.07
0.02
0.76
0.87
0.90
0.96
0.96
0.97
0.94
0.88
0.06
0.42
0.56
0.47
0.50
0.53
0.58
0.58
0.59
0.59
0.60
0.59
0.62
0.62
0.64
0.64
0.63
0.62
0.62
0.62
0.62
0.63
0.63
0.61
0.60
0.59
0.53
0.40
0.25
0.10
0.07
0.01
0.07
0.02
0.06
0.01
0.06
0.10
0.07
0.06
0.07
0.02
0.02
0.06
0.10
0.07
0.10
0.02
0.06
0.06
0.16
0.11
0.07
0.06
0.18
0.11
0.16
0.25
0.16
0.18
0.18
0.11
0.16
0.20
0.20
0.16
0.18
0.18
0.20
0.18
0.16
0.20
0.16
0.25
0.18
0.20
0.16
0.16
0.06
0.06
0.02
0.02
0.02
0.06
0.10
0.18
0.41
0.40
0.35
0.40
0.30
0.33
0.35
0.30
0.15
0.54
0.55
0.77
0.76
0.66
0.64
0.59
0.18
0.26
0.11
0.11
0.06
0.01
0.01
0.00
0.00
0.00
0.07
0.07
0.16
0.16
0.20
0.18
0.30
0.32
0.43
0.49
0.54
0.51
0.54
0.51
0.55
0.46
0.32
0.16
0.07
0.01
0.01
0.00
0.02
0.02
0.06
0.07
0.06
0.02
0.06
0.07
0.02
0.02
0.02
0.02
0.01
0.01
0.01
0.00
0.02
0.14
0.43
0.55
0.59
0.59
0.06
0.63
0.88
0.90
0.93
0.96
0.96
0.97
0.96
0.90
0.01
0.11
0.26
0.41
0.40
0.53
0.58
0.60
0.59
0.60
0.59
0.62
0.62
0.63
0.65
0.63
0.62
0.62
0.63
0.63
0.62
0.62
0.64
0.61
0.59
0.59
0.48
0.35
0.07
0.07
0.01
0.02
0.01
0.02
0.01
0.02
0.02
0.01
0.01
0.02
0.02
0.02
0.06
0.02
0.07
0.02
0.02
0.01
0.10
0.07
0.07
0.06
0.10
0.06
0.10
0.10
0.07
0.16
0.07
0.11
0.10
0.07
0.16
0.18
0.18
0.10
0.18
0.18
0.07
0.18
0.11
0.16
0.18
0.18
0.11
0.11
0.18
0.11
0.20
0.11
0.18
0.25
0.20
0.16
0.18
0.10
0.06
0.01
0.07
0.00
0.01
0.02
0.10
0.16
0.30
0.40
0.30
0.35
0.33
0.30
0.40
0.11
0.23
0.49
0.61
0.78
0.78
0.66
0.63
0.56
0.20
0.20
0.11
0.07
0.06
0.01
0.01
0.02
0.01
0.01
0.02
0.01
0.07
0.07
0.11
0.15
0.23
0.35
0.35
0.49
0.54
0.58
0.57
0.59
0.55
0.55
0.43
0.20
0.11
0.04
0.01
0.02
0.02
0.07
0.07
0.02
0.06
0.06
0.02
0.11
0.07
0.06
0.06
0.02
0.02
0.02
0.01
0.02
0.01
0.02
0.06
0.02
0.06
0.01
0.01
0.01
0.02
0.06
0.01
0.01
0.00
0.02
0.11
0.04
0.15
0.01
0.00
0.07
0.11
0.10
0.06
0.18
0.10
0.18
0.18
0.18
0.32
0.58
0.41
0.79
0.79
0.66
0.62
0.53
0.11
0.06
0.00
0.01
0.00
0.01
0.14
0.07
0.16
0.16
0.23
0.23
0.30
0.40
0.46
0.49
0.55
0.58
0.61
0.62
0.58
0.59
0.58
0.51
0.46
0.40
0.20
0.04
0.00
0.02
0.01
0.01
0.01
0.01
0.00
0.01
0.02
0.02
0.01
0.02
0.02
0.01
0.02
0.02
0.01
0.02
0.00
0.01
0.02
0.00
0.01
0.02
0.02
0.01
0.10
0.02
0.06
0.06
0.00
0.00
0.01
0.01
0.01
0.14
0.00
0.01
0.10
0.20
0.25
0.16
0.11
0.20
0.20
0.30
0.26
0.14
0.51
0.58
0.72
0.86
0.67
0.64
0.61
0.20
0.18
0.02
0.02
0.07
0.06
0.00
0.00
0.01
0.01
0.01
0.01
0.02
0.11
0.07
0.16
0.15
0.20
0.32
0.40
0.35
0.41
0.35
0.26
0.26
0.15
0.11
0.00
0.02
0.02
0.02
0.11
0.18
0.16
0.16
0.18
0.18
0.25
0.18
0.16
0.16
0.20
0.11
0.16
0.10
0.10
0.10
0.06
0.07
0.16
0.02
0.02
0.07
0.06
0.02
0.07
0.02
0.02
0.00
0.02
0.07
0.00
0.15
0.01
0.01
0.02
0.11
0.11
0.26
0.20
0.18
0.26
0.26
0.26
0.02
0.26
0.61
0.65
0.81
0.70
0.62
0.59
0.20
0.07
0.07
0.02
0.01
0.01
0.00
0.01
0.11
0.07
0.15
0.16
0.20
0.30
0.35
0.40
0.41
0.51
0.58
0.57
0.58
0.59
0.59
0.58
0.57
0.43
0.26
0.18
0.20
0.07
0.02
0.00
0.01
0.02
0.02
0.00
0.00
0.01
0.02
0.01
0.00
0.00
0.02
0.01
0.00
0.02
0.01
0.01
0.02
0.04
0.01
0.01
0.01
0.01
0.00
0.01
0.01
0.00
0.14
0.00
0.07
0.11
0.30
0.15
0.04
0.01
0.10
0.06
0.16
0.07
0.11
0.16
0.11
0.18
0.11
0.46
0.69
0.66
0.85
0.66
0.63
0.59
0.07
0.01
0.06
0.01
0.01
0.00
0.02
0.04
0.02
0.04
0.07
0.11
0.16
0.11
0.20
0.14
0.15
0.20
0.18
0.30
0.20
0.26
0.18
0.16
0.14
0.14
0.07
0.00
0.01
0.01
0.06
0.02
0.18
0.06
0.06
0.16
0.16
0.16
0.07
0.10
0.10
0.02
0.07
0.10
0.06
0.02
0.02
0.02
0.02
0.02
0.02
0.02
0.06
0.06
0.10
0.01
0.01
0.01
0.00
0.00
0.16
0.01
0.01
0.02
0.18
0.16
0.26
0.25
0.26
0.33
0.33
0.35
0.00
0.32
0.51
0.66
0.81
0.67
0.64
0.60
0.20
0.26
0.18
0.06
0.07
0.02
0.01
0.02
0.01
0.01
0.02
0.02
0.01
0.16
0.23
0.23
0.23
0.30
0.35
0.43
0.48
0.40
0.41
0.26
0.26
0.20
0.15
0.04
0.00
0.01
0.00
0.02
0.02
0.01
0.11
0.02
0.06
0.02
0.07
0.07
0.02
0.06
0.02
0.02
0.02
0.00
0.00
0.01
0.01
0.02
0.01
0.01
0.01
0.01
0.02
0.01
0.01
0.02
0.02
0.01
0.07
0.26
0.15
0.02
0.01
0.06
0.10
0.11
0.11
0.11
0.10
0.16
0.25
0.10
0.30
0.60
0.59
0.79
0.75
0.66
0.59
0.33
0.07
0.07
0.01
0.01
0.01
0.00
0.02
0.04
0.11
0.07
0.14
0.16
0.16
0.23
0.23
0.32
0.32
0.41
0.41
0.41
0.41
0.41
0.30
0.18
0.16
0.18
0.07
0.01
0.07
0.01
0.01
0.01
0.00
0.02
0.02
0.01
0.07
0.02
0.06
0.02
0.02
0.06
0.02
0.06
0.07
0.02
0.02
0.01
0.01
0.02
0.02
0.07
0.02
0.11
0.07
0.07
0.16
0.07
0.01
0.01
0.02
0.01
0.00
0.00
0.02
0.06
0.16
0.26
0.25
0.20
0.35
0.20
0.26
0.35
0.41
0.15
0.55
0.01
0.77
0.78
0.66
0.62
0.59
0.26
0.30
0.26
0.07
0.07
0.06
0.07
0.02
0.02
0.01
0.00
0.00
0.00
0.04
0.07
0.15
0.15
0.18
0.20
0.32
0.18
0.30
0.23
0.26
0.18
0.14
0.04
0.00
0.00
0.01
0.01
0.06
0.02
0.10
0.07
0.02
0.07
0.02
0.11
0.02
0.06
0.07
0.02
0.00
0.02
0.00
0.00
0.02
0.00
0.00
0.01
0.01
0.01
0.01
0.01
0.10
0.10
0.11
0.43
0.62
0.67
0.73
0.20
0.01
0.72
0.78
0.88
0.95
0.94
0.96
0.93
0.82
0.42
0.53
0.56
0.56
0.55
0.56
0.58
0.59
0.59
0.61
0.59
0.59
0.62
0.63
0.64
0.63
0.63
0.62
0.62
0.62
0.63
0.64
0.63
0.59
0.60
0.58
0.56
0.33
0.18
0.07
0.02
0.01
0.01
0.02
0.01
0.01
0.01
0.01
0.01
0.01
0.00
0.00
0.00
0.01
0.00
0.00
0.01
0.01
0.06
0.02
0.02
0.02
0.02
0.02
0.07
0.02
0.06
0.01
0.10
0.06
0.11
0.07
0.10
0.02
0.10
0.16
0.07
0.07
0.07
0.10
0.10
0.07
0.00
0.01
0.14
0.01
0.18
0.04
0.01
0.00
0.18
0.18
0.11
0.07
0.10
0.18
0.20
0.20
0.16
0.57
0.64
0.67
0.79
0.66
0.63
0.59
0.16
0.10
0.10
0.01
0.01
0.01
0.00
0.01
0.01
0.07
0.14
0.11
0.07
0.16
0.16
0.16
0.20
0.23
0.30
0.41
0.46
0.41
0.48
0.48
0.41
0.41
0.30
0.18
0.07
0.01
0.00
0.01
0.01
0.02
0.02
0.02
0.02
0.02
0.02
0.02
0.02
0.02
0.02
0.01
0.01
0.02
0.00
0.01
0.00
0.01
0.00
0.02
0.06
0.23
0.30
0.49
0.60
0.74
0.90
0.94
0.95
0.94
0.96
0.96
0.97
0.97
0.94
0.48
0.00
0.48
0.56
0.56
0.59
0.61
0.59
0.60
0.61
0.62
0.64
0.63
0.62
0.63
0.65
0.67
0.70
0.73
0.75
0.71
0.67
0.65
0.62
0.64
0.62
0.59
0.55
0.40
0.20
0.07
0.06
0.02
0.02
0.02
0.02
0.01
0.01
0.01
0.01
0.02
0.01
0.02
0.01
0.01
0.02
0.01
0.01
0.00
0.02
0.02
0.00
0.02
0.01
0.01
0.00
0.00
0.00
0.00
0.00
0.01
0.01
0.00
0.00
0.01
0.01
0.01
0.01
0.01
0.01
0.00
0.01
0.02
0.01
0.01
0.02
0.01
0.07
0.04
0.07
0.11
0.23
0.14
0.02
0.02
0.01
0.06
0.10
0.02
0.10
0.02
0.07
0.07
0.07
0.41
0.67
0.59
0.75
0.76
0.66
0.61
0.38
0.01
0.02
0.01
0.04
0.02
0.07
0.11
0.16
0.18
0.20
0.20
0.23
0.35
0.30
0.26
0.32
0.43
0.43
0.48
0.51
0.57
0.57
0.55
0.55
0.48
0.46
0.32
0.20
0.16
0.02
0.04
0.00
0.01
0.01
0.00
0.01
0.02
0.01
0.02
0.01
0.02
0.02
0.01
0.01
0.01
0.00
0.01
0.01
0.01
0.02
0.02
0.01
0.02
0.02
0.06
0.07
0.01
0.00
0.02
0.02
0.00
0.14
0.02
0.02
0.02
0.18
0.16
0.26
0.20
0.26
0.30
0.26
0.35
0.06
0.20
0.58
0.62
0.78
0.69
0.62
0.60
0.38
0.16
0.07
0.07
0.02
0.01
0.00
0.01
0.02
0.01
0.01
0.02
0.11
0.02
0.11
0.18
0.16
0.23
0.32
0.35
0.43
0.32
0.35
0.30
0.30
0.16
0.11
0.11
0.01
0.00
0.01
0.01
0.02
0.02
0.02
0.02
0.06
0.02
0.02
0.02
0.02
0.02
0.02
0.07
0.01
0.02
0.02
0.01
0.01
0.06
0.01
0.01
0.01
0.02
0.02
0.02
0.02
0.02
0.02
0.00
0.00
0.00
0.02
0.16
0.07
0.01
0.00
0.10
0.18
0.18
0.10
0.25
0.16
0.18
0.20
0.16
0.30
0.61
0.33
0.78
0.82
0.66
0.62
0.50
0.06
0.06
0.01
0.01
0.00
0.02
0.07
0.07
0.11
0.18
0.15
0.23
0.23
0.26
0.46
0.40
0.48
0.48
0.51
0.51
0.51
0.51
0.48
0.41
0.40
0.26
0.14
0.14
0.07
0.01
0.00
0.00
0.01
0.00
0.01
0.02
0.00
0.01
0.00
0.01
0.01
0.02
0.01
0.01
0.00
0.00
0.01
0.00
0.00
0.00
0.00
0.00
0.01
0.01
0.01
0.01
0.02
0.02
0.02
0.00
0.04
0.02
0.20
0.11
0.01
0.00
0.02
0.16
0.25
0.11
0.20
0.20
0.18
0.26
0.18
0.23
0.58
0.59
0.79
0.79
0.66
0.61
0.47
0.10
0.11
0.06
0.07
0.01
0.01
0.02
0.00
0.02
0.01
0.01
0.14
0.11
0.15
0.14
0.20
0.23
0.26
0.30
0.30
0.40
0.32
0.26
0.23
0.18
0.14
0.11
0.00
0.00
0.01
0.02
0.01
0.02
0.02
0.02
0.02
0.07
0.10
0.11
0.11
0.06
0.02
0.02
0.06
0.06
0.02
0.02
0.02
0.01
0.02
0.02
0.02
0.01
0.07
0.02
0.02
0.10
0.01
0.01
0.02
0.07
0.01
0.11
0.04
0.02
0.06
0.11
0.18
0.18
0.20
0.18
0.25
0.18
0.26
0.01
0.40
0.62
0.62
0.79
0.70
0.61
0.61
0.26
0.18
0.10
0.06
0.02
0.01
0.00
0.00
0.01
0.02
0.00
0.14
0.07
0.11
0.16
0.14
0.14
0.23
0.26
0.26
0.26
0.26
0.18
0.18
0.18
0.14
0.02
0.00
0.01
0.01
0.00
0.02
0.02
0.02
0.11
0.07
0.10
0.07
0.11
0.16
0.18
0.06
0.10
0.07
0.02
0.02
0.07
0.07
0.02
0.02
0.07
0.10
0.10
0.16
0.10
0.16
0.16
0.16
0.07
0.07
0.02
0.01
0.01
0.02
0.01
0.02
0.10
0.16
0.30
0.16
0.26
0.20
0.26
0.26
0.30
0.15
0.54
0.23
0.71
0.81
0.66
0.64
0.59
0.16
0.16
0.07
0.10
0.01
0.00
0.00
0.01
0.02
0.04
0.14
0.15
0.16
0.18
0.26
0.23
0.26
0.43
0.40
0.40
0.41
0.43
0.35
0.30
0.20
0.16
0.14
0.04
0.01
0.00
0.01
0.02
0.01
0.02
0.01
0.06
0.02
0.06
0.00
0.02
0.02
0.01
0.01
0.01
0.00
0.00
0.00
0.01
0.01
0.04
0.00
0.00
0.00
0.00
0.00
0.00
0.02
0.01
0.01
0.01
0.02
0.04
0.02
0.14
0.07
0.23
0.11
0.07
0.02
0.06
0.16
0.06
0.02
0.07
0.20
0.11
0.25
0.18
0.58
0.66
0.69
0.86
0.67
0.64
0.61
0.11
0.07
0.01
0.00
0.01
0.00
0.02
0.11
0.04
0.15
0.16
0.16
0.18
0.23
0.26
0.40
0.40
0.32
0.40
0.54
0.43
0.41
0.30
0.16
0.30
0.30
0.16
0.15
0.23
0.15
0.01
0.00
0.04
0.00
0.01
0.00
0.01
0.02
0.02
0.01
0.06
0.01
0.07
0.02
0.02
0.01
0.07
0.04
0.07
0.01
0.01
0.02
0.01
0.16
0.02
0.01
0.00
0.04
0.01
0.11
0.14
0.07
0.14
0.15
0.41
0.15
0.16
0.02
0.01
0.01
0.16
0.25
0.02
0.18
0.07
0.20
0.32
0.55
0.69
0.62
0.79
0.66
0.62
0.60
0.26
0.16
0.11
0.02
0.01
0.01
0.16
0.16
0.11
0.16
0.02
0.26
0.16
0.11
0.07
0.30
0.26
0.35
0.07
0.58
0.23
0.40
0.23
0.40
0.15
0.11
0.14
0.01
0.02
0.04
0.01
0.01
0.02
0.01
0.02
0.01
0.01
0.02
0.02
0.11
0.00
0.01
0.02
0.00
0.02
0.01
0.02
0.02
0.16
0.01
0.04
0.01
0.02
0.04
0.00
0.02
0.07
0.06
0.11
0.04
0.02
0.06
0.00
0.01
0.32
0.16
0.01
0.01
0.02
0.02
0.16
0.07
0.10
0.41
0.06
0.02
0.04
0.51
0.66
0.64
0.78
0.66
0.62
0.59
0.20
0.25
0.02
0.00
0.02
0.01
0.02
0.01
0.11
0.02
0.04
0.15
0.15
0.02
0.14
0.14
0.23
0.40
0.20
0.30
0.43
0.26
0.18
0.15
0.16
0.26
0.01
0.04
0.02
0.01
0.01
0.26
0.00
0.00
0.02
0.02
0.10
0.04
0.02
0.11
0.01
0.11
0.06
0.00
0.02
0.01
0.02
0.02
0.01
0.01
0.10
0.01
0.02
0.02
0.00
0.01
0.02
0.01
0.16
0.04
0.04
0.01
0.01
0.00
0.30
0.07
0.02
0.16
0.06
0.18
0.25
0.26
0.26
0.16
0.35
0.11
0.18
0.51
0.54
0.78
0.89
0.68
0.64
0.59
0.25
0.35
0.01
0.11
0.02
0.00
0.11
0.23
0.11
0.18
0.14
0.26
0.30
0.35
0.41
0.35
0.40
0.49
0.48
0.46
0.43
0.43
0.30
0.35
0.18
0.20
0.00
0.04
0.00
0.02
0.04
0.02
0.02
0.01
0.02
0.02
0.01
0.07
0.01
0.01
0.02
0.01
0.02
0.00
0.01
0.00
0.11
0.00
0.02
0.00
0.02
0.04
0.07
0.00
0.00
0.01
0.00
0.00
0.02
0.00
0.00
0.01
0.01
0.16
0.18
0.18
0.15
0.11
0.06
0.10
0.07
0.06
0.06
0.01
0.20
0.16
0.07
0.54
0.60
0.02
0.79
0.87
0.66
0.62
0.47
0.02
0.01
0.02
0.15
0.01
0.02
0.02
0.14
0.18
0.32
0.20
0.35
0.26
0.30
0.35
0.26
0.41
0.32
0.32
0.43
0.20
0.30
0.30
0.00
0.04
0.15
0.04
0.07
0.00
0.00
0.00
0.04
0.02
0.00
0.02
0.01
0.02
0.00
0.02
0.01
0.00
0.01
0.01
0.00
0.04
0.07
0.14
0.04
0.11
0.04
0.02
0.04
0.07
0.04
0.01
0.04
0.00
0.01
0.01
0.01
0.00
0.00
0.00
0.01
0.23
0.01
0.00
0.02
0.11
0.33
0.11
0.10
0.18
0.20
0.20
0.11
0.14
0.51
0.74
0.64
0.81
0.68
0.62
0.60
0.16
0.10
0.02
0.01
0.00
0.01
0.01
0.04
0.11
0.11
0.15
0.18
0.18
0.20
0.23
0.30
0.32
0.26
0.32
0.32
0.30
0.30
0.26
0.20
0.11
0.15
0.07
0.01
0.00
0.07
0.01
0.01
0.01
0.00
0.00
0.00
0.00
0.00
0.00
0.00
0.01
0.00
0.02
0.01
0.04
0.11
0.11
0.11
0.04
0.04
0.02
0.02
0.02
0.02
0.00
0.00
0.00
0.01
0.01
0.02
0.11
0.01
0.02
0.15
0.07
0.18
0.07
0.00
0.01
0.20
0.26
0.20
0.02
0.10
0.11
0.06
0.11
0.18
0.46
0.74
0.78
0.90
0.68
0.62
0.56
0.16
0.06
0.02
0.06
0.02
0.00
0.00
0.01
0.00
0.02
0.07
0.11
0.18
0.20
0.20
0.32
0.32
0.26
0.32
0.26
0.20
0.23
0.15
0.07
0.02
0.02
0.00
0.00
0.01
0.00
0.01
0.00
0.01
0.00
0.02
0.01
0.00
0.01
0.00
0.01
0.01
0.01
0.04
0.00
0.02
0.02
0.00
0.02
0.04
0.00
0.02
0.01
0.01
0.01
0.02
0.06
0.01
0.02
0.07
0.01
0.00
0.01
0.01
0.00
0.16
0.02
0.00
0.01
0.20
0.30
0.20
0.16
0.18
0.20
0.20
0.26
0.02
0.20
0.69
0.64
0.81
0.74
0.66
0.61
0.46
0.26
0.20
0.30
0.06
0.02
0.02
0.02
0.01
0.00
0.01
0.00
0.02
0.04
0.11
0.04
0.04
0.00
0.02
0.01
0.02
0.01
0.01
0.01
0.02
0.02
0.07
0.02
0.02
0.01
0.02
0.01
0.02
0.02
0.02
0.02
0.02
0.01
0.06
0.02
0.02
0.01
0.01
0.02
0.02
0.01
0.02
0.02
0.01
0.02
0.02
0.06
0.07
0.02
0.06
0.07
0.06
0.07
0.07
0.10
0.02
0.02
0.02
0.01
0.01
0.00
0.02
0.02
0.26
0.33
0.33
0.26
0.33
0.33
0.33
0.33
0.33
0.04
0.62
0.41
0.75
0.73
0.66
0.63
0.56
0.16
0.10
0.10
0.07
0.01
0.02
0.01
0.02
0.01
0.00
0.02
0.04
0.07
0.11
0.15
0.16
0.18
0.18
0.18
0.20
0.23
0.23
0.16
0.15
0.15
0.04
0.04
0.04
0.00
0.00
0.00
0.02
0.02
0.02
0.01
0.01
0.02
0.02
0.02
0.01
0.01
0.01
0.00
0.00
0.01
0.00
0.01
0.01
0.01
0.00
0.00
0.01
0.01
0.02
0.00
0.02
0.01
0.02
0.02
0.01
0.01
0.01
0.00
0.15
0.01
0.16
0.07
0.00
0.01
0.20
0.25
0.18
0.11
0.11
0.18
0.16
0.30
0.18
0.58
0.69
0.68
0.87
0.71
0.62
0.59
0.30
0.26
0.07
0.02
0.01
0.07
0.00
0.00
0.00
0.04
0.02
0.07
0.02
0.15
0.11
0.11
0.15
0.14
0.20
0.20
0.20
0.23
0.16
0.15
0.14
0.04
0.04
0.02
0.02
0.02
0.11
0.07
0.11
0.10
0.16
0.11
0.10
0.11
0.11
0.16
0.11
0.10
0.10
0.10
0.07
0.02
0.02
0.01
0.01
0.02
0.02
0.02
0.06
0.06
0.07
0.11
0.06
0.07
0.16
0.11
0.02
0.01
0.02
0.00
0.00
0.11
0.01
0.00
0.07
0.20
0.26
0.25
0.20
0.16
0.20
0.25
0.26
0.23
0.60
0.01
0.78
0.86
0.70
0.63
0.56
0.07
0.06
0.02
0.01
0.01
0.01
0.14
0.07
0.16
0.14
0.26
0.26
0.32
0.40
0.41
0.48
0.55
0.58
0.59
0.62
0.61
0.61
0.61
0.59
0.51
0.49
0.40
0.32
0.20
0.15
0.02
0.11
0.04
0.04
0.04
0.04
0.02
0.00
0.01
0.02
0.02
0.02
0.04
0.04
0.11
0.11
0.07
0.07
0.02
0.02
0.04
0.04
0.04
0.02
0.01
0.01
0.01
0.01
0.01
0.02
0.00
0.00
0.11
0.04
0.14
0.18
0.23
0.23
0.18
0.07
0.00
0.02
0.06
0.01
0.02
0.02
0.01
0.07
0.07
0.46
0.60
0.41
0.82
0.88
0.68
0.63
0.56
0.01
0.01
0.01
0.02
0.01
0.02
0.14
0.18
0.16
0.16
0.18
0.20
0.26
0.26
0.35
0.30
0.32
0.40
0.46
0.43
0.46
0.41
0.41
0.32
0.20
0.30
0.14
0.11
0.01
0.00
0.01
0.01
0.07
0.01
0.02
0.02
0.06
0.07
0.02
0.01
0.06
0.02
0.01
0.02
0.01
0.02
0.00
0.00
0.00
0.01
0.00
0.01
0.00
0.01
0.02
0.02
0.01
0.07
0.02
0.02
0.07
0.07
0.06
0.00
0.02
0.00
0.02
0.16
0.00
0.01
0.01
0.11
0.26
0.20
0.16
0.25
0.26
0.26
0.26
0.07
0.32
0.63
0.59
0.81
0.79
0.66
0.61
0.42
0.16
0.07
0.02
0.00
0.00
0.00
0.04
0.04
0.07
0.16
0.23
0.20
0.30
0.40
0.41
0.48
0.51
0.58
0.58
0.60
0.61
0.61
0.59
0.58
0.55
0.46
0.35
0.18
0.14
0.07
0.02
0.02
0.00
0.01
0.01
0.01
0.00
0.01
0.02
0.00
0.00
0.00
0.00
0.01
0.00
0.00
0.00
0.00
0.00
0.00
0.00
0.00
0.01
0.01
0.01
0.01
0.01
0.01
0.02
0.01
0.02
0.02
0.01
0.02
0.01
0.01
0.00
0.01
0.02
0.15
0.11
0.00
0.00
0.10
0.18
0.16
0.06
0.10
0.16
0.18
0.20
0.07
0.40
0.64
0.62
0.87
0.87
0.74
0.62
0.35
0.10
0.10
0.10
0.06
0.02
0.01
0.00
0.01
0.02
0.01
0.07
0.14
0.15
0.16
0.14
0.18
0.26
0.20
0.32
0.40
0.32
0.35
0.26
0.18
0.20
0.11
0.07
0.00
0.01
0.02
0.06
0.06
0.16
0.18
0.10
0.16
0.18
0.16
0.26
0.20
0.11
0.16
0.20
0.10
0.11
0.11
0.06
0.10
0.10
0.07
0.10
0.11
0.11
0.18
0.18
0.16
0.18
0.18
0.20
0.26
0.20
0.25
0.30
0.26
0.26
0.18
0.11
0.07
0.07
0.10
0.00
0.01
0.02
0.10
0.35
0.42
0.30
0.26
0.33
0.35
0.35
0.40
0.02
0.32
0.64
0.62
0.79
0.78
0.66
0.63
0.53
0.20
0.18
0.16
0.07
0.06
0.06
0.01
0.00
0.00
0.00
0.01
0.02
0.07
0.15
0.18
0.26
0.30
0.32
0.43
0.48
0.49
0.48
0.49
0.48
0.46
0.30
0.26
0.11
0.07
0.00
0.01
0.02
0.01
0.02
0.06
0.06
0.02
0.02
0.07
0.06
0.02
0.02
0.02
0.00
0.02
0.00
0.01
0.00
0.00
0.01
0.01
0.01
0.00
0.01
0.01
0.02
0.01
0.01
0.01
0.02
0.02
0.02
0.02
0.02
0.01
0.02
0.01
0.01
0.00
0.02
0.14
0.01
0.14
0.00
0.00
0.01
0.25
0.26
0.20
0.10
0.11
0.16
0.16
0.18
0.00
0.51
0.68
0.62
0.87
0.82
0.69
0.59
0.11
0.01
0.01
0.01
0.07
0.14
0.11
0.15
0.20
0.18
0.23
0.30
0.26
0.35
0.32
0.40
0.43
0.41
0.49
0.43
0.49
0.54
0.49
0.35
0.48
0.43
0.40
0.23
0.15
0.07
0.02
0.00
0.00
0.01
0.02
0.01
0.02
0.02
0.02
0.06
0.02
0.02
0.02
0.06
0.02
0.01
0.01
0.01
0.02
0.02
0.01
0.02
0.02
0.07
0.02
0.07
0.07
0.10
0.16
0.11
0.16
0.11
0.16
0.11
0.16
0.26
0.16
0.16
0.07
0.11
0.02
0.10
0.00
0.10
0.06
0.18
0.33
0.41
0.33
0.25
0.35
0.35
0.33
0.33
0.01
0.40
0.65
0.62
0.79
0.75
0.66
0.62
0.46
0.25
0.16
0.10
0.06
0.02
0.02
0.01
0.01
0.00
0.00
0.02
0.07
0.07
0.14
0.15
0.16
0.20
0.30
0.32
0.40
0.41
0.43
0.41
0.40
0.32
0.26
0.16
0.14
0.02
0.00
0.01
0.02
0.02
0.01
0.02
0.02
0.06
0.07
0.06
0.02
0.07
0.01
0.02
0.01
0.02
0.01
0.02
0.01
0.06
0.01
0.02
0.01
0.02
0.02
0.02
0.02
0.02
0.02
0.02
0.02
0.06
0.06
0.06
0.06
0.07
0.02
0.06
0.02
0.01
0.01
0.00
0.14
0.00
0.18
0.01
0.02
0.11
0.30
0.18
0.18
0.18
0.16
0.20
0.18
0.18
0.40
0.57
0.26
0.85
0.89
0.73
0.62
0.56
0.06
0.06
0.01
0.01
0.04
0.11
0.11
0.16
0.20
0.26
0.26
0.40
0.43
0.48
0.55
0.57
0.59
0.61
0.62
0.62
0.63
0.63
0.62
0.62
0.58
0.55
0.40
0.26
0.18
0.11
0.04
0.02
0.00
0.01
0.01
0.01
0.01
0.01
0.01
0.00
0.01
0.01
0.01
0.00
0.01
0.00
0.00
0.01
0.00
0.01
0.01
0.00
0.01
0.02
0.02
0.06
0.02
0.07
0.10
0.07
0.10
0.11
0.11
0.18
0.11
0.18
0.25
0.16
0.07
0.02
0.11
0.01
0.02
0.11
0.10
0.07
0.25
0.46
0.38
0.35
0.33
0.33
0.38
0.25
0.30
0.23
0.59
0.26
0.75
0.85
0.70
0.64
0.59
0.20
0.30
0.18
0.10
0.07
0.06
0.01
0.02
0.01
0.00
0.01
0.01
0.00
0.00
0.01
0.07
0.04
0.11
0.15
0.18
0.16
0.32
0.20
0.26
0.18
0.15
0.01
0.02
0.00
0.01
0.02
0.11
0.10
0.16
0.11
0.10
0.16
0.18
0.18
0.10
0.18
0.18
0.11
0.07
0.07
0.06
0.06
0.06
0.06
0.10
0.06
0.06
0.02
0.10
0.02
0.07
0.16
0.10
0.11
0.11
0.16
0.11
0.16
0.11
0.16
0.18
0.18
0.16
0.10
0.01
0.01
0.02
0.01
0.07
0.02
0.06
0.07
0.38
0.26
0.26
0.18
0.20
0.20
0.26
0.20
0.32
0.60
0.20
0.76
0.87
0.71
0.64
0.59
0.11
0.07
0.02
0.02
0.00
0.00
0.02
0.04
0.14
0.14
0.15
0.18
0.23
0.35
0.40
0.46
0.51
0.55
0.60
0.61
0.62
0.62
0.62
0.61
0.59
0.58
0.48
0.32
0.18
0.14
0.07
0.02
0.00
0.01
0.00
0.00
0.01
0.01
0.01
0.01
0.01
0.01
0.01
0.00
0.00
0.00
0.01
0.01
0.01
0.01
0.00
0.00
0.00
0.00
0.00
0.01
0.01
0.01
0.01
0.01
0.02
0.01
0.01
0.02
0.01
0.02
0.02
0.02
0.00
0.02
0.11
0.02
0.15
0.11
0.16
0.01
0.01
0.11
0.26
0.20
0.11
0.18
0.16
0.18
0.20
0.02
0.40
0.65
0.60
0.87
0.85
0.69
0.61
0.35
0.07
0.06
0.01
0.01
0.00
0.01
0.07
0.04
0.11
0.07
0.15
0.14
0.20
0.15
0.23
0.23
0.26
0.30
0.30
0.30
0.35
0.35
0.30
0.30
0.23
0.23
0.14
0.02
0.02
0.01
0.06
0.06
0.02
0.07
0.01
0.07
0.06
0.10
0.10
0.11
0.07
0.07
0.07
0.11
0.02
0.01
0.02
0.02
0.02
0.02
0.02
0.06
0.07
0.11
0.11
0.10
0.16
0.11
0.10
0.20
0.18
0.20
0.16
0.25
0.16
0.20
0.20
0.16
0.10
0.06
0.02
0.02
0.00
0.02
0.16
0.18
0.41
0.38
0.35
0.26
0.35
0.33
0.33
0.33
0.00
0.48
0.66
0.62
0.78
0.70
0.62
0.61
0.38
0.25
0.11
0.10
0.06
0.02
0.01
0.01
0.00
0.00
0.00
0.02
0.07
0.07
0.15
0.18
0.23
0.30
0.35
0.43
0.43
0.48
0.48
0.49
0.48
0.41
0.32
0.20
0.11
0.04
0.01
0.01
0.01
0.02
0.01
0.02
0.01
0.02
0.01
0.02
0.01
0.01
0.01
0.02
0.02
0.01
0.02
0.01
0.01
0.02
0.02
0.02
0.02
0.01
0.01
0.02
0.02
0.01
0.01
0.01
0.02
0.02
0.06
0.01
0.02
0.02
0.02
0.02
0.06
0.01
0.00
0.02
0.02
0.07
0.07
0.00
0.06
0.07
0.30
0.26
0.25
0.11
0.18
0.16
0.16
0.18
0.16
0.48
0.68
0.67
0.88
0.74
0.63
0.61
0.10
0.02
0.01
0.01
0.02
0.07
0.11
0.18
0.15
0.18
0.23
0.30
0.32
0.40
0.46
0.49
0.51
0.58
0.59
0.57
0.60
0.59
0.59
0.60
0.57
0.48
0.43
0.18
0.16
0.11
0.02
0.01
0.01
0.01
0.01
0.00
0.00
0.01
0.01
0.01
0.01
0.00
0.01
0.01
0.01
0.00
0.01
0.01
0.00
0.01
0.01
0.02
0.02
0.01
0.02
0.06
0.07
0.07
0.07
0.10
0.16
0.11
0.10
0.10
0.20
0.16
0.18
0.11
0.07
0.02
0.01
0.02
0.00
0.01
0.11
0.11
0.40
0.38
0.40
0.26
0.38
0.30
0.33
0.38
0.00
0.48
0.69
0.62
0.81
0.70
0.61
0.61
0.30
0.33
0.16
0.07
0.06
0.06
0.06
0.06
0.01
0.00
0.01
0.01
0.01
0.01
0.01
0.02
0.07
0.07
0.11
0.16
0.15
0.18
0.18
0.18
0.20
0.14
0.07
0.01
0.01
0.02
0.07
0.07
0.11
0.16
0.16
0.16
0.11
0.16
0.20
0.18
0.16
0.10
0.10
0.11
0.11
0.11
0.10
0.07
0.11
0.07
0.10
0.11
0.10
0.11
0.06
0.16
0.10
0.11
0.16
0.20
0.20
0.16
0.16
0.16
0.18
0.25
0.18
0.10
0.02
0.02
0.01
0.02
0.01
0.01
0.02
0.07
0.30
0.33
0.30
0.20
0.20
0.25
0.20
0.26
0.01
0.46
0.66
0.63
0.82
0.79
0.66
0.61
0.35
0.07
0.06
0.01
0.01
0.01
0.02
0.02
0.11
0.15
0.15
0.16
0.23
0.30
0.35
0.43
0.49
0.51
0.54
0.58
0.60
0.60
0.61
0.60
0.58
0.57
0.54
0.43
0.30
0.18
0.14
0.11
0.02
0.01
0.00
0.00
0.00
0.01
0.01
0.02
0.02
0.01
0.01
0.00
0.00
0.00
0.00
0.00
0.00
0.01
0.00
0.00
0.01
0.00
0.00
0.01
0.00
0.01
0.01
0.02
0.01
0.02
0.07
0.02
0.02
0.06
0.07
0.02
0.01
0.01
0.00
0.02
0.01
0.14
0.01
0.01
0.02
0.26
0.20
0.25
0.16
0.11
0.11
0.18
0.30
0.16
0.55
0.74
0.66
0.87
0.72
0.62
0.59
0.30
0.07
0.11
0.02
0.01
0.01
0.00
0.01
0.04
0.02
0.00
0.07
0.07
0.11
0.15
0.16
0.16
0.18
0.20
0.23
0.23
0.32
0.30
0.32
0.30
0.20
0.14
0.11
0.04
0.00
0.02
0.01
0.06
0.10
0.10
0.10
0.07
0.07
0.10
0.20
0.16
0.11
0.07
0.11
0.10
0.10
0.11
0.06
0.06
0.02
0.10
0.06
0.06
0.10
0.02
0.16
0.11
0.18
0.20
0.11
0.16
0.18
0.25
0.25
0.20
0.26
0.20
0.20
0.25
0.11
0.07
0.07
0.02
0.02
0.01
0.06
0.11
0.16
0.40
0.40
0.35
0.33
0.30
0.38
0.33
0.41
0.01
0.49
0.64
0.62
0.79
0.68
0.62
0.61
0.33
0.25
0.16
0.10
0.02
0.02
0.01
0.01
0.01
0.02
0.02
0.07
0.15
0.18
0.23
0.23
0.32
0.40
0.43
0.49
0.55
0.51
0.57
0.54
0.51
0.48
0.35
0.23
0.15
0.11
0.00
0.00
0.01
0.01
0.02
0.02
0.06
0.02
0.06
0.02
0.06
0.02
0.02
0.02
0.01
0.02
0.01
0.02
0.01
0.02
0.01
0.02
0.02
0.02
0.02
0.02
0.02
0.06
0.02
0.06
0.02
0.06
0.06
0.07
0.06
0.07
0.07
0.10
0.07
0.02
0.00
0.00
0.07
0.02
0.15
0.00
0.02
0.02
0.30
0.20
0.20
0.16
0.18
0.20
0.18
0.16
0.04
0.51
0.68
0.64
0.87
0.75
0.66
0.59
0.20
0.02
0.06
0.01
0.01
0.01
0.02
0.07
0.15
0.14
0.16
0.23
0.26
0.30
0.41
0.43
0.48
0.46
0.51
0.58
0.57
0.55
0.57
0.57
0.51
0.49
0.35
0.30
0.18
0.11
0.11
0.02
0.02
0.00
0.01
0.00
0.00
0.01
0.02
0.02
0.02
0.02
0.02
0.01
0.02
0.01
0.02
0.02
0.02
0.02
0.02
0.02
0.01
0.06
0.02
0.10
0.02
0.06
0.06
0.10
0.07
0.10
0.10
0.10
0.07
0.11
0.16
0.20
0.06
0.02
0.01
0.01
0.01
0.00
0.00
0.02
0.02
0.06
0.38
0.30
0.38
0.25
0.30
0.35
0.38
0.35
0.01
0.40
0.65
0.64
0.79
0.73
0.66
0.62
0.47
0.20
0.18
0.16
0.07
0.02
0.06
0.02
0.02
0.01
0.01
0.01
0.01
0.00
0.07
0.04
0.07
0.16
0.18
0.30
0.30
0.40
0.41
0.43
0.46
0.40
0.35
0.23
0.15
0.11
0.04
0.00
0.02
0.02
0.01
0.01
0.01
0.02
0.02
0.02
0.02
0.02
0.02
0.02
0.02
0.01
0.02
0.02
0.01
0.01
0.06
0.01
0.02
0.01
0.02
0.02
0.02
0.02
0.01
0.02
0.10
0.06
0.02
0.02
0.02
0.02
0.02
0.02
0.06
0.02
0.02
0.00
0.02
0.00
0.14
0.01
0.20
0.01
0.01
0.07
0.26
0.18
0.18
0.18
0.16
0.16
0.16
0.11
0.43
0.59
0.20
0.77
0.87
0.68
0.64
0.59
0.02
0.01
0.00
0.04
0.07
0.11
0.18
0.16
0.16
0.26
0.26
0.40
0.35
0.48
0.46
0.51
0.58
0.60
0.62
0.61
0.62
0.62
0.62
0.62
0.61
0.58
0.51
0.43
0.26
0.18
0.15
0.02
0.07
0.04
0.00
0.01
0.02
0.02
0.01
0.04
0.01
0.01
0.01
0.02
0.02
0.02
0.04
0.01
0.01
0.14
0.01
0.01
0.01
0.00
0.00
0.00
0.01
0.01
0.01
0.02
0.02
0.01
0.02
0.02
0.02
0.02
0.06
0.06
0.07
0.01
0.00
0.02
0.07
0.00
0.07
0.00
0.01
0.02
0.33
0.26
0.30
0.25
0.20
0.18
0.26
0.25
0.01
0.48
0.69
0.64
0.87
0.73
0.64
0.61
0.30
0.20
0.07
0.10
0.06
0.02
0.01
0.01
0.01
0.00
0.01
0.07
0.01
0.07
0.07
0.14
0.16
0.20
0.18
0.26
0.32
0.40
0.41
0.40
0.32
0.23
0.23
0.14
0.07
0.01
0.02
0.02
0.11
0.10
0.10
0.10
0.18
0.11
0.16
0.11
0.16
0.16
0.11
0.16
0.10
0.10
0.07
0.07
0.07
0.07
0.07
0.02
0.06
0.06
0.02
0.07
0.07
0.10
0.18
0.07
0.10
0.07
0.10
0.11
0.10
0.07
0.07
0.16
0.10
0.10
0.01
0.00
0.00
0.00
0.00
0.01
0.02
0.02
0.18
0.30
0.25
0.16
0.20
0.16
0.26
0.30
0.02
0.43
0.61
0.62
0.84
0.81
0.69
0.61
0.47
0.06
0.02
0.02
0.00
0.01
0.07
0.07
0.15
0.11
0.23
0.20
0.30
0.41
0.40
0.48
0.54
0.58
0.58
0.62
0.62
0.63
0.63
0.63
0.62
0.62
0.59
0.54
0.41
0.30
0.18
0.11
0.04
0.04
0.00
0.01
0.00
0.01
0.00
0.00
0.00
0.00
0.01
0.00
0.00
0.01
0.00
0.00
0.00
0.01
0.00
0.01
0.01
0.00
0.00
0.01
0.01
0.01
0.01
0.02
0.01
0.02
0.01
0.02
0.02
0.01
0.01
0.01
0.07
0.02
0.02
0.01
0.01
0.01
0.00
0.11
0.04
0.14
0.00
0.01
0.11
0.26
0.26
0.18
0.11
0.20
0.30
0.20
0.26
0.32
0.48
0.48
0.79
0.88
0.69
0.65
0.59
0.16
0.11
0.07
0.02
0.01
0.02
0.02
0.02
0.07
0.07
0.04
0.11
0.11
0.11
0.16
0.18
0.20
0.23
0.30
0.32
0.30
0.41
0.40
0.32
0.32
0.26
0.20
0.11
0.04
0.00
0.00
0.00
0.01
0.02
0.06
0.07
0.02
0.07
0.10
0.07
0.10
0.10
0.07
0.11
0.02
0.07
0.11
0.02
0.02
0.02
0.16
0.10
0.06
0.07
0.07
0.11
0.11
0.11
0.16
0.11
0.18
0.18
0.18
0.16
0.18
0.18
0.20
0.18
0.06
0.02
0.06
0.00
0.07
0.04
0.02
0.02
0.07
0.40
0.35
0.35
0.20
0.20
0.30
0.33
0.38
0.07
0.58
0.63
0.66
0.81
0.68
0.63
0.59
0.20
0.20
0.06
0.02
0.01
0.01
0.02
0.04
0.07
0.04
0.11
0.14
0.16
0.23
0.26
0.32
0.40
0.48
0.51
0.54
0.57
0.58
0.58
0.57
0.55
0.51
0.43
0.26
0.18
0.07
0.04
0.00
0.00
0.01
0.01
0.01
0.00
0.01
0.01
0.01
0.01
0.00
0.01
0.01
0.00
0.00
0.00
0.01
0.01
0.01
0.02
0.01
0.01
0.01
0.01
0.02
0.01
0.02
0.02
0.02
0.01
0.07
0.06
0.02
0.02
0.06
0.06
0.06
0.06
0.00
0.02
0.00
0.15
0.00
0.18
0.01
0.01
0.02
0.30
0.25
0.20
0.10
0.11
0.20
0.11
0.11
0.35
0.54
0.65
0.75
0.88
0.69
0.65
0.59
0.10
0.02
0.01
0.00
0.01
0.07
0.11
0.14
0.15
0.15
0.15
0.23
0.30
0.35
0.43
0.41
0.51
0.48
0.55
0.57
0.57
0.57
0.54
0.54
0.49
0.46
0.32
0.26
0.20
0.14
0.04
0.00
0.00
0.01
0.01
0.02
0.02
0.02
0.07
0.02
0.06
0.06
0.02
0.02
0.02
0.01
0.02
0.01
0.01
0.02
0.02
0.01
0.02
0.02
0.06
0.06
0.02
0.06
0.10
0.10
0.11
0.07
0.11
0.16
0.10
0.11
0.11
0.11
0.10
0.02
0.02
0.02
0.01
0.01
0.04
0.02
0.02
0.30
0.35
0.33
0.30
0.30
0.26
0.30
0.33
0.26
0.15
0.62
0.53
0.75
0.77
0.66
0.64
0.58
0.18
0.18
0.11
0.06
0.06
0.01
0.01
0.01
0.00
0.00
0.01
0.02
0.07
0.02
0.11
0.15
0.07
0.20
0.20
0.30
0.30
0.40
0.30
0.41
0.32
0.30
0.18
0.15
0.04
0.00
0.01
0.02
0.02
0.02
0.02
0.02
0.02
0.02
0.06
0.02
0.01
0.01
0.01
0.02
0.01
0.01
0.01
0.00
0.02
0.01
0.02
0.01
0.02
0.01
0.01
0.02
0.01
0.01
0.02
0.02
0.01
0.01
0.02
0.07
0.02
0.06
0.02
0.02
0.02
0.00
0.04
0.00
0.16
0.02
0.23
0.00
0.02
0.10
0.20
0.18
0.11
0.18
0.10
0.11
0.16
0.10
0.43
0.62
0.53
0.82
0.86
0.68
0.62
0.35
0.01
0.01
0.02
0.02
0.11
0.14
0.16
0.18
0.23
0.20
0.26
0.41
0.41
0.46
0.51
0.58
0.57
0.61
0.61
0.62
0.62
0.62
0.61
0.60
0.58
0.54
0.46
0.35
0.23
0.18
0.11
0.07
0.07
0.01
0.04
0.00
0.00
0.01
0.01
0.01
0.01
0.00
0.00
0.01
0.02
0.01
0.02
0.00
0.00
0.01
0.02
0.00
0.00
0.01
0.02
0.01
0.06
0.06
0.01
0.02
0.06
0.02
0.06
0.07
0.06
0.06
0.02
0.10
0.02
0.02
0.00
0.01
0.01
0.01
0.02
0.02
0.07
0.20
0.33
0.30
0.25
0.33
0.25
0.26
0.30
0.10
0.35
0.67
0.62
0.78
0.73
0.66
0.62
0.40
0.16
0.18
0.10
0.06
0.06
0.00
0.02
0.01
0.01
0.00
0.01
0.01
0.00
0.01
0.04
0.04
0.11
0.16
0.18
0.18
0.20
0.30
0.23
0.26
0.26
0.18
0.15
0.01
0.00
0.01
0.02
0.06
0.06
0.10
0.10
0.10
0.10
0.10
0.07
0.11
0.11
0.07
0.06
0.06
0.06
0.02
0.07
0.10
0.07
0.06
0.02
0.02
0.07
0.10
0.07
0.07
0.07
0.07
0.06
0.07
0.10
0.11
0.10
0.07
0.10
0.07
0.07
0.06
0.02
0.00
0.02
0.04
0.11
0.01
0.18
0.00
0.01
0.02
0.26
0.11
0.10
0.10
0.10
0.11
0.11
0.16
0.41
0.62
0.26
0.77
0.82
0.67
0.61
0.46
0.01
0.01
0.00
0.02
0.07
0.11
0.14
0.15
0.18
0.20
0.26
0.32
0.40
0.46
0.48
0.55
0.58
0.59
0.61
0.62
0.63
0.63
0.63
0.62
0.61
0.58
0.51
0.43
0.40
0.18
0.15
0.15
0.04
0.04
0.04
0.01
0.01
0.01
0.01
0.01
0.00
0.02
0.02
0.02
0.01
0.01
0.02
0.02
0.04
0.02
0.01
0.02
0.01
0.00
0.01
0.01
0.00
0.00
0.01
0.00
0.00
0.00
0.02
0.01
0.00
0.01
0.02
0.02
0.02
0.02
0.01
0.02
0.02
0.04
0.04
0.18
0.04
0.01
0.02
0.26
0.20
0.20
0.11
0.20
0.20
0.16
0.18
0.01
0.43
0.74
0.61
0.85
0.73
0.66
0.62
0.25
0.16
0.02
0.02
0.01
0.01
0.01
0.01
0.01
0.01
0.01
0.04
0.07
0.02
0.02
0.14
0.11
0.16
0.20
0.15
0.20
0.23
0.23
0.23
0.23
0.07
0.18
0.04
0.01
0.01
0.01
0.06
0.02
0.02
0.10
0.10
0.10
0.11
0.16
0.16
0.11
0.07
0.16
0.10
0.11
0.07
0.11
0.07
0.10
0.10
0.10
0.07
0.11
0.16
0.10
0.18
0.11
0.16
0.10
0.18
0.18
0.16
0.07
0.16
0.11
0.07
0.10
0.16
0.11
0.10
0.02
0.00
0.01
0.02
0.00
0.00
0.02
0.07
0.26
0.33
0.33
0.25
0.33
0.25
0.30
0.30
0.16
0.18
0.63
0.59
0.77
0.73
0.65
0.62
0.40
0.16
0.11
0.02
0.02
0.01
0.00
0.00
0.01
0.02
0.07
0.14
0.18
0.16
0.18
0.23
0.26
0.40
0.43
0.46
0.54
0.49
0.55
0.54
0.54
0.48
0.41
0.32
0.23
0.15
0.04
0.02
0.01
0.00
0.00
0.01
0.01
0.01
0.01
0.01
0.00
0.01
0.00
0.01
0.00
0.00
0.00
0.00
0.00
0.00
0.00
0.00
0.01
0.00
0.01
0.01
0.00
0.01
0.01
0.01
0.02
0.02
0.01
0.02
0.01
0.06
0.01
0.02
0.02
0.02
0.01
0.00
0.07
0.02
0.15
0.11
0.16
0.00
0.02
0.16
0.26
0.18
0.16
0.20
0.11
0.16
0.20
0.25
0.32
0.58
0.07
0.81
0.87
0.71
0.62
0.56
0.10
0.11
0.10
0.02
0.00
0.00
0.01
0.00
0.01
0.00
0.14
0.04
0.15
0.14
0.11
0.15
0.20
0.23
0.20
0.26
0.26
0.30
0.32
0.26
0.20
0.20
0.18
0.04
0.02
0.02
0.01
0.01
0.10
0.11
0.06
0.10
0.11
0.07
0.07
0.11
0.11
0.11
0.11
0.07
0.06
0.07
0.16
0.07
0.07
0.07
0.10
0.07
0.10
0.10
0.10
0.10
0.16
0.11
0.18
0.11
0.16
0.25
0.20
0.26
0.18
0.20
0.25
0.20
0.16
0.07
0.07
0.00
0.10
0.04
0.10
0.11
0.20
0.41
0.35
0.42
0.30
0.33
0.33
0.35
0.40
0.01
0.48
0.62
0.62
0.79
0.69
0.62
0.61
0.38
0.25
0.16
0.11
0.02
0.02
0.01
0.01
0.00
0.00
0.01
0.02
0.04
0.07
0.07
0.16
0.18
0.26
0.26
0.35
0.40
0.48
0.43
0.46
0.46
0.41
0.32
0.23
0.15
0.02
0.01
0.02
0.02
0.02
0.06
0.07
0.10
0.02
0.10
0.10
0.06
0.11
0.07
0.06
0.07
0.10
0.02
0.06
0.07
0.06
0.07
0.10
0.16
0.02
0.11
0.07
0.07
0.11
0.16
0.10
0.16
0.16
0.11
0.20
0.16
0.16
0.11
0.16
0.16
0.06
0.00
0.01
0.02
0.00
0.04
0.01
0.02
0.02
0.26
0.33
0.26
0.20
0.26
0.25
0.26
0.30
0.01
0.43
0.67
0.62
0.82
0.75
0.65
0.62
0.30
0.10
0.07
0.02
0.01
0.00
0.02
0.02
0.02
0.11
0.14
0.15
0.16
0.23
0.30
0.40
0.35
0.43
0.51
0.49
0.54
0.55
0.58
0.58
0.57
0.51
0.46
0.35
0.18
0.15
0.02
0.04
0.00
0.01
0.01
0.01
0.02
0.02
0.06
0.06
0.07
0.01
0.02
0.02
0.02
0.06
0.06
0.02
0.02
0.02
0.06
0.06
0.06
0.02
0.02
0.02
0.02
0.06
0.06
0.02
0.10
0.07
0.10
0.07
0.10
0.07
0.10
0.07
0.10
0.01
0.02
0.00
0.01
0.00
0.01
0.00
0.06
0.25
0.35
0.33
0.25
0.30
0.30
0.30
0.33
0.10
0.32
0.62
0.59
0.79
0.78
0.67
0.62
0.50
0.18
0.20
0.16
0.07
0.06
0.01
0.01
0.07
0.00
0.01
0.00
0.00
0.04
0.04
0.14
0.14
0.15
0.16
0.26
0.35
0.40
0.48
0.43
0.49
0.40
0.40
0.32
0.23
0.11
0.02
0.01
0.01
0.02
0.02
0.07
0.10
0.07
0.10
0.10
0.10
0.11
0.11
0.07
0.02
0.06
0.02
0.02
0.01
0.02
0.01
0.01
0.01
0.01
0.00
0.01
0.01
0.01
0.02
0.01
0.01
0.02
0.02
0.06
0.07
0.02
0.02
0.02
0.02
0.02
0.00
0.02
0.02
0.16
0.01
0.16
0.00
0.00
0.01
0.18
0.20
0.18
0.07
0.11
0.16
0.16
0.18
0.18
0.55
0.66
0.65
0.85
0.72
0.63
0.59
0.16
0.01
0.01
0.00
0.02
0.11
0.14
0.14
0.18
0.20
0.26
0.30
0.40
0.43
0.48
0.54
0.55
0.58
0.61
0.62
0.63
0.63
0.64
0.63
0.63
0.62
0.59
0.57
0.43
0.35
0.30
0.18
0.14
0.11
0.04
0.02
0.04
0.04
0.01
0.01
0.02
0.00
0.04
0.02
0.04
0.01
0.02
0.01
0.04
0.01
0.04
0.02
0.00
0.01
0.00
0.00
0.01
0.01
0.02
0.01
0.01
0.02
0.02
0.01
0.06
0.07
0.06
0.06
0.02
0.02
0.00
0.01
0.00
0.02
0.04
0.15
0.01
0.01
0.10
0.25
0.26
0.11
0.18
0.16
0.18
0.25
0.20
0.35
0.61
0.47
0.78
0.79
0.68
0.62
0.50
0.18
0.11
0.11
0.01
0.01
0.01
0.00
0.01
0.00
0.04
0.00
0.04
0.11
0.11
0.16
0.18
0.18
0.26
0.32
0.32
0.49
0.43
0.48
0.46
0.46
0.40
0.40
0.23
0.15
0.02
0.01
0.00
0.01
0.02
0.02
0.01
0.02
0.06
0.10
0.07
0.02
0.02
0.02
0.06
0.06
0.02
0.02
0.01
0.01
0.02
0.02
0.02
0.01
0.02
0.02
0.07
0.02
0.06
0.02
0.02
0.07
0.06
0.06
0.07
0.07
0.10
0.02
0.07
0.02
0.00
0.00
0.02
0.04
0.00
0.14
0.01
0.00
0.07
0.26
0.16
0.10
0.16
0.11
0.16
0.20
0.10
0.40
0.60
0.35
0.77
0.84
0.67
0.61
0.56
0.07
0.06
0.01
0.00
0.04
0.01
0.04
0.14
0.15
0.16
0.20
0.20
0.30
0.41
0.43
0.51
0.51
0.58
0.60
0.62
0.62
0.63
0.63
0.64
0.62
0.62
0.57
0.48
0.40
0.26
0.20
0.11
0.11
0.01
0.02
0.04
0.04
0.04
0.02
0.00
0.01
0.02
0.01
0.02
0.02
0.02
0.04
0.02
0.02
0.02
0.02
0.02
0.02
0.00
0.00
0.00
0.00
0.00
0.00
0.01
0.01
0.01
0.01
0.01
0.00
0.00
0.01
0.01
0.01
0.01
0.00
0.14
0.00
0.15
0.11
0.23
0.04
0.00
0.01
0.25
0.18
0.18
0.11
0.16
0.11
0.20
0.18
0.00
0.40
0.69
0.64
0.87
0.79
0.68
0.62
0.33
0.07
0.10
0.06
0.02
0.02
0.00
0.01
0.02
0.02
0.02
0.07
0.15
0.15
0.15
0.16
0.14
0.23
0.30
0.32
0.30
0.40
0.40
0.41
0.41
0.30
0.26
0.18
0.15
0.11
0.02
0.00
0.02
0.02
0.06
0.06
0.10
0.10
0.20
0.10
0.10
0.11
0.16
0.11
0.16
0.07
0.10
0.06
0.11
0.16
0.06
0.10
0.10
0.10
0.18
0.10
0.11
0.16
0.11
0.25
0.18
0.20
0.20
0.25
0.20
0.26
0.26
0.30
0.26
0.33
0.18
0.06
0.20
0.02
0.11
0.01
0.16
0.25
0.35
0.46
0.40
0.35
0.38
0.35
0.35
0.38
0.20
0.16
0.60
0.60
0.75
0.75
0.66
0.62
0.50
0.16
0.20
0.10
0.06
0.02
0.02
0.00
0.01
0.00
0.01
0.02
0.04
0.11
0.11
0.16
0.18
0.30
0.32
0.35
0.41
0.46
0.49
0.48
0.48
0.46
0.35
0.23
0.16
0.04
0.00
0.01
0.01
0.02
0.02
0.02
0.06
0.06
0.06
0.02
0.06
0.02
0.06
0.02
0.02
0.02
0.02
0.02
0.01
0.01
0.02
0.02
0.01
0.02
0.02
0.06
0.02
0.06
0.06
0.02
0.07
0.02
0.06
0.06
0.07
0.02
0.02
0.02
0.07
0.06
0.02
0.00
0.04
0.02
0.07
0.01
0.11
0.01
0.02
0.20
0.33
0.25
0.11
0.18
0.16
0.18
0.26
0.02
0.32
0.63
0.63
0.87
0.79
0.68
0.59
0.30
0.07
0.06
0.02
0.00
0.00
0.00
0.02
0.04
0.11
0.18
0.15
0.15
0.23
0.23
0.32
0.30
0.41
0.40
0.46
0.43
0.48
0.46
0.48
0.40
0.43
0.32
0.18
0.15
0.02
0.04
0.02
0.01
0.02
0.02
0.06
0.01
0.10
0.10
0.11
0.07
0.18
0.07
0.06
0.11
0.06
0.07
0.10
0.10
0.02
0.07
0.16
0.07
0.10
0.10
0.07
0.10
0.11
0.11
0.16
0.11
0.18
0.11
0.18
0.16
0.11
0.16
0.20
0.16
0.06
0.01
0.10
0.01
0.07
0.04
0.02
0.07
0.18
0.42
0.33
0.33
0.26
0.35
0.35
0.38
0.42
0.07
0.57
0.54
0.66
0.81
0.67
0.64
0.59
0.26
0.30
0.20
0.11
0.07
0.07
0.02
0.01
0.02
0.01
0.01
0.01
0.01
0.01
0.00
0.04
0.04
0.15
0.20
0.26
0.32
0.35
0.41
0.40
0.43
0.40
0.32
0.20
0.15
0.01
0.00
0.01
0.06
0.02
0.06
0.07
0.02
0.02
0.06
0.10
0.06
0.06
0.07
0.02
0.02
0.02
0.01
0.02
0.02
0.01
0.06
0.06
0.02
0.02
0.02
0.07
0.06
0.06
0.02
0.11
0.07
0.16
0.07
0.10
0.11
0.10
0.18
0.11
0.11
0.07
0.02
0.01
0.01
0.01
0.11
0.06
0.06
0.10
0.33
0.30
0.25
0.25
0.20
0.25
0.16
0.26
0.26
0.58
0.51
0.71
0.84
0.67
0.64
0.59
0.16
0.06
0.02
0.00
0.00
0.04
0.02
0.14
0.14
0.15
0.15
0.23
0.26
0.35
0.41
0.41
0.48
0.51
0.55
0.58
0.58
0.58
0.59
0.59
0.60
0.55
0.49
0.35
0.18
0.11
0.11
0.01
0.01
0.01
0.01
0.01
0.01
0.01
0.01
0.00
0.00
0.00
0.00
0.00
0.00
0.01
0.02
0.02
0.00
0.01
0.02
0.00
0.01
0.01
0.01
0.01
0.00
0.02
0.02
0.01
0.02
0.06
0.10
0.02
0.02
0.06
0.02
0.01
0.00
0.01
0.04
0.01
0.18
0.01
0.00
0.02
0.26
0.30
0.26
0.20
0.26
0.26
0.26
0.25
0.18
0.48
0.69
0.66
0.85
0.67
0.62
0.60
0.35
0.16
0.10
0.02
0.02
0.01
0.02
0.02
0.00
0.00
0.01
0.01
0.04
0.11
0.14
0.14
0.16
0.16
0.16
0.26
0.35
0.32
0.30
0.35
0.40
0.35
0.23
0.16
0.11
0.01
0.01
0.02
0.02
0.02
0.16
0.07
0.07
0.10
0.10
0.07
0.16
0.11
0.10
0.06
0.06
0.07
0.07
0.06
0.02
0.02
0.02
0.02
0.06
0.07
0.02
0.06
0.10
0.10
0.06
0.10
0.16
0.11
0.18
0.11
0.18
0.07
0.01
0.10
0.00
0.02
0.11
0.00
0.02
0.02
0.16
0.20
0.26
0.18
0.25
0.30
0.26
0.30
0.00
0.43
0.65
0.63
0.79
0.68
0.62
0.62
0.26
0.20
0.07
0.11
0.02
0.01
0.01
0.01
0.00
0.01
0.02
0.04
0.11
0.16
0.16
0.16
0.23
0.26
0.40
0.46
0.49
0.49
0.51
0.54
0.55
0.51
0.43
0.32
0.23
0.14
0.14
0.00
0.01
0.00
0.01
0.02
0.01
0.01
0.01
0.01
0.01
0.01
0.01
0.01
0.00
0.00
0.00
0.01
0.01
0.00
0.00
0.00
0.00
0.01
0.00
0.00
0.00
0.00
0.01
0.02
0.01
0.02
0.01
0.01
0.02
0.02
0.01
0.04
0.01
0.07
0.11
0.16
0.18
0.04
0.04
0.02
0.07
0.11
0.02
0.07
0.10
0.18
0.20
0.18
0.41
0.60
0.48
0.82
0.82
0.69
0.61
0.41
0.02
0.07
0.01
0.01
0.00
0.01
0.02
0.14
0.04
0.16
0.14
0.16
0.23
0.23
0.30
0.30
0.32
0.46
0.48
0.46
0.54
0.51
0.46
0.46
0.43
0.41
0.32
0.18
0.11
0.07
0.01
0.00
0.00
0.02
0.01
0.01
0.01
0.02
0.02
0.06
0.01
0.01
0.01
0.01
0.01
0.02
0.00
0.00
0.00
0.02
0.00
0.01
0.02
0.01
0.06
0.07
0.06
0.07
0.10
0.02
0.11
0.07
0.10
0.16
0.18
0.07
0.10
0.06
0.06
0.01
0.02
0.04
0.00
0.01
0.02
0.20
0.35
0.30
0.20
0.33
0.33
0.30
0.38
0.16
0.20
0.62
0.62
0.78
0.75
0.66
0.62
0.53
0.20
0.18
0.18
0.06
0.02
0.02
0.00
0.01
0.01
0.01
0.01
0.04
0.11
0.15
0.16
0.23
0.23
0.32
0.35
0.46
0.49
0.49
0.51
0.48
0.46
0.46
0.32
0.20
0.15
0.04
0.00
0.01
0.01
0.02
0.01
0.01
0.06
0.02
0.01
0.01
0.01
0.01
0.01
0.00
0.00
0.00
0.00
0.00
0.00
0.00
0.01
0.00
0.00
0.01
0.01
0.00
0.02
0.01
0.01
0.01
0.01
0.02
0.02
0.02
0.01
0.02
0.02
0.02
0.02
0.02
0.00
0.01
0.01
0.15
0.02
0.15
0.01
0.00
0.06
0.18
0.11
0.07
0.07
0.10
0.07
0.10
0.02
0.43
0.61
0.47
0.79
0.82
0.66
0.62
0.46
0.01
0.00
0.01
0.11
0.02
0.07
0.15
0.18
0.18
0.23
0.23
0.30
0.35
0.40
0.48
0.48
0.54
0.57
0.61
0.61
0.61
0.62
0.62
0.62
0.61
0.59
0.51
0.49
0.35
0.26
0.16
0.15
0.07
0.04
0.07
0.02
0.04
0.02
0.01
0.02
0.01
0.02
0.07
0.01
0.04
0.04
0.07
0.07
0.04
0.01
0.07
0.02
0.01
0.01
0.01
0.01
0.01
0.00
0.01
0.02
0.01
0.01
0.01
0.06
0.01
0.02
0.10
0.06
0.02
0.02
0.01
0.01
0.01
0.02
0.00
0.20
0.01
0.00
0.07
0.30
0.26
0.25
0.16
0.25
0.25
0.20
0.25
0.15
0.48
0.68
0.66
0.82
0.67
0.62
0.59
0.18
0.11
0.07
0.10
0.02
0.01
0.01
0.01
0.00
0.00
0.04
0.02
0.15
0.07
0.14
0.14
0.23
0.20
0.41
0.40
0.35
0.43
0.46
0.48
0.41
0.40
0.26
0.26
0.16
0.07
0.02
0.00
0.02
0.02
0.02
0.02
0.07
0.07
0.10
0.07
0.01
0.10
0.07
0.10
0.02
0.02
0.02
0.01
0.01
0.02
0.02
0.01
0.02
0.02
0.02
0.02
0.02
0.06
0.06
0.07
0.06
0.07
0.06
0.11
0.10
0.10
0.10
0.10
0.02
0.02
0.01
0.01
0.01
0.04
0.01
0.01
0.10
0.25
0.20
0.16
0.18
0.25
0.25
0.20
0.26
0.15
0.59
0.02
0.74
0.79
0.67
0.62
0.59
0.16
0.11
0.02
0.02
0.01
0.00
0.00
0.02
0.02
0.04
0.02
0.14
0.15
0.16
0.23
0.26
0.26
0.43
0.48
0.49
0.49
0.54
0.51
0.55
0.51
0.49
0.43
0.32
0.16
0.11
0.01
0.00
0.01
0.01
0.02
0.01
0.02
0.02
0.01
0.01
0.02
0.01
0.02
0.02
0.01
0.01
0.00
0.01
0.01
0.01
0.01
0.01
0.02
0.01
0.02
0.02
0.02
0.07
0.10
0.10
0.07
0.07
0.11
0.10
0.07
0.16
0.07
0.06
0.01
0.07
0.01
0.01
0.15
0.01
0.01
0.01
0.20
0.33
0.26
0.16
0.25
0.20
0.33
0.25
