0.26
0.26
0.29
0.31
0.29
0.26
0.26
0.19
0.15
0.11
0.10
0.02
0.02
0.02
0.07
0.05
0.02
0.05
0.02
0.05
0.05
0.02
0.00
0.02
0.02
0.00
0.00
0.06
0.02
0.02
0.05
0.05
0.00
0.00
0.02
0.02
0.06
0.05
0.02
0.02
0.02
0.06
0.06
0.06
0.06
0.10
0.06
0.07
0.00
0.02
0.00
0.00
0.04
0.04
0.05
0.06
0.15
0.16
0.20
0.10
0.11
0.16
0.15
0.15
0.19
0.00
0.25
0.63
0.64
0.65
0.61
0.64
0.61
0.29
0.20
0.07
0.11
0.06
0.02
0.05
0.02
0.00
0.02
0.02
0.02
0.00
0.00
0.01
0.01
0.01
0.01
0.02
0.01
0.04
0.02
0.01
0.01
0.01
0.00
0.00
0.02
0.06
0.06
0.06
0.02
0.02
0.02
0.02
0.02
0.02
0.00
0.01
0.00
0.00
0.00
0.00
0.00
0.00
0.00
0.00
0.00
0.02
0.00
0.00
0.02
0.00
0.02
0.02
0.02
0.02
0.02
0.02
0.05
0.02
0.00
0.02
0.00
0.02
0.02
0.05
0.02
0.02
0.02
0.00
0.00
0.02
0.01
0.07
0.04
0.15
0.04
0.00
0.02
0.10
0.15
0.11
0.07
0.07
0.07
0.07
0.06
0.02
0.15
0.60
0.71
0.75
0.90
0.77
0.66
0.54
0.06
0.00
0.01
0.02
0.07
0.04
0.10
0.11
0.13
0.15
0.19
0.19
0.24
0.29
0.36
0.36
0.42
0.45
0.49
0.52
0.54
0.54
0.50
0.52
0.45
0.42
0.33
0.15
0.10
0.02
0.01
0.00
0.01
0.04
0.02
0.04
0.04
0.04
0.04
0.04
0.01
0.01
0.02
0.04
0.02
0.02
0.04
0.02
0.04
0.04
0.04
0.04
0.10
0.04
0.04
0.07
0.07
0.07
0.04
0.04
0.04
0.04
0.04
0.02
0.02
0.02
0.01
0.02
0.01
0.02
0.04
0.11
0.04
0.15
0.11
0.24
0.10
0.02
0.00
0.07
0.07
0.06
0.02
0.05
0.06
0.07
0.05
0.02
0.44
0.63
0.00
0.89
0.90
0.65
0.62
0.45
0.06
0.00
0.00
0.01
0.04
0.04
0.10
0.10
0.11
0.14
0.14
0.14
0.19
0.21
0.25
0.29
0.36
0.36
0.38
0.39
0.39
0.39
0.38
0.29
0.29
0.19
0.11
0.04
0.01
0.00
0.00
0.00
0.01
0.02
0.01
0.04
0.04
0.04
0.02
0.04
0.02
0.02
0.04
0.01
0.04
0.04
0.10
0.07
0.10
0.10
0.10
0.07
0.07
0.07
0.04
0.10
0.04
0.04
0.02
0.04
0.01
0.04
0.01
0.01
0.00
0.01
0.01
0.00
0.00
0.00
0.00
0.01
0.00
0.00
0.01
0.01
0.02
0.11
0.04
0.13
0.14
0.15
0.07
0.01
0.02
0.06
0.07
0.05
0.02
0.05
0.02
0.02
0.02
0.00
0.50
0.68
0.54
0.87
0.85
0.66
0.59
0.29
0.02
0.00
0.01
0.04
0.04
0.04
0.11
0.10
0.11
0.13
0.13
0.15
0.19
0.19
0.25
0.24
0.26
0.33
0.36
0.38
0.26
0.29
0.25
0.19
0.15
0.11
0.04
0.00
0.00
0.02
0.02
0.00
0.00
0.00
0.02
0.02
0.01
0.04
0.04
0.02
0.01
0.02
0.01
0.02
0.01
0.02
0.02
0.01
0.02
0.02
0.02
0.02
0.01
0.00
0.02
0.02
0.00
0.00
0.01
0.00
0.00
0.00
0.00
0.00
0.02
0.00
0.00
0.00
0.00
0.00
0.02
0.02
0.02
0.02
0.02
0.02
0.00
0.02
0.00
0.02
0.11
0.10
0.00
0.00
0.10
0.15
0.15
0.15
0.15
0.11
0.15
0.11
0.16
0.15
0.15
0.61
0.20
0.63
0.63
0.60
0.61
0.39
0.15
0.15
0.11
0.10
0.07
0.05
0.02
0.00
0.02
0.02
0.02
0.00
0.02
0.02
0.02
0.02
0.06
0.05
0.05
0.05
0.11
0.11
0.16
0.15
0.15
0.16
0.19
0.16
0.19
0.15
0.10
0.05
0.05
0.05
0.02
0.00
0.02
0.00
0.00
0.02
0.02
0.02
0.02
0.05
0.02
0.05
0.02
0.02
0.02
0.02
0.05
0.05
0.02
0.02
0.02
0.00
0.02
0.02
0.02
0.02
0.00
0.02
0.02
0.02
0.02
0.02
0.02
0.02
0.02
0.02
0.05
0.00
0.01
0.01
0.04
0.01
0.13
0.04
0.00
0.02
0.15
0.15
0.15
0.11
0.06
0.10
0.11
0.10
0.15
0.24
0.61
0.45
0.79
0.83
0.66
0.64
0.55
0.05
0.06
0.00
0.00
0.01
0.04
0.04
0.10
0.11
0.11
0.14
0.19
0.19
0.26
0.26
0.36
0.42
0.45
0.53
0.53
0.54
0.54
0.53
0.49
0.44
0.38
0.24
0.11
0.10
0.01
0.01
0.01
0.02
0.01
0.02
0.04
0.02
0.04
0.04
0.04
0.04
0.04
0.04
0.07
0.04
0.11
0.07
0.11
0.10
0.11
0.07
0.10
0.07
0.07
0.10
0.04
0.04
0.04
0.02
0.02
0.02
0.01
0.01
0.01
0.02
0.02
0.01
0.01
0.01
0.01
0.01
0.01
0.00
0.02
0.10
0.10
0.15
0.13
0.25
0.13
0.07
0.01
0.02
0.05
0.06
0.02
0.05
0.05
0.02
0.02
0.00
0.29
0.61
0.70
0.83
0.89
0.67
0.62
0.52
0.00
0.00
0.01
0.04
0.04
0.07
0.11
0.11
0.10
0.13
0.19
0.14
0.21
0.29
0.33
0.36
0.38
0.42
0.42
0.47
0.45
0.50
0.44
0.42
0.42
0.26
0.15
0.11
0.02
0.02
0.05
0.00
0.00
0.00
0.01
0.01
0.02
0.02
0.02
0.02
0.04
0.02
0.02
0.04
0.02
0.04
0.04
0.04
0.04
0.04
0.04
0.04
0.04
0.02
0.04
0.02
0.01
0.01
0.01
0.00
0.01
0.00
0.00
0.00
0.00
0.00
0.00
0.01
0.00
0.00
0.00
0.00
0.01
0.01
0.01
0.04
0.10
0.07
0.14
0.14
0.26
0.10
0.04
0.00
0.07
0.06
0.07
0.02
0.02
0.05
0.02
0.02
0.02
0.44
0.63
0.11
0.87
0.89
0.63
0.62
0.49
0.02
0.02
0.00
0.02
0.04
0.04
0.10
0.07
0.11
0.11
0.13
0.15
0.19
0.24
0.24
0.21
0.33
0.33
0.36
0.38
0.38
0.36
0.29
0.26
0.19
0.15
0.07
0.01
0.02
0.05
0.06
0.02
0.00
0.00
0.00
0.01
0.00
0.01
0.00
0.01
0.00
0.00
0.01
0.00
0.01
0.01
0.02
0.00
0.01
0.04
0.01
0.02
0.04
0.01
0.01
0.02
0.01
0.01
0.02
0.00
0.00
0.01
0.01
0.01
0.00
0.01
0.00
0.00
0.01
0.00
0.00
0.02
0.00
0.00
0.00
0.00
0.02
0.00
0.01
0.04
0.02
0.10
0.19
0.14
0.04
0.02
0.05
0.10
0.11
0.06
0.06
0.07
0.06
0.10
0.06
0.07
0.50
0.73
0.65
0.86
0.71
0.62
0.58
0.07
0.10
0.05
0.02
0.00
0.01
0.01
0.02
0.02
0.02
0.10
0.07
0.13
0.11
0.14
0.15
0.15
0.25
0.21
0.21
0.24
0.19
0.19
0.11
0.04
0.04
0.00
0.07
0.10
0.15
0.16
0.07
0.10
0.06
0.02
0.00
0.00
0.01
0.00
0.00
0.01
0.00
0.00
0.00
0.01
0.00
0.00
0.00
0.00
0.00
0.00
0.00
0.00
0.00
0.00
0.00
0.02
0.02
0.00
0.00
0.05
0.02
0.02
0.06
0.07
0.07
0.06
0.06
0.07
0.11
0.11
0.10
0.02
0.02
0.00
0.02
0.10
0.04
0.00
0.05
0.16
0.15
0.16
0.15
0.15
0.15
0.15
0.16
0.31
0.11
0.45
0.21
0.62
0.61
0.61
0.61
0.56
0.15
0.26
0.19
0.15
0.15
0.15
0.15
0.11
0.15
0.11
0.15
0.10
0.10
0.15
0.11
0.15
0.15
0.16
0.19
0.20
0.23
0.23
0.33
0.33
0.29
0.33
0.27
0.33
0.29
0.26
0.16
0.15
0.15
0.11
0.05
0.06
0.02
0.02
0.02
0.02
0.00
0.02
0.02
0.02
0.05
0.05
0.02
0.05
0.05
0.05
0.05
0.06
0.06
0.02
0.02
0.02
0.05
0.05
0.02
0.06
0.05
0.05
0.02
0.07
0.06
0.02
0.06
0.05
0.06
0.05
0.05
0.06
0.00
0.00
0.04
0.10
0.14
0.07
0.04
0.00
0.07
0.06
0.06
0.11
0.11
0.15
0.11
0.15
0.11
0.15
0.55
0.05
0.77
0.75
0.66
0.62
0.51
0.11
0.11
0.02
0.02
0.00
0.01
0.00
0.04
0.04
0.07
0.11
0.14
0.15
0.19
0.24
0.36
0.38
0.44
0.44
0.50
0.52
0.53
0.49
0.47
0.42
0.36
0.19
0.10
0.01
0.00
0.02
0.02
0.02
0.02
0.00
0.00
0.01
0.00
0.00
0.01
0.00
0.00
0.00
0.00
0.01
0.00
0.00
0.01
0.00
0.00
0.01
0.01
0.00
0.01
0.00
0.01
0.00
0.00
0.00
0.00
0.00
0.00
0.00
0.01
0.00
0.00
0.02
0.00
0.00
0.00
0.02
0.01
0.04
0.07
0.11
0.15
0.25
0.11
0.10
0.04
0.02
0.05
0.02
0.05
0.05
0.02
0.05
0.06
0.02
0.44
0.57
0.16
0.89
0.89
0.68
0.62
0.41
0.02
0.00
0.01
0.02
0.02
0.07
0.10
0.11
0.13
0.11
0.14
0.21
0.25
0.26
0.33
0.36
0.39
0.47
0.49
0.52
0.50
0.50
0.45
0.45
0.36
0.33
0.14
0.07
0.01
0.00
0.00
0.00
0.00
0.01
0.00
0.01
0.02
0.04
0.01
0.01
0.01
0.01
0.00
0.01
0.01
0.01
0.01
0.01
0.02
0.02
0.04
0.02
0.04
0.02
0.04
0.04
0.02
0.02
0.01
0.01
0.02
0.01
0.00
0.01
0.00
0.01
0.00
0.00
0.00
0.02
0.00
0.00
0.01
0.01
0.01
0.10
0.13
0.14
0.10
0.04
0.02
0.11
0.10
0.10
0.06
0.10
0.10
0.07
0.15
0.10
0.39
0.57
0.45
0.88
0.88
0.68
0.61
0.49
0.06
0.10
0.05
0.00
0.00
0.01
0.01
0.02
0.04
0.07
0.11
0.11
0.13
0.14
0.19
0.19
0.25
0.26
0.33
0.33
0.29
0.29
0.24
0.21
0.13
0.04
0.01
0.00
0.06
0.11
0.15
0.06
0.05
0.02
0.02
0.00
0.00
0.00
0.00
0.00
0.00
0.00
0.02
0.06
0.02
0.00
0.02
0.05
0.06
0.07
0.00
0.00
0.02
0.02
0.06
0.06
0.07
0.05
0.02
0.05
0.02
0.07
0.02
0.05
0.02
0.02
0.06
0.06
0.05
0.05
0.05
0.02
0.00
0.02
0.02
0.04
0.13
0.04
0.10
0.00
0.06
0.07
0.16
0.15
0.16
0.19
0.16
0.19
0.26
0.04
0.39
0.64
0.61
0.65
0.61
0.62
0.60
0.16
0.20
0.15
0.15
0.07
0.07
0.07
0.10
0.02
0.02
0.05
0.02
0.07
0.00
0.02
0.00
0.02
0.05
0.05
0.05
0.06
0.06
0.11
0.15
0.15
0.15
0.19
0.16
0.16
0.15
0.15
0.10
0.06
0.06
0.02
0.02
0.02
0.00
0.00
0.01
0.00
0.01
0.00
0.00
0.00
0.00
0.00
0.00
0.02
0.00
0.00
0.00
0.02
0.02
0.00
0.02
0.02
0.02
0.02
0.02
0.02
0.05
0.02
0.02
0.02
0.02
0.05
0.05
0.05
0.02
0.00
0.01
0.02
0.10
0.14
0.15
0.10
0.04
0.01
0.05
0.05
0.06
0.11
0.07
0.10
0.10
0.15
0.05
0.25
0.53
0.02
0.89
0.89
0.71
0.64
0.51
0.06
0.07
0.00
0.01
0.01
0.02
0.04
0.04
0.11
0.13
0.13
0.15
0.19
0.25
0.33
0.38
0.42
0.45
0.50
0.53
0.53
0.57
0.53
0.50
0.44
0.38
0.19
0.11
0.02
0.00
0.02
0.02
0.00
0.00
0.00
0.00
0.00
0.01
0.01
0.00
0.00
0.01
0.00
0.01
0.00
0.01
0.01
0.01
0.01
0.01
0.01
0.01
0.00
0.01
0.00
0.01
0.00
0.00
0.00
0.00
0.00
0.00
0.00
0.02
0.02
0.02
0.02
0.00
0.01
0.01
0.04
0.14
0.11
0.07
0.01
0.00
0.10
0.10
0.07
0.10
0.07
0.10
0.15
0.11
0.02
0.44
0.67
0.64
0.90
0.89
0.73
0.61
0.36
0.02
0.05
0.02
0.01
0.01
0.02
0.10
0.07
0.07
0.11
0.11
0.14
0.15
0.19
0.24
0.26
0.29
0.38
0.42
0.44
0.39
0.39
0.36
0.29
0.21
0.15
0.02
0.00
0.06
0.06
0.07
0.05
0.02
0.00
0.00
0.00
0.00
0.00
0.00
0.00
0.00
0.02
0.02
0.02
0.00
0.02
0.02
0.00
0.02
0.00
0.00
0.00
0.00
0.00
0.00
0.00
0.02
0.05
0.05
0.06
0.05
0.05
0.05
0.05
0.06
0.07
0.07
0.06
0.07
0.06
0.00
0.00
0.04
0.07
0.11
0.04
0.00
0.05
0.15
0.15
0.16
0.11
0.16
0.15
0.16
0.19
0.23
0.29
0.58
0.00
0.89
0.89
0.71
0.63
0.56
0.11
0.15
0.07
0.05
0.06
0.02
0.02
0.00
0.01
0.00
0.00
0.01
0.00
0.01
0.01
0.02
0.02
0.00
0.02
0.04
0.02
0.00
0.01
0.00
0.00
0.07
0.15
0.16
0.20
0.27
0.23
0.20
0.15
0.11
0.10
0.10
0.07
0.05
0.02
0.00
0.02
0.06
0.02
0.02
0.02
0.00
0.02
0.02
0.00
0.00
0.15
0.27
0.10
0.05
0.36
0.61
0.63
0.26
0.88
0.93
0.96
0.98
0.98
0.99
0.98
0.92
0.64
0.44
0.02
0.23
0.33
0.37
0.41
0.49
0.45
0.49
0.56
0.57
0.61
0.64
0.64
0.61
0.61
0.61
0.65
0.71
0.73
0.75
0.73
0.70
0.63
0.61
0.64
0.61
0.53
0.44
0.26
0.10
0.06
0.05
0.02
0.02
0.00
0.00
0.00
0.00
0.00
0.00
0.01
0.01
0.00
0.00
0.00
0.00
0.00
0.02
0.00
0.00
0.02
0.01
0.00
0.00
0.00
0.00
0.01
0.00
0.00
0.01
0.01
0.01
0.01
0.01
0.00
0.01
0.01
0.01
0.00
0.00
0.01
0.01
0.00
0.00
0.00
0.01
0.00
0.01
0.00
0.01
0.01
0.01
0.01
0.01
0.01
0.02
0.01
0.02
0.02
0.02
0.01
0.02
0.01
0.01
0.04
0.02
0.01
0.02
0.02
0.02
0.10
0.11
0.14
0.19
0.38
0.19
0.21
0.10
0.00
0.01
0.05
0.00
0.00
0.00
0.02
0.02
0.02
0.49
0.79
0.59
0.86
0.84
0.66
0.56
0.07
0.00
0.00
0.04
0.04
0.11
0.14
0.15
0.15
0.21
0.24
0.25
0.36
0.33
0.36
0.38
0.39
0.44
0.47
0.47
0.47
0.52
0.50
0.52
0.53
0.50
0.45
0.38
0.26
0.14
0.10
0.01
0.01
0.00
0.04
0.07
0.10
0.10
0.13
0.10
0.11
0.11
0.11
0.13
0.07
0.11
0.11
0.14
0.14
0.14
0.15
0.15
0.15
0.21
0.15
0.15
0.13
0.00
0.36
0.58
0.63
0.54
0.45
0.93
0.99
1.00
1.00
1.00
1.00
0.98
0.98
1.00
1.00
0.98
0.86
0.19
0.35
0.56
0.59
0.61
0.64
0.64
0.62
0.61
0.62
0.63
0.68
0.75
0.78
0.86
0.89
0.92
0.94
0.95
0.95
0.95
0.95
0.95
0.93
0.89
0.80
0.66
0.62
0.61
0.55
0.39
0.20
0.11
0.10
0.05
0.05
0.06
0.05
0.00
0.00
0.00
0.05
0.06
0.00
0.02
0.02
0.05
0.02
0.02
0.02
0.02
0.00
0.00
0.00
0.00
0.00
0.00
0.02
0.02
0.00
0.00
0.00
0.00
0.00
0.00
0.01
0.00
0.00
0.00
0.02
0.02
0.00
0.05
0.00
0.02
0.00
0.02
0.02
0.00
0.02
0.02
0.00
0.05
0.02
0.02
0.05
0.00
0.05
0.01
0.00
0.01
0.02
0.19
0.13
0.14
0.04
0.02
0.02
0.05
0.07
0.06
0.11
0.11
0.11
0.27
0.10
0.52
0.19
0.62
0.62
0.61
0.62
0.54
0.10
0.15
0.06
0.02
0.00
0.00
0.01
0.02
0.04
0.04
0.07
0.07
0.11
0.11
0.11
0.13
0.14
0.14
0.19
0.21
0.29
0.33
0.33
0.36
0.36
0.36
0.33
0.19
0.10
0.01
0.01
0.00
0.00
0.00
0.01
0.01
0.01
0.04
0.02
0.04
0.02
0.02
0.04
0.02
0.04
0.04
0.04
0.04
0.02
0.02
0.04
0.04
0.01
0.02
0.01
0.01
0.02
0.01
0.01
0.01
0.01
0.00
0.01
0.00
0.04
0.04
0.11
0.15
0.25
0.10
0.11
0.01
0.05
0.00
0.05
0.02
0.05
0.06
0.05
0.07
0.00
0.50
0.68
0.63
0.90
0.89
0.73
0.61
0.27
0.00
0.00
0.02
0.04
0.07
0.10
0.11
0.13
0.19
0.19
0.21
0.21
0.26
0.38
0.39
0.44
0.50
0.52
0.55
0.58
0.60
0.58
0.57
0.53
0.47
0.38
0.19
0.10
0.00
0.00
0.02
0.02
0.00
0.00
0.00
0.00
0.01
0.00
0.01
0.00
0.00
0.00
0.00
0.01
0.00
0.01
0.01
0.01
0.01
0.01
0.01
0.02
0.01
0.01
0.01
0.04
0.01
0.02
0.01
0.01
0.02
0.01
0.01
0.04
0.04
0.11
0.14
0.25
0.11
0.10
0.02
0.06
0.02
0.06
0.02
0.06
0.05
0.10
0.10
0.06
0.38
0.60
0.04
0.89
0.91
0.70
0.64
0.49
0.07
0.10
0.02
0.00
0.00
0.00
0.00
0.00
0.00
0.01
0.01
0.01
0.01
0.01
0.01
0.02
0.01
0.02
0.00
0.00
0.00
0.07
0.15
0.27
0.36
0.47
0.55
0.59
0.61
0.61
0.62
0.62
0.62
0.61
0.63
0.62
0.62
0.63
0.63
0.64
0.64
0.64
0.64
0.64
0.64
0.64
0.64
0.64
0.64
0.64
0.64
0.64
0.64
0.64
0.64
0.64
0.64
0.64
0.64
0.64
0.64
0.64
0.64
0.64
0.62
0.62
0.62
0.61
0.61
0.60
0.60
0.57
0.57
0.51
0.54
0.55
0.57
0.59
0.58
0.57
0.52
0.51
0.50
0.47
0.39
0.36
0.04
0.44
0.60
0.87
0.90
0.67
0.61
0.56
0.06
0.11
0.02
0.00
0.02
0.02
0.01
0.04
0.04
0.07
0.11
0.11
0.11
0.11
0.19
0.15
0.21
0.15
0.19
0.15
0.15
0.14
0.13
0.04
0.01
0.00
0.02
0.05
0.07
0.10
0.10
0.07
0.02
0.02
0.00
0.01
0.01
0.01
0.00
0.02
0.01
0.01
0.01
0.00
0.01
0.01
0.01
0.01
0.02
0.01
0.01
0.01
0.00
0.04
0.01
0.01
0.01
0.00
0.00
0.01
0.01
0.00
0.00
0.00
0.00
0.00
0.00
0.00
0.00
0.04
0.01
0.10
0.04
0.24
0.11
0.10
0.00
0.11
0.10
0.07
0.02
0.02
0.06
0.05
0.10
0.15
0.19
0.57
0.70
0.61
0.66
0.62
0.62
0.57
0.02
0.15
0.10
0.00
0.02
0.00
0.00
0.00
0.00
0.00
0.00
0.00
0.00
0.01
0.00
0.00
0.00
0.01
0.00
0.00
0.05
0.02
0.02
0.05
0.11
0.06
0.07
0.06
0.02
0.02
0.00
0.00
0.00
0.01
0.01
0.01
0.02
0.04
0.04
0.04
0.07
0.04
0.07
0.02
0.04
0.04
0.07
0.02
0.07
0.04
0.04
0.04
0.04
0.02
0.02
0.02
0.04
0.04
0.04
0.04
0.01
0.04
0.02
0.02
0.04
0.02
0.07
0.11
0.11
0.14
0.15
0.26
0.19
0.13
0.10
0.00
0.00
0.00
0.00
0.00
0.00
0.00
0.00
0.00
0.19
0.60
0.71
0.62
0.80
0.68
0.61
0.57
0.00
0.04
0.10
0.07
0.11
0.13
0.19
0.19
0.24
0.24
0.24
0.29
0.36
0.39
0.44
0.44
0.49
0.53
0.57
0.58
0.60
0.58
0.57
0.57
0.54
0.49
0.44
0.25
0.15
0.11
0.11
0.11
0.10
0.11
0.11
0.11
0.14
0.14
0.13
0.14
0.14
0.13
0.14
0.15
0.14
0.14
0.15
0.15
0.19
0.15
0.19
0.14
0.15
0.15
0.14
0.15
0.14
0.13
0.13
0.13
0.11
0.13
0.11
0.10
0.11
0.10
0.10
0.10
0.10
0.04
0.10
0.14
0.15
0.19
0.21
0.29
0.21
0.14
0.11
0.00
0.00
0.02
0.00
0.02
0.00
0.00
0.01
0.02
0.15
0.63
0.75
0.61
0.89
0.83
0.66
0.53
0.02
0.07
0.10
0.11
0.19
0.15
0.21
0.24
0.26
0.29
0.33
0.26
0.38
0.38
0.42
0.45
0.47
0.50
0.53
0.53
0.55
0.53
0.53
0.49
0.44
0.36
0.25
0.14
0.07
0.01
0.02
0.01
0.04
0.04
0.10
0.10
0.11
0.11
0.13
0.11
0.11
0.11
0.11
0.13
0.11
0.11
0.13
0.14
0.13
0.14
0.13
0.13
0.13
0.14
0.14
0.11
0.11
0.11
0.11
0.11
0.11
0.10
0.11
0.04
0.07
0.10
0.04
0.07
0.04
0.04
0.04
0.02
0.04
0.04
0.04
0.04
0.02
0.07
0.13
0.10
0.15
0.13
0.25
0.13
0.10
0.02
0.00
0.02
0.05
0.00
0.00
0.00
0.00
0.01
0.00
0.45
0.61
0.64
0.83
0.89
0.61
0.64
0.44
0.01
0.00
0.02
0.04
0.10
0.11
0.13
0.11
0.14
0.15
0.19
0.25
0.26
0.25
0.29
0.36
0.36
0.38
0.42
0.38
0.39
0.33
0.36
0.25
0.19
0.11
0.04
0.01
0.00
0.00
0.00
0.00
0.00
0.01
0.02
0.04
0.04
0.04
0.02
0.02
0.02
0.01
0.02
0.04
0.01
0.02
0.01
0.01
0.02
0.02
0.01
0.01
0.02
0.01
0.01
0.01
0.00
0.01
0.00
0.00
0.00
0.00
0.02
0.00
0.02
0.00
0.00
0.05
0.05
0.02
0.05
0.06
0.06
0.02
0.10
0.06
0.05
0.02
0.00
0.00
0.00
0.01
0.11
0.11
0.01
0.00
0.11
0.15
0.15
0.07
0.10
0.07
0.11
0.06
0.11
0.02
0.25
0.66
0.33
0.66
0.63
0.61
0.61
0.36
0.15
0.10
0.10
0.02
0.00
0.00
0.00
0.00
0.00
0.00
0.00
0.00
0.00
0.00
0.00
0.02
0.02
0.02
0.02
0.02
0.06
0.06
0.11
0.15
0.15
0.16
0.16
0.15
0.19
0.16
0.07
0.05
0.02
0.02
0.00
0.02
0.02
0.00
0.01
0.00
0.00
0.00
0.02
0.00
0.00
0.00
0.02
0.02
0.02
0.00
0.00
0.00
0.00
0.02
0.00
0.00
0.02
0.02
0.00
0.02
0.05
0.02
0.02
0.02
0.02
0.02
0.02
0.05
0.05
0.02
0.06
0.05
0.02
0.02
0.00
0.02
0.01
0.04
0.01
0.14
0.04
0.01
0.02
0.11
0.10
0.11
0.07
0.10
0.10
0.11
0.11
0.11
0.24
0.61
0.49
0.73
0.78
0.65
0.63
0.58
0.07
0.07
0.02
0.00
0.01
0.01
0.04
0.04
0.04
0.10
0.11
0.13
0.15
0.19
0.21
0.26
0.36
0.38
0.42
0.44
0.47
0.44
0.45
0.44
0.38
0.29
0.15
0.10
0.02
0.00
0.02
0.02
0.00
0.02
0.00
0.00
0.00
0.00
0.01
0.01
0.01
0.01
0.01
0.01
0.00
0.02
0.02
0.02
0.01
0.01
0.00
0.01
0.01
0.01
0.00
0.00
0.00
0.00
0.00
0.00
0.02
0.02
0.00
0.02
0.00
0.00
0.00
0.02
0.02
0.00
0.02
0.00
0.00
0.00
0.00
0.00
0.00
0.04
0.04
0.10
0.11
0.19
0.11
0.04
0.00
0.05
0.10
0.07
0.06
0.02
0.06
0.05
0.06
0.05
0.11
0.57
0.71
0.62
0.89
0.82
0.68
0.59
0.16
0.02
0.02
0.00
0.01
0.02
0.04
0.10
0.10
0.11
0.14
0.14
0.19
0.24
0.25
0.33
0.36
0.44
0.44
0.45
0.44
0.45
0.45
0.42
0.36
0.26
0.19
0.10
0.01
0.00
0.02
0.02
0.02
0.00
0.00
0.01
0.01
0.01
0.01
0.02
0.01
0.01
0.01
0.01
0.00
0.01
0.01
0.02
0.01
0.02
0.04
0.04
0.04
0.04
0.02
0.02
0.04
0.02
0.04
0.02
0.01
0.01
0.01
0.02
0.01
0.01
0.01
0.00
0.00
0.00
0.00
0.00
0.00
0.00
0.02
0.00
0.02
0.00
0.00
0.02
0.02
0.02
0.04
0.04
0.19
0.07
0.02
0.00
0.10
0.11
0.10
0.11
0.02
0.10
0.10
0.02
0.06
0.21
0.53
0.72
0.76
0.87
0.65
0.61
0.56
0.06
0.07
0.02
0.00
0.00
0.00
0.01
0.02
0.01
0.02
0.02
0.07
0.07
0.13
0.11
0.14
0.15
0.19
0.25
0.26
0.26
0.24
0.21
0.14
0.14
0.10
0.02
0.00
0.05
0.10
0.05
0.07
0.05
0.02
0.00
0.01
0.02
0.01
0.02
0.01
0.00
0.01
0.00
0.01
0.01
0.01
0.00
0.00
0.01
0.00
0.02
0.01
0.01
0.01
0.02
0.00
0.00
0.00
0.02
0.00
0.02
0.00
0.05
0.02
0.05
0.00
0.02
0.02
0.02
0.02
0.02
0.02
0.02
0.02
0.02
0.02
0.02
0.02
0.02
0.02
0.00
0.01
0.00
0.07
0.10
0.11
0.02
0.00
0.07
0.15
0.15
0.15
0.11
0.07
0.11
0.11
0.15
0.20
0.21
0.53
0.29
0.65
0.65
0.60
0.61
0.51
0.11
0.15
0.15
0.10
0.06
0.07
0.02
0.05
0.02
0.02
0.02
0.02
0.05
0.02
0.02
0.02
0.06
0.02
0.06
0.11
0.10
0.16
0.20
0.27
0.27
0.19
0.23
0.26
0.26
0.26
0.20
0.16
0.15
0.11
0.06
0.06
0.10
0.02
0.05
0.06
0.07
0.05
0.07
0.07
0.05
0.02
0.05
0.07
0.05
0.05
0.06
0.06
0.06
0.02
0.06
0.05
0.05
0.05
0.06
0.07
0.07
0.05
0.07
0.07
0.10
0.06
0.07
0.06
0.06
0.07
0.07
0.10
0.05
0.01
0.00
0.07
0.01
0.14
0.04
0.04
0.01
0.07
0.07
0.11
0.06
0.10
0.06
0.10
0.05
0.11
0.15
0.54
0.67
0.65
0.76
0.66
0.63
0.59
0.11
0.11
0.02
0.02
0.00
0.01
0.01
0.02
0.02
0.04
0.10
0.10
0.11
0.14
0.19
0.21
0.24
0.33
0.39
0.39
0.44
0.45
0.45
0.39
0.39
0.29
0.19
0.07
0.01
0.00
0.00
0.00
0.00
0.00
0.00
0.04
0.02
0.01
0.04
0.01
0.02
0.02
0.04
0.04
0.02
0.04
0.04
0.04
0.04
0.07
0.04
0.04
0.04
0.02
0.04
0.01
0.04
0.01
0.01
0.02
0.01
0.01
0.01
0.01
0.00
0.01
0.01
0.01
0.00
0.01
0.01
0.01
0.01
0.01
0.11
0.07
0.15
0.14
0.25
0.14
0.10
0.02
0.02
0.02
0.05
0.02
0.02
0.05
0.02
0.02
0.02
0.49
0.63
0.23
0.87
0.89
0.64
0.62
0.44
0.00
0.00
0.01
0.07
0.04
0.11
0.11
0.13
0.13
0.15
0.19
0.19
0.24
0.29
0.36
0.38
0.42
0.45
0.47
0.50
0.50
0.49
0.47
0.42
0.38
0.29
0.15
0.04
0.00
0.00
0.00
0.00
0.00
0.01
0.00
0.02
0.02
0.01
0.02
0.02
0.01
0.01
0.01
0.02
0.04
0.04
0.04
0.02
0.04
0.04
0.07
0.07
0.04
0.07
0.04
0.04
0.07
0.04
0.01
0.01
0.02
0.00
0.01
0.01
0.01
0.00
0.00
0.00
0.00
0.00
0.00
0.00
0.02
0.00
0.02
0.04
0.04
0.13
0.15
0.19
0.04
0.01
0.02
0.11
0.07
0.07
0.05
0.06
0.06
0.10
0.10
0.06
0.44
0.63
0.53
0.87
0.86
0.65
0.61
0.37
0.07
0.07
0.02
0.01
0.00
0.01
0.04
0.04
0.02
0.07
0.11
0.11
0.13
0.15
0.19
0.21
0.25
0.29
0.29
0.33
0.25
0.26
0.26
0.19
0.15
0.10
0.04
0.00
0.02
0.02
0.05
0.02
0.02
0.00
0.01
0.01
0.04
0.04
0.04
0.04
0.01
0.04
0.04
0.01
0.02
0.01
0.02
0.01
0.04
0.01
0.01
0.02
0.01
0.01
0.00
0.00
0.00
0.01
0.00
0.00
0.00
0.00
0.00
0.00
0.00
0.02
0.00
0.00
0.02
0.00
0.00
0.00
0.00
0.01
0.04
0.10
0.04
0.19
0.10
0.01
0.00
0.07
0.10
0.07
0.10
0.07
0.10
0.06
0.07
0.11
0.15
0.50
0.73
0.63
0.75
0.61
0.64
0.58
0.10
0.16
0.15
0.07
0.05
0.05
0.05
0.05
0.05
0.05
0.02
0.02
0.02
0.00
0.05
0.00
0.02
0.05
0.07
0.07
0.07
0.15
0.16
0.23
0.16
0.23
0.23
0.27
0.27
0.26
0.16
0.11
0.07
0.11
0.06
0.02
0.05
0.00
0.00
0.00
0.02
0.02
0.02
0.00
0.00
0.00
0.02
0.02
0.00
0.02
0.02
0.02
0.05
0.02
0.00
0.02
0.02
0.05
0.05
0.07
0.05
0.02
0.07
0.06
0.06
0.05
0.07
0.10
0.05
0.05
0.00
0.00
0.00
0.01
0.15
0.11
0.04
0.02
0.05
0.07
0.15
0.07
0.11
0.15
0.10
0.11
0.16
0.04
0.39
0.67
0.62
0.68
0.62
0.64
0.61
0.23
0.11
0.07
0.05
0.02
0.02
0.00
0.01
0.00
0.01
0.01
0.02
0.04
0.07
0.11
0.11
0.15
0.19
0.21
0.21
0.33
0.29
0.29
0.25
0.21
0.15
0.11
0.04
0.00
0.02
0.05
0.00
0.02
0.00
0.00
0.01
0.01
0.02
0.01
0.04
0.04
0.04
0.02
0.01
0.02
0.04
0.01
0.02
0.01
0.01
0.00
0.01
0.00
0.00
0.00
0.00
0.00
0.00
0.00
0.00
0.00
0.00
0.00
0.02
0.05
0.00
0.00
0.02
0.00
0.00
0.02
0.00
0.07
0.04
0.13
0.11
0.19
0.11
0.04
0.01
0.05
0.07
0.07
0.07
0.06
0.06
0.06
0.15
0.06
0.39
0.61
0.51
0.89
0.89
0.71
0.62
0.41
0.05
0.00
0.00
0.01
0.01
0.07
0.04
0.10
0.10
0.11
0.14
0.14
0.19
0.21
0.26
0.36
0.33
0.38
0.44
0.44
0.44
0.45
0.42
0.42
0.36
0.24
0.14
0.04
0.00
0.02
0.02
0.02
0.00
0.00
0.01
0.02
0.04
0.01
0.01
0.01
0.02
0.01
0.01
0.01
0.01
0.01
0.01
0.04
0.01
0.01
0.01
0.01
0.01
0.01
0.02
0.01
0.00
0.00
0.02
0.00
0.00
0.00
0.00
0.02
0.00
0.00
0.02
0.00
0.00
0.02
0.00
0.00
0.01
0.04
0.02
0.13
0.11
0.19
0.04
0.04
0.05
0.10
0.07
0.10
0.07
0.06
0.07
0.10
0.07
0.06
0.42
0.60
0.00
0.87
0.87
0.64
0.61
0.36
0.02
0.06
0.00
0.02
0.01
0.07
0.04
0.04
0.10
0.11
0.13
0.11
0.15
0.19
0.21
0.21
0.25
0.26
0.26
0.33
0.33
0.33
0.24
0.21
0.14
0.10
0.07
0.01
0.02
0.05
0.02
0.02
0.00
0.00
0.01
0.02
0.01
0.01
0.01
0.01
0.00
0.01
0.00
0.00
0.01
0.01
0.00
0.01
0.00
0.01
0.01
0.01
0.00
0.00
0.00
0.00
0.00
0.00
0.00
0.00
0.00
0.00
0.00
0.00
0.02
0.02
0.05
0.00
0.02
0.00
0.05
0.02
0.02
0.00
0.02
0.00
0.02
0.01
0.04
0.04
0.15
0.11
0.02
0.00
0.15
0.15
0.15
0.11
0.11
0.06
0.15
0.11
0.11
0.04
0.44
0.73
0.62
0.83
0.66
0.62
0.58
0.19
0.15
0.11
0.06
0.02
0.02
0.00
0.00
0.00
0.01
0.02
0.01
0.04
0.01
0.04
0.02
0.04
0.01
0.02
0.01
0.01
0.02
0.02
0.07
0.06
0.11
0.19
0.15
0.20
0.23
0.16
0.15
0.10
0.06
0.05
0.02
0.05
0.00
0.00
0.00
0.02
0.02
0.02
0.02
0.02
0.06
0.02
0.02
0.02
0.05
0.02
0.05
0.02
0.02
0.02
0.05
0.02
0.06
0.05
0.05
0.10
0.06
0.07
0.06
0.05
0.02
0.05
0.07
0.02
0.07
0.05
0.06
0.05
0.00
0.00
0.00
0.01
0.11
0.10
0.02
0.01
0.10
0.15
0.15
0.11
0.16
0.16
0.15
0.15
0.23
0.07
0.13
0.53
0.57
0.68
0.62
0.61
0.62
0.45
0.19
0.15
0.15
0.07
0.11
0.02
0.06
0.02
0.05
0.02
0.02
0.00
0.00
0.00
0.00
0.01
0.00
0.00
0.02
0.01
0.01
0.01
0.00
0.00
0.00
0.02
0.05
0.06
0.11
0.06
0.05
0.05
0.02
0.02
0.02
0.01
0.00
0.01
0.01
0.01
0.02
0.01
0.02
0.01
0.02
0.04
0.00
0.01
0.01
0.01
0.01
0.01
0.02
0.00
0.00
0.00
0.00
0.00
0.02
0.00
0.00
0.00
0.00
0.00
0.02
0.02
0.00
0.02
0.00
0.00
0.02
0.00
0.05
0.02
0.00
0.02
0.02
0.11
0.11
0.19
0.07
0.07
0.05
0.06
0.06
0.07
0.07
0.06
0.11
0.06
0.06
0.06
0.36
0.53
0.52
0.85
0.89
0.66
0.63
0.53
0.06
0.02
0.00
0.00
0.01
0.02
0.04
0.04
0.10
0.10
0.11
0.14
0.14
0.19
0.25
0.26
0.33
0.36
0.38
0.44
0.44
0.45
0.42
0.38
0.33
0.26
0.14
0.10
0.00
0.02
0.05
0.05
0.02
0.00
0.00
0.01
0.01
0.01
0.00
0.01
0.01
0.01
0.00
0.02
0.01
0.01
0.01
0.01
0.01
0.02
0.02
0.02
0.02
0.01
0.01
0.02
0.02
0.02
0.01
0.00
0.01
0.01
0.00
0.01
0.00
0.00
0.00
0.00
0.01
0.00
0.00
0.00
0.00
0.01
0.07
0.04
0.11
0.13
0.21
0.13
0.07
0.01
0.06
0.06
0.11
0.06
0.02
0.07
0.05
0.07
0.10
0.36
0.54
0.36
0.86
0.89
0.65
0.63
0.54
0.06
0.07
0.02
0.02
0.01
0.01
0.02
0.02
0.04
0.04
0.10
0.11
0.14
0.14
0.19
0.19
0.21
0.24
0.26
0.26
0.24
0.25
0.26
0.24
0.15
0.11
0.04
0.00
0.00
0.02
0.05
0.02
0.00
0.00
0.00
0.02
0.04
0.02
0.02
0.01
0.01
0.01
0.04
0.01
0.01
0.01
0.04
0.00
0.02
0.02
0.02
0.01
0.02
0.01
0.01
0.01
0.01
0.00
0.01
0.00
0.00
0.00
0.00
0.00
0.00
0.02
0.00
0.00
0.00
0.02
0.00
0.02
0.02
0.00
0.00
0.02
0.00
0.07
0.01
0.11
0.10
0.21
0.11
0.04
0.00
0.07
0.11
0.10
0.10
0.06
0.07
0.07
0.10
0.15
0.25
0.50
0.70
0.73
0.80
0.62
0.64
0.56
0.11
0.15
0.11
0.06
0.07
0.00
0.02
0.02
0.00
0.00
0.00
0.00
0.01
0.00
0.00
0.02
0.01
0.00
0.00
0.02
0.02
0.05
0.07
0.07
0.15
0.16
0.20
0.23
0.19
0.16
0.16
0.16
0.07
0.07
0.02
0.00
0.02
0.00
0.00
0.02
0.02
0.00
0.02
0.00
0.00
0.02
0.05
0.02
0.02
0.00
0.00
0.02
0.00
0.00
0.02
0.02
0.02
0.02
0.00
0.00
0.02
0.02
0.02
0.07
0.02
0.02
0.02
0.02
0.06
0.05
0.06
0.00
0.02
0.00
0.04
0.10
0.13
0.13
0.04
0.00
0.02
0.10
0.07
0.11
0.10
0.16
0.11
0.19
0.19
0.10
0.55
0.13
0.65
0.63
0.62
0.63
0.56
0.11
0.16
0.07
0.06
0.02
0.02
0.02
0.00
0.00
0.00
0.00
0.00
0.01
0.02
0.01
0.04
0.07
0.04
0.04
0.07
0.04
0.07
0.07
0.04
0.00
0.01
0.00
0.02
0.02
0.05
0.02
0.02
0.02
0.00
0.01
0.02
0.02
0.02
0.02
0.04
0.04
0.07
0.04
0.10
0.04
0.04
0.04
0.04
0.02
0.04
0.01
0.02
0.02
0.01
0.01
0.00
0.00
0.01
0.00
0.00
0.00
0.00
0.00
0.00
0.00
0.00
0.00
0.00
0.02
0.00
0.00
0.00
0.01
0.10
0.04
0.14
0.24
0.19
0.14
0.10
0.00
0.02
0.02
0.02
0.02
0.05
0.05
0.05
0.05
0.07
0.53
0.71
0.60
0.89
0.80
0.67
0.58
0.11
0.02
0.00
0.01
0.04
0.04
0.04
0.11
0.11
0.13
0.15
0.19
0.19
0.25
0.29
0.36
0.39
0.44
0.47
0.49
0.52
0.53
0.50
0.50
0.44
0.39
0.33
0.19
0.07
0.02
0.01
0.00
0.00
0.00
0.01
0.04
0.04
0.02
0.02
0.02
0.04
0.02
0.01
0.02
0.02
0.04
0.02
0.04
0.04
0.04
0.04
0.04
0.04
0.04
0.02
0.02
0.01
0.04
0.00
0.01
0.00
0.01
0.01
0.00
0.00
0.00
0.00
0.00
0.01
0.04
0.02
0.10
0.15
0.24
0.11
0.07
0.01
0.06
0.05
0.07
0.02
0.02
0.06
0.07
0.10
0.05
0.36
0.57
0.39
0.86
0.89
0.64
0.64
0.51
0.05
0.06
0.00
0.00
0.00
0.02
0.04
0.04
0.07
0.07
0.11
0.11
0.13
0.11
0.24
0.19
0.25
0.29
0.33
0.26
0.33
0.26
0.21
0.19
0.11
0.11
0.01
0.00
0.06
0.06
0.06
0.10
0.02
0.05
0.00
0.00
0.02
0.02
0.02
0.05
0.00
0.02
0.06
0.00
0.02
0.02
0.02
0.00
0.02
0.00
0.05
0.02
0.05
0.05
0.02
0.05
0.05
0.06
0.02
0.05
0.05
0.06
0.05
0.05
0.02
0.05
0.02
0.06
0.02
0.02
0.01
0.04
0.02
0.13
0.04
0.01
0.00
0.15
0.11
0.15
0.11
0.11
0.11
0.15
0.15
0.16
0.14
0.49
0.33
0.75
0.75
0.61
0.62
0.56
0.16
0.19
0.11
0.15
0.05
0.06
0.05
0.05
0.02
0.00
0.02
0.00
0.00
0.02
0.01
0.00
0.00
0.00
0.00
0.00
0.02
0.10
0.06
0.10
0.15
0.16
0.19
0.20
0.26
0.23
0.15
0.15
0.15
0.02
0.06
0.02
0.00
0.00
0.00
0.00
0.00
0.00
0.00
0.00
0.02
0.00
0.01
0.02
0.01
0.02
0.04
0.00
0.00
0.00
0.00
0.00
0.00
0.00
0.00
0.00
0.02
0.02
0.02
0.00
0.00
0.02
0.00
0.04
0.04
0.04
0.19
0.13
0.11
0.02
0.05
0.02
0.07
0.02
0.06
0.11
0.15
0.06
0.11
0.19
0.54
0.29
0.75
0.75
0.63
0.62
0.49
0.10
0.07
0.06
0.02
0.00
0.02
0.10
0.02
0.02
0.04
0.10
0.11
0.11
0.14
0.15
0.19
0.24
0.25
0.29
0.29
0.26
0.26
0.19
0.14
0.13
0.10
0.01
0.00
0.02
0.02
0.02
0.00
0.00
0.02
0.01
0.02
0.10
0.02
0.04
0.02
0.04
0.04
0.04
0.01
0.04
0.01
0.01
0.11
0.01
0.02
0.07
0.02
0.02
0.02
0.02
0.01
0.01
0.01
0.01
0.01
0.01
0.02
0.11
0.01
0.04
0.10
0.13
0.14
0.26
0.15
0.14
0.07
0.00
0.00
0.02
0.02
0.02
0.05
0.05
0.10
0.06
0.36
0.58
0.49
0.84
0.86
0.63
0.62
0.51
0.00
0.02
0.01
0.00
0.01
0.01
0.14
0.07
0.10
0.11
0.11
0.11
0.15
0.15
0.19
0.24
0.24
0.24
0.25
0.25
0.26
0.21
0.15
0.13
0.11
0.04
0.02
0.00
0.05
0.05
0.00
0.02
0.00
0.01
0.04
0.04
0.07
0.04
0.01
0.07
0.01
0.04
0.04
0.04
0.01
0.02
0.04
0.04
0.04
0.04
0.02
0.04
0.04
0.01
0.10
0.01
0.01
0.01
0.02
0.02
0.01
0.04
0.04
0.02
0.14
0.13
0.24
0.13
0.10
0.01
0.06
0.07
0.02
0.02
0.02
0.02
0.05
0.02
0.05
0.29
0.63
0.67
0.80
0.87
0.62
0.64
0.52
0.00
0.02
0.00
0.01
0.04
0.04
0.04
0.11
0.10
0.07
0.14
0.15
0.13
0.19
0.19
0.21
0.21
0.24
0.25
0.25
0.25
0.19
0.15
0.13
0.10
0.04
0.01
0.02
0.00
0.02
0.00
0.01
0.01
0.04
0.04
0.04
0.10
0.10
0.11
0.11
0.11
0.10
0.11
0.11
0.11
0.11
0.10
0.15
0.14
0.13
0.14
0.11
0.14
0.11
0.13
0.13
0.11
0.11
0.11
0.07
0.04
0.11
0.04
0.10
0.13
0.15
0.13
0.21
0.38
0.25
0.21
0.10
0.00
0.01
0.02
0.00
0.00
0.00
0.02
0.00
0.00
0.19
0.61
0.80
0.74
0.87
0.67
0.62
0.56
0.06
0.00
0.00
0.02
0.04
0.04
0.07
0.10
0.13
0.11
0.11
0.14
0.13
0.19
0.19
0.19
0.21
0.24
0.24
0.25
0.24
0.24
0.15
0.14
0.10
0.07
0.01
0.00
0.02
0.02
0.00
0.00
0.01
0.02
0.07
0.04
0.07
0.11
0.10
0.10
0.04
0.10
0.04
0.04
0.07
0.04
0.07
0.07
0.10
0.07
0.10
0.10
0.10
0.02
0.07
0.04
0.10
0.04
0.02
0.02
0.02
0.01
0.02
0.01
0.01
0.01
0.01
0.01
0.04
0.10
0.04
0.13
0.13
0.24
0.15
0.04
0.00
0.07
0.06
0.11
0.02
0.05
0.06
0.07
0.05
0.06
0.29
0.61
0.67
0.83
0.89
0.63
0.64
0.51
0.02
0.07
0.00
0.00
0.01
0.01
0.04
0.02
0.04
0.07
0.04
0.10
0.10
0.11
0.13
0.14
0.13
0.15
0.14
0.15
0.15
0.13
0.11
0.04
0.02
0.01
0.00
0.02
0.07
0.11
0.07
0.06
0.02
0.00
0.00
0.00
0.01
0.00
0.01
0.01
0.00
0.00
0.01
0.00
0.01
0.01
0.01
0.01
0.00
0.01
0.00
0.01
0.01
0.00
0.00
0.00
0.02
0.00
0.00
0.00
0.02
0.02
0.00
0.00
0.00
0.00
0.02
0.00
0.02
0.02
0.07
0.07
0.21
0.13
0.07
0.01
0.06
0.11
0.15
0.05
0.05
0.10
0.07
0.07
0.10
0.01
0.49
0.72
0.63
0.88
0.79
0.68
0.58
0.20
0.07
0.06
0.02
0.00
0.01
0.00
0.02
0.01
0.01
0.04
0.04
0.04
0.10
0.10
0.10
0.11
0.13
0.13
0.14
0.13
0.11
0.07
0.04
0.02
0.00
0.00
0.07
0.11
0.15
0.15
0.11
0.07
0.06
0.02
0.02
0.01
0.01
0.00
0.02
0.00
0.00
0.00
0.00
0.00
0.00
0.00
0.00
0.00
0.00
0.00
0.00
0.01
0.00
0.00
0.00
0.00
0.00
0.00
0.00
0.02
0.05
0.05
0.05
0.06
0.05
0.05
0.06
0.10
0.06
0.07
0.05
0.00
0.00
0.00
0.04
0.11
0.13
0.00
0.00
0.15
0.23
0.19
0.11
0.11
0.10
0.11
0.11
0.15
0.11
0.38
0.67
0.20
0.77
0.80
0.63
0.61
0.44
0.15
0.16
0.11
0.05
0.06
0.05
0.02
0.02
0.00
0.02
0.00
0.00
0.00
0.00
0.02
0.00
0.00
0.00
0.00
0.02
0.07
0.11
0.15
0.20
0.23
0.23
0.27
0.27
0.26
0.19
0.19
0.11
0.05
0.02
0.00
0.00
0.00
0.00
0.00
0.00
0.00
0.00
0.00
0.00
0.00
0.00
0.00
0.00
0.00
0.00
0.00
0.00
0.00
0.00
0.00
0.00
0.02
0.00
0.00
0.02
0.00
0.02
0.00
0.02
0.00
0.00
0.02
0.02
0.02
0.00
0.04
0.00
0.04
0.02
0.19
0.11
0.04
0.00
0.10
0.11
0.15
0.07
0.10
0.15
0.15
0.15
0.20
0.04
0.36
0.70
0.62
0.63
0.62
0.62
0.59
0.20
0.20
0.15
0.07
0.06
0.06
0.02
0.02
0.00
0.02
0.00
0.00
0.00
0.00
0.00
0.01
0.00
0.00
0.00
0.02
0.02
0.02
0.05
0.06
0.07
0.11
0.10
0.11
0.11
0.05
0.07
0.02
0.02
0.00
0.01
0.01
0.01
0.02
0.04
0.02
0.04
0.02
0.02
0.04
0.01
0.02
0.02
0.01
0.02
0.01
0.01
0.00
0.01
0.01
0.00
0.01
0.00
0.01
0.00
0.01
0.00
0.01
0.01
0.01
0.02
0.01
0.01
0.01
0.01
0.01
0.02
0.11
0.13
0.11
0.19
0.24
0.33
0.15
0.11
0.00
0.02
0.00
0.00
0.00
0.00
0.00
0.00
0.02
0.01
0.53
0.68
0.36
0.87
0.87
0.66
0.59
0.20
0.00
0.00
0.04
0.10
0.11
0.13
0.11
0.11
0.15
0.15
0.24
0.21
0.24
0.24
0.29
0.33
0.36
0.39
0.42
0.44
0.44
0.44
0.39
0.36
0.29
0.21
0.13
0.07
0.01
0.00
0.00
0.00
0.01
0.01
0.02
0.04
0.04
0.02
0.04
0.02
0.04
0.04
0.04
0.02
0.07
0.04
0.07
0.07
0.07
0.10
0.10
0.11
0.11
0.10
0.10
0.04
0.04
0.07
0.04
0.04
0.01
0.01
0.01
0.02
0.01
0.01
0.01
0.01
0.01
0.00
0.01
0.01
0.01
0.04
0.11
0.13
0.14
0.29
0.15
0.11
0.04
0.02
0.07
0.06
0.05
0.02
0.02
0.05
0.02
0.02
0.11
0.55
0.79
0.63
0.89
0.75
0.66
0.57
0.06
0.02
0.00
0.01
0.04
0.04
0.04
0.07
0.11
0.13
0.11
0.15
0.14
0.19
0.19
0.25
0.24
0.26
0.26
0.36
0.33
0.33
0.26
0.24
0.21
0.14
0.11
0.04
0.00
0.02
0.02
0.02
0.02
0.00
0.01
0.01
0.01
0.04
0.04
0.01
0.01
0.02
0.01
0.04
0.04
0.04
0.02
0.04
0.02
0.04
0.07
0.07
0.04
0.02
0.02
0.04
0.01
0.02
0.02
0.01
0.00
0.01
0.01
0.02
0.00
0.01
0.01
0.01
0.00
0.01
0.01
0.00
0.00
0.00
0.01
0.07
0.02
0.14
0.10
0.24
0.07
0.02
0.02
0.15
0.11
0.15
0.10
0.06
0.11
0.11
0.10
0.15
0.24
0.53
0.70
0.78
0.87
0.61
0.63
0.56
0.11
0.16
0.07
0.06
0.02
0.02
0.02
0.02
0.00
0.00
0.00
0.00
0.00
0.00
0.01
0.00
0.00
0.00
0.00
0.05
0.10
0.15
0.19
0.23
0.29
0.31
0.31
0.33
0.33
0.31
0.27
0.20
0.11
0.07
0.02
0.02
0.00
0.02
0.02
0.00
0.05
0.00
0.00
0.02
0.02
0.02
0.02
0.00
0.02
0.00
0.05
0.00
0.02
0.02
0.06
0.05
0.05
0.02
0.06
0.06
0.07
0.07
0.10
0.07
0.06
0.06
0.10
0.11
0.06
0.07
0.10
0.11
0.10
0.02
0.00
0.00
0.01
0.11
0.04
0.01
0.01
0.07
0.15
0.15
0.15
0.11
0.15
0.11
0.16
0.19
0.23
0.07
0.52
0.02
0.62
0.61
0.60
0.61
0.52
0.16
0.19
0.15
0.15
0.11
0.06
0.07
0.06
0.06
0.07
0.06
0.07
0.06
0.02
0.07
0.05
0.10
0.07
0.07
0.15
0.07
0.16
0.19
0.19
0.19
0.20
0.20
0.20
0.20
0.16
0.16
0.10
0.10
0.07
0.05
0.02
0.02
0.02
0.02
0.02
0.02
0.00
0.00
0.00
0.02
0.02
0.02
0.02
0.07
0.00
0.02
0.02
0.02
0.02
0.00
0.00
0.00
0.02
0.02
0.02
0.02
0.02
0.02
0.00
0.00
0.02
0.00
0.02
0.00
0.02
0.00
0.01
0.04
0.11
0.11
0.13
0.10
0.02
0.00
0.07
0.07
0.07
0.10
0.07
0.07
0.11
0.15
0.11
0.25
0.58
0.24
0.80
0.85
0.66
0.64
0.53
0.02
0.07
0.00
0.00
0.01
0.01
0.04
0.04
0.07
0.10
0.11
0.13
0.19
0.19
0.26
0.33
0.38
0.42
0.45
0.53
0.53
0.54
0.53
0.53
0.49
0.44
0.29
0.19
0.07
0.02
0.01
0.00
0.00
0.01
0.01
0.04
0.04
0.02
0.07
0.04
0.01
0.04
0.07
0.07
0.04
0.04
0.04
0.07
0.07
0.04
0.07
0.07
0.07
0.07
0.04
0.04
0.02
0.02
0.01
0.01
0.01
0.00
0.01
0.00
0.00
0.00
0.00
0.00
0.00
0.02
0.00
0.04
0.02
0.11
0.10
0.21
0.10
0.04
0.00
0.10
0.07
0.15
0.06
0.07
0.10
0.06
0.10
0.07
0.45
0.61
0.33
0.89
0.89
0.67
0.62
0.36
0.00
0.00
0.01
0.02
0.07
0.11
0.11
0.14
0.11
0.13
0.15
0.19
0.24
0.24
0.26
0.25
0.33
0.36
0.42
0.39
0.39
0.38
0.38
0.29
0.29
0.19
0.11
0.02
0.00
0.00
0.02
0.02
0.00
0.00
0.01
0.01
0.04
0.04
0.02
0.02
0.02
0.04
0.02
0.01
0.04
0.04
0.04
0.04
0.04
0.04
0.04
0.04
0.04
0.04
0.01
0.01
0.02
0.01
0.02
0.00
0.01
0.00
0.00
0.00
0.00
0.00
0.00
0.00
0.00
0.00
0.02
0.00
0.01
0.04
0.00
0.10
0.10
0.15
0.02
0.00
0.02
0.11
0.07
0.07
0.07
0.11
0.10
0.15
0.11
0.15
0.25
0.57
0.19
0.73
0.75
0.62
0.61
0.49
0.15
0.15
0.11
0.06
0.06
0.05
0.02
0.02
0.00
0.05
0.02
0.00
0.05
0.02
0.00
0.02
0.02
0.05
0.07
0.11
0.15
0.11
0.16
0.19
0.26
0.20
0.27
0.20
0.26
0.23
0.23
0.15
0.11
0.11
0.15
0.11
0.06
0.07
0.10
0.06
0.05
0.07
0.07
0.06
0.02
0.05
0.07
0.06
0.10
0.06
0.06
0.10
0.06
0.07
0.07
0.06
0.05
0.06
0.10
0.10
0.11
0.10
0.10
0.11
0.06
0.07
0.06
0.15
0.05
0.00
0.02
0.02
0.00
0.11
0.11
0.02
0.02
0.15
0.10
0.15
0.15
0.15
0.19
0.19
0.16
0.26
0.02
0.49
0.57
0.61
0.62
0.62
0.63
0.59
0.15
0.19
0.11
0.07
0.06
0.02
0.06
0.02
0.02
0.02
0.02
0.00
0.01
0.00
0.01
0.00
0.01
0.04
0.01
0.01
0.01
0.04
0.01
0.04
0.01
0.01
0.00
0.05
0.05
0.05
0.05
0.02
0.05
0.02
0.00
0.00
0.00
0.00
0.00
0.01
0.02
0.01
0.01
0.01
0.01
0.01
0.01
0.01
0.00
0.01
0.00
0.00
0.00
0.00
0.00
0.02
0.02
0.02
0.00
0.00
0.02
0.02
0.02
0.02
0.02
0.02
0.02
0.05
0.00
0.02
0.04
0.11
0.10
0.24
0.11
0.10
0.04
0.05
0.05
0.07
0.05
0.05
0.06
0.06
0.07
0.02
0.36
0.55
0.26
0.87
0.89
0.72
0.64
0.49
0.00
0.00
0.00
0.02
0.04
0.10
0.13
0.13
0.14
0.19
0.21
0.26
0.33
0.29
0.44
0.44
0.50
0.52
0.55
0.57
0.58
0.58
0.57
0.57
0.53
0.44
0.33
0.15
0.11
0.01
0.01
0.01
0.01
0.01
0.02
0.04
0.07
0.02
0.04
0.04
0.07
0.07
0.04
0.04
0.07
0.10
0.10
0.10
0.11
0.10
0.10
0.07
0.10
0.10
0.07
0.10
0.07
0.04
0.04
0.04
0.04
0.04
0.01
0.01
0.02
0.01
0.02
0.10
0.11
0.11
0.14
0.29
0.19
0.13
0.10
0.00
0.02
0.07
0.00
0.02
0.06
0.05
0.02
0.02
0.19
0.60
0.72
0.78
0.89
0.73
0.63
0.55
0.07
0.00
0.00
0.01
0.02
0.04
0.04
0.04
0.07
0.11
0.11
0.11
0.14
0.15
0.19
0.24
0.19
0.24
0.25
0.25
0.26
0.21
0.21
0.15
0.11
0.04
0.02
0.02
0.06
0.05
0.07
0.05
0.02
0.02
0.00
0.00
0.00
0.00
0.00
0.00
0.00
0.00
0.00
0.00
0.02
0.00
0.00
0.00
0.00
0.00
0.00
0.02
0.00
0.00
0.02
0.00
0.02
0.02
0.06
0.00
0.05
0.00
0.02
0.02
0.06
0.06
0.06
0.02
0.05
0.07
0.06
0.07
0.06
0.05
0.02
0.00
0.02
0.00
0.01
0.11
0.10
0.01
0.02
0.10
0.15
0.19
0.07
0.10
0.16
0.16
0.15
0.19
0.01
0.26
0.67
0.64
0.66
0.62
0.64
0.61
0.27
0.19
0.10
0.15
0.00
0.06
0.06
0.02
0.02
0.02
0.02
0.05
0.06
0.02
0.02
0.02
0.05
0.05
0.10
0.06
0.05
0.07
0.07
0.15
0.15
0.11
0.15
0.11
0.10
0.15
0.15
0.11
0.05
0.02
0.05
0.06
0.02
0.02
0.02
0.00
0.00
0.00
0.00
0.00
0.01
0.00
0.00
0.00
0.00
0.00
0.00
0.00
0.00
0.00
0.02
0.00
0.02
0.00
0.00
0.02
0.02
0.02
0.02
0.02
0.00
0.02
0.05
0.02
0.02
0.02
0.01
0.01
0.01
0.07
0.14
0.11
0.02
0.02
0.07
0.10
0.10
0.07
0.07
0.11
0.11
0.11
0.07
0.07
0.42
0.67
0.61
0.78
0.72
0.61
0.61
0.15
0.07
0.02
0.00
0.01
0.02
0.02
0.04
0.10
0.11
0.14
0.15
0.21
0.24
0.29
0.33
0.39
0.44
0.50
0.50
0.54
0.57
0.57
0.55
0.54
0.47
0.44
0.29
0.19
0.11
0.04
0.04
0.04
0.04
0.04
0.04
0.04
0.04
0.04
0.04
0.02
0.04
0.04
0.02
0.04
0.04
0.04
0.04
0.07
0.07
0.04
0.04
0.02
0.04
0.01
0.02
0.04
0.02
0.04
0.02
0.01
0.02
0.02
0.02
0.02
0.02
0.01
0.02
0.07
0.11
0.13
0.14
0.15
0.33
0.21
0.14
0.10
0.00
0.02
0.02
0.00
0.02
0.02
0.05
0.02
0.02
0.36
0.57
0.49
0.87
0.90
0.68
0.64
0.49
0.05
0.00
0.00
0.01
0.04
0.07
0.04
0.11
0.11
0.14
0.19
0.21
0.19
0.26
0.33
0.36
0.44
0.44
0.49
0.50
0.52
0.50
0.50
0.45
0.38
0.36
0.24
0.14
0.07
0.01
0.01
0.00
0.02
0.02
0.04
0.10
0.04
0.04
0.04
0.04
0.04
0.02
0.02
0.01
0.02
0.02
0.01
0.04
0.02
0.02
0.04
0.04
0.04
0.04
0.04
0.04
0.02
0.01
0.01
0.01
0.01
0.00
0.00
0.00
0.00
0.00
0.02
0.02
0.02
0.00
0.02
0.00
0.04
0.01
0.10
0.13
0.14
0.10
0.00
0.02
0.10
0.11
0.10
0.11
0.11
0.15
0.11
0.15
0.06
0.33
0.68
0.57
0.75
0.75
0.63
0.61
0.35
0.15
0.15
0.07
0.05
0.02
0.00
0.02
0.02
0.00
0.00
0.00
0.02
0.00
0.00
0.00
0.00
0.00
0.00
0.02
0.00
0.06
0.02
0.02
0.07
0.15
0.15
0.15
0.11
0.15
0.19
0.11
0.10
0.06
0.11
0.05
0.02
0.02
0.02
0.02
0.02
0.02
0.00
0.06
0.02
0.02
0.02
0.05
0.00
0.00
0.00
0.02
0.02
0.05
0.02
0.02
0.02
0.02
0.05
0.02
0.02
0.05
0.07
0.10
0.06
0.02
0.02
0.07
0.06
0.10
0.05
0.00
0.01
0.01
0.00
0.19
0.11
0.04
0.01
0.05
0.15
0.19
0.10
0.15
0.15
0.19
0.19
0.23
0.00
0.19
0.57
0.61
0.68
0.62
0.61
0.62
0.41
0.23
0.19
0.15
0.11
0.07
0.05
0.05
0.05
0.02
0.02
0.02
0.00
0.00
0.00
0.01
0.01
0.01
0.02
0.07
0.04
0.04
0.04
0.04
0.04
0.02
0.00
0.00
0.00
0.02
0.05
0.05
0.02
0.02
0.02
0.02
0.02
0.02
0.00
0.00
0.00
0.00
0.00
0.01
0.00
0.01
0.01
0.01
0.00
0.01
0.00
0.01
0.01
0.00
0.00
0.00
0.02
0.00
0.00
0.01
0.00
0.00
0.02
0.00
0.00
0.00
0.00
0.00
0.02
0.02
0.02
0.00
0.04
0.02
0.10
0.13
0.19
0.10
0.04
0.00
0.07
0.05
0.10
0.07
0.11
0.11
0.11
0.15
0.06
0.38
0.58
0.56
0.87
0.89
0.71
0.62
0.41
0.05
0.05
0.00
0.01
0.01
0.04
0.04
0.10
0.11
0.15
0.14
0.19
0.19
0.24
0.36
0.38
0.44
0.45
0.49
0.53
0.53
0.54
0.54
0.47
0.44
0.38
0.26
0.14
0.04
0.01
0.00
0.00
0.00
0.00
0.01
0.01
0.01
0.01
0.01
0.01
0.04
0.00
0.01
0.01
0.01
0.01
0.02
0.01
0.01
0.02
0.02
0.02
0.04
0.04
0.01
0.01
0.01
0.04
0.01
0.01
0.00
0.00
0.01
0.00
0.00
0.00
0.01
0.00
0.00
0.00
0.00
0.02
0.01
0.04
0.04
0.11
0.14
0.19
0.07
0.04
0.00
0.06
0.10
0.11
0.11
0.07
0.11
0.11
0.11
0.10
0.36
0.57
0.20
0.87
0.89
0.66
0.62
0.49
0.07
0.05
0.02
0.00
0.00
0.01
0.02
0.01
0.04
0.04
0.07
0.10
0.11
0.11
0.15
0.14
0.19
0.21
0.24
0.25
0.25
0.24
0.19
0.15
0.14
0.04
0.04
0.00
0.05
0.11
0.10
0.10
0.05
0.05
0.00
0.00
0.00
0.00
0.00
0.01
0.00
0.00
0.00
0.00
0.01
0.00
0.00
0.00
0.00
0.00
0.00
0.00
0.00
0.00
0.00
0.00
0.00
0.00
0.00
0.02
0.02
0.02
0.05
0.05
0.06
0.10
0.07
0.06
0.07
0.11
0.07
0.07
0.15
0.02
0.00
0.02
0.01
0.02
0.07
0.02
0.00
0.06
0.15
0.15
0.16
0.19
0.16
0.23
0.20
0.23
0.29
0.10
0.47
0.14
0.73
0.68
0.63
0.63
0.55
0.15
0.23
0.16
0.15
0.11
0.10
0.07
0.02
0.07
0.07
0.07
0.02
0.05
0.02
0.02
0.06
0.02
0.02
0.07
0.05
0.06
0.11
0.07
0.16
0.15
0.19
0.16
0.20
0.19
0.19
0.16
0.15
0.11
0.15
0.06
0.07
0.06
0.02
0.02
0.11
0.02
0.05
0.06
0.10
0.02
0.02
0.07
0.06
0.10
0.06
0.10
0.15
0.11
0.10
0.07
0.07
0.07
0.10
0.11
0.07
0.07
0.10
0.15
0.11
0.11
0.07
0.10
0.10
0.11
0.11
0.05
0.00
0.00
0.00
0.07
0.04
0.04
0.01
0.05
0.15
0.16
0.16
0.16
0.16
0.16
0.16
0.20
0.11
0.14
0.57
0.26
0.71
0.72
0.65
0.63
0.51
0.16
0.11
0.07
0.02
0.02
0.00
0.01
0.01
0.02
0.02
0.04
0.07
0.10
0.13
0.15
0.14
0.24
0.29
0.33
0.36
0.42
0.38
0.42
0.39
0.33
0.29
0.15
0.11
0.04
0.01
0.00
0.00
0.00
0.00
0.01
0.01
0.01
0.01
0.01
0.02
0.04
0.04
0.04
0.04
0.04
0.02
0.04
0.02
0.04
0.04
0.02
0.02
0.01
0.02
0.01
0.01
0.00
0.00
0.01
0.01
0.01
0.01
0.01
0.00
0.00
0.00
0.01
0.00
0.00
0.01
0.10
0.04
0.13
0.19
0.21
0.14
0.10
0.01
0.02
0.05
0.05
0.02
0.00
0.05
0.05
0.06
0.02
0.44
0.57
0.23
0.88
0.89
0.71
0.63
0.37
0.00
0.00
0.00
0.01
0.01
0.07
0.10
0.07
0.13
0.13
0.15
0.24
0.25
0.29
0.36
0.38
0.44
0.45
0.52
0.53
0.54
0.53
0.53
0.50
0.49
0.44
0.29
0.19
0.07
0.02
0.01
0.02
0.02
0.01
0.04
0.04
0.04
0.04
0.01
0.01
0.02
0.00
0.01
0.00
0.01
0.00
0.01
0.00
0.00
0.00
0.00
0.00
0.00
0.00
0.01
0.01
0.00
0.01
0.00
0.00
0.01
0.01
0.00
0.00
0.00
0.00
0.01
0.01
0.00
0.00
0.04
0.07
0.10
0.11
0.25
0.19
0.15
0.04
0.00
0.00
0.02
0.00
0.02
0.02
0.02
0.02
0.00
0.19
0.55
0.79
0.63
0.84
0.75
0.65
0.59
0.11
0.02
0.00
0.00
0.01
0.02
0.04
0.07
0.07
0.11
0.11
0.11
0.15
0.19
0.19
0.19
0.24
0.25
0.24
0.24
0.19
0.21
0.14
0.15
0.11
0.04
0.00
0.02
0.06
0.11
0.11
0.10
0.05
0.02
0.06
0.00
0.00
0.00
0.00
0.00
0.02
0.02
0.02
0.02
0.00
0.00
0.00
0.01
0.01
0.00
0.00
0.02
0.00
0.01
0.00
0.00
0.00
0.00
0.01
0.00
0.00
0.02
0.00
0.02
0.07
0.00
0.02
0.05
0.05
0.02
0.05
0.02
0.02
0.04
0.10
0.11
0.07
0.02
0.02
0.10
0.15
0.10
0.11
0.15
0.16
0.15
0.26
0.02
0.14
0.60
0.61
0.66
0.62
0.61
0.63
0.41
0.20
0.10
0.15
0.10
0.11
0.02
0.05
0.05
0.07
0.06
0.00
0.02
0.00
0.00
0.00
0.00
0.00
0.00
0.02
0.01
0.00
0.00
0.02
0.00
0.00
0.02
0.02
0.06
0.02
0.02
0.02
0.02
0.02
0.02
0.00
0.01
0.00
0.02
0.01
0.01
0.02
0.01
0.02
0.01
0.01
0.01
0.01
0.01
0.01
0.01
0.00
0.00
0.02
0.01
0.01
0.00
0.01
0.00
0.00
0.00
0.00
0.01
0.00
0.00
0.00
0.01
0.00
0.02
0.07
0.07
0.13
0.36
0.19
0.15
0.11
0.00
0.02
0.00
0.02
0.00
0.06
0.07
0.06
0.05
0.13
0.54
0.69
0.68
0.89
0.75
0.63
0.59
0.06
0.06
0.00
0.01
0.00
0.11
0.02
0.10
0.11
0.11
0.14
0.15
0.21
0.26
0.29
0.36
0.42
0.50
0.49
0.53
0.57
0.58
0.57
0.53
0.53
0.47
0.38
0.25
0.11
0.04
0.01
0.01
0.00
0.10
0.00
0.04
0.01
0.02
0.02
0.02
0.01
0.00
0.00
0.00
0.01
0.04
0.01
0.00
0.01
0.00
0.01
0.01
0.04
0.01
0.01
0.01
0.01
0.00
0.04
0.00
0.00
0.01
0.01
0.00
0.01
0.01
0.02
0.07
0.10
0.13
0.25
0.13
0.13
0.02
0.02
0.05
0.06
0.06
0.05
0.06
0.06
0.07
0.05
0.11
0.58
0.74
0.74
0.87
0.73
0.62
0.57
0.07
0.07
0.00
0.00
0.02
0.01
0.04
0.04
0.04
0.07
0.11
0.14
0.13
0.19
0.25
0.24
0.29
0.36
0.38
0.36
0.36
0.42
0.33
0.25
0.24
0.19
0.13
0.02
0.00
0.06
0.05
0.02
0.00
0.00
0.00
0.00
0.02
0.01
0.01
0.00
0.10
0.00
0.01
0.02
0.01
0.02
0.04
0.04
0.01
0.11
0.04
0.04
0.02
0.04
0.04
0.04
0.02
0.04
0.01
0.00
0.07
0.00
0.00
0.01
0.00
0.00
0.00
0.02
0.00
0.01
0.04
0.01
0.14
0.19
0.13
0.07
0.01
0.05
0.10
0.11
0.11
0.02
0.10
0.10
0.06
0.10
0.10
0.49
0.74
0.70
0.87
0.73
0.63
0.59
0.15
0.15
0.06
0.00
0.02
0.00
0.02
0.04
0.04
0.04
0.07
0.10
0.10
0.13
0.13
0.19
0.13
0.29
0.19
0.25
0.21
0.24
0.19
0.15
0.07
0.13
0.04
0.00
0.02
0.05
0.07
0.02
0.02
0.00
0.00
0.07
0.00
0.00
0.02
0.00
0.00
0.00
0.01
0.00
0.01
0.02
0.01
0.01
0.04
0.02
0.02
0.01
0.04
0.01
0.00
0.02
0.01
0.00
0.00
0.00
0.00
0.00
0.02
0.05
0.05
0.05
0.06
0.05
0.02
0.05
0.02
0.04
0.00
0.10
0.14
0.13
0.10
0.01
0.00
0.15
0.11
0.11
0.10
0.07
0.11
0.11
0.07
0.06
0.42
0.70
0.57
0.75
0.67
0.62
0.60
0.35
0.15
0.10
0.10
0.05
0.02
0.05
0.02
0.05
0.02
0.02
0.02
0.02
0.02
0.02
0.05
0.02
0.06
0.07
0.05
0.15
0.11
0.15
0.16
0.26
0.20
0.23
0.27
0.19
0.16
0.11
0.15
0.07
0.02
0.00
0.02
0.05
0.02
0.00
0.00
0.00
0.00
0.05
0.02
0.02
0.00
0.02
0.02
0.00
0.06
0.07
0.02
0.00
0.00
0.06
0.06
0.02
0.02
0.02
0.06
0.02
0.05
0.07
0.02
0.07
0.06
0.06
0.07
0.06
0.00
0.05
0.02
0.01
0.11
0.04
0.01
0.00
0.19
0.07
0.16
0.15
0.16
0.16
0.19
0.19
0.29
0.02
0.53
0.47
0.62
0.63
0.65
0.63
0.59
0.23
0.29
0.06
0.15
0.06
0.02
0.02
0.00
0.02
0.00
0.00
0.04
0.01
0.01
0.07
0.10
0.11
0.11
0.15
0.14
0.14
0.24
0.15
0.19
0.14
0.11
0.04
0.01
0.00
0.06
0.01
0.02
0.02
0.02
0.00
0.00
0.00
0.00
0.00
0.02
0.02
0.01
0.02
0.04
0.01
0.01
0.01
0.00
0.02
0.00
0.00
0.01
0.00
0.00
0.00
0.00
0.00
0.05
0.02
0.02
0.00
0.00
0.02
0.00
0.02
0.00
0.02
0.01
0.00
0.01
0.04
0.07
0.10
0.19
0.11
0.13
0.04
0.00
0.07
0.06
0.10
0.05
0.06
0.07
0.05
0.07
0.14
0.60
0.61
0.86
0.89
0.73
0.62
0.57
0.10
0.05
0.05
0.00
0.00
0.00
0.01
0.10
0.07
0.07
0.11
0.14
0.19
0.19
0.26
0.36
0.36
0.44
0.44
0.50
0.49
0.49
0.44
0.45
0.42
0.33
0.19
0.11
0.07
0.00
0.02
0.02
0.00
0.00
0.02
0.00
0.04
0.00
0.01
0.00
0.01
0.01
0.00
0.00
0.00
0.00
0.01
0.02
0.02
0.00
0.02
0.02
0.01
0.01
0.01
0.00
0.04
0.01
0.00
0.01
0.00
0.00
0.02
0.01
0.02
0.00
0.00
0.00
0.00
0.01
0.04
0.04
0.11
0.24
0.13
0.14
0.04
0.00
0.10
0.02
0.11
0.05
0.06
0.07
0.11
0.06
0.01
0.45
0.70
0.65
0.87
0.78
0.67
0.57
0.16
0.10
0.07
0.00
0.02
0.00
0.00
0.04
0.04
0.02
0.11
0.10
0.10
0.21
0.11
0.19
0.19
0.21
0.11
0.47
0.24
0.19
0.24
0.19
0.11
0.10
0.00
0.01
0.07
0.15
0.10
0.06
0.07
0.02
0.02
0.10
0.04
0.00
0.00
0.00
0.00
0.00
0.02
0.00
0.06
0.04
0.00
0.00
0.04
0.00
0.02
0.02
0.01
0.01
0.01
0.00
0.02
0.10
0.00
0.01
0.01
0.00
0.00
0.00
0.02
0.10
0.02
0.02
0.00
0.02
0.05
0.00
0.01
0.04
0.01
0.07
0.21
0.26
0.11
0.04
0.02
0.02
0.15
0.00
0.06
0.07
0.07
0.16
0.00
0.00
0.47
0.71
0.62
0.85
0.75
0.65
0.60
0.05
0.15
0.05
0.02
0.00
0.00
0.00
0.01
0.02
0.01
0.10
0.07
0.14
0.11
0.11
0.15
0.14
0.19
0.11
0.36
0.15
0.19
0.19
0.11
0.11
0.07
0.01
0.00
0.00
0.06
0.05
0.05
0.06
0.02
0.00
0.02
0.02
0.04
0.00
0.00
0.01
0.00
0.02
0.00
0.00
0.00
0.00
0.06
0.11
0.00
0.00
0.00
0.00
0.00
0.00
0.00
0.00
0.04
0.00
0.00
0.01
0.05
0.04
0.00
0.00
0.06
0.04
0.00
0.02
0.00
0.02
0.02
0.00
0.07
0.01
0.01
0.26
0.21
0.11
0.11
0.01
0.11
0.02
0.16
0.00
0.06
0.06
0.07
0.15
0.11
0.26
0.50
0.52
0.79
0.87
0.62
0.64
0.55
0.07
0.07
0.06
0.02
0.00
0.02
0.07
0.01
0.01
0.04
0.02
0.04
0.04
0.11
0.11
0.07
0.04
0.29
0.14
0.15
0.15
0.14
0.14
0.15
0.04
0.04
0.00
0.05
0.06
0.02
0.10
0.05
0.02
0.02
0.02
0.02
0.02
0.01
0.02
0.00
0.11
0.00
0.04
0.02
0.04
0.01
0.01
0.07
0.01
0.02
0.00
0.01
0.02
0.01
0.00
0.11
0.01
0.01
0.01
0.01
0.00
0.02
0.00
0.00
0.04
0.00
0.00
0.00
0.02
0.05
0.01
0.01
0.01
0.01
0.07
0.15
0.07
0.11
0.01
0.10
0.05
0.16
0.00
0.10
0.06
0.11
0.10
0.11
0.02
0.33
0.73
0.64
0.64
0.61
0.64
0.59
0.16
0.20
0.19
0.16
0.26
0.01
0.11
0.06
0.15
0.05
0.07
0.11
0.02
0.07
0.07
0.11
0.06
0.15
0.15
0.23
0.16
0.33
0.19
0.26
0.31
0.35
0.33
0.29
0.35
0.23
0.20
0.15
0.15
0.05
0.05
0.15
0.01
0.05
0.02
0.02
0.02
0.06
0.05
0.15
0.02
0.05
0.02
0.05
0.10
0.02
0.06
0.06
0.02
0.00
0.05
0.02
0.05
0.02
0.02
0.02
0.00
0.02
0.05
0.01
0.00
0.02
0.02
0.02
0.02
0.02
0.02
0.00
0.01
0.00
0.04
0.01
0.36
0.11
0.11
0.02
0.06
0.06
0.05
0.06
0.10
0.11
0.15
0.11
0.15
0.11
0.45
0.64
0.63
0.75
0.63
0.63
0.61
0.19
0.15
0.06
0.02
0.00
0.00
0.01
0.01
0.04
0.04
0.10
0.02
0.21
0.11
0.24
0.19
0.29
0.33
0.38
0.44
0.44
0.47
0.44
0.44
0.36
0.36
0.19
0.11
0.02
0.01
0.00
0.00
0.02
0.00
0.00
0.00
0.00
0.00
0.01
0.01
0.04
0.01
0.01
0.00
0.07
0.04
0.02
0.04
0.02
0.04
0.04
0.04
0.04
0.04
0.04
0.01
0.02
0.01
0.02
0.04
0.01
0.01
0.02
0.01
0.01
0.01
0.01
0.00
0.00
0.01
0.00
0.02
0.01
0.00
0.04
0.02
0.11
0.15
0.33
0.15
0.15
0.11
0.01
0.05
0.00
0.02
0.00
0.02
0.02
0.02
0.00
0.15
0.54
0.73
0.71
0.89
0.76
0.66
0.57
0.11
0.00
0.02
0.00
0.02
0.02
0.07
0.07
0.10
0.13
0.13
0.15
0.19
0.21
0.25
0.29
0.36
0.39
0.42
0.44
0.44
0.52
0.44
0.42
0.39
0.33
0.25
0.13
0.02
0.00
0.02
0.00
0.00
0.01
0.00
0.02
0.02
0.02
0.01
0.01
0.01
0.00
0.00
0.00
0.00
0.04
0.01
0.01
0.01
0.00
0.02
0.01
0.01
0.02
0.02
0.02
0.02
0.02
0.02
0.01
0.01
0.01
0.01
0.00
0.02
0.00
0.02
0.01
0.01
0.00
0.00
0.00
0.00
0.00
0.00
0.00
0.00
0.02
0.04
0.02
0.04
0.04
0.11
0.13
0.19
0.04
0.04
0.05
0.15
0.11
0.05
0.02
0.05
0.10
0.06
0.07
0.04
0.45
0.71
0.61
0.86
0.75
0.63
0.57
0.19
0.00
0.06
0.00
0.00
0.02
0.04
0.04
0.04
0.04
0.15
0.11
0.11
0.15
0.15
0.15
0.19
0.21
0.24
0.25
0.24
0.21
0.19
0.19
0.11
0.10
0.04
0.00
0.02
0.15
0.05
0.07
0.06
0.02
0.00
0.00
0.00
0.02
0.01
0.02
0.01
0.02
0.02
0.01
0.00
0.02
0.02
0.01
0.01
0.01
0.01
0.01
0.02
0.01
0.01
0.01
0.00
0.01
0.00
0.01
0.00
0.00
0.00
0.00
0.00
0.00
0.00
0.00
0.02
0.00
0.02
0.00
0.00
0.00
0.02
0.02
0.00
0.01
0.02
0.02
0.07
0.15
0.14
0.07
0.04
0.06
0.15
0.07
0.05
0.07
0.11
0.15
0.11
0.11
0.00
0.24
0.71
0.61
0.66
0.61
0.61
0.61
0.27
0.19
0.19
0.15
0.16
0.11
0.10
0.10
0.10
0.07
0.05
0.15
0.07
0.07
0.10
0.11
0.11
0.10
0.16
0.15
0.19
0.23
0.27
0.31
0.33
0.33
0.33
0.36
0.31
0.31
0.26
0.23
0.16
0.10
0.07
0.06
0.07
0.07
0.02
0.00
0.02
0.02
0.02
0.02
0.02
0.02
0.02
0.02
0.00
0.02
0.02
0.02
0.00
0.02
0.02
0.00
0.02
0.02
0.00
0.06
0.05
0.05
0.02
0.06
0.02
0.05
0.06
0.05
0.06
0.06
0.05
0.02
0.02
0.00
0.00
0.04
0.07
0.19
0.11
0.10
0.01
0.05
0.02
0.10
0.07
0.10
0.11
0.11
0.15
0.16
0.04
0.38
0.66
0.61
0.66
0.62
0.64
0.61
0.26
0.23
0.10
0.11
0.06
0.02
0.02
0.02
0.00
0.00
0.00
0.01
0.02
0.02
0.10
0.11
0.13
0.14
0.15
0.21
0.24
0.21
0.19
0.19
0.15
0.11
0.04
0.01
0.00
0.05
0.02
0.02
0.02
0.00
0.00
0.00
0.00
0.00
0.00
0.00
0.00
0.01
0.01
0.02
0.01
0.01
0.00
0.02
0.01
0.02
0.01
0.01
0.00
0.00
0.00
0.01
0.01
0.01
0.00
0.01
0.00
0.01
0.01
0.01
0.00
0.01
0.00
0.00
0.01
0.00
0.01
0.00
0.00
0.00
0.01
0.04
0.04
0.11
0.21
0.19
0.14
0.11
0.00
0.02
0.02
0.05
0.02
0.02
0.02
0.06
0.07
0.02
0.50
0.71
0.61
0.87
0.75
0.66
0.59
0.15
0.02
0.02
0.00
0.02
0.02
0.04
0.04
0.11
0.11
0.14
0.15
0.19
0.19
0.24
0.29
0.33
0.38
0.39
0.38
0.42
0.44
0.42
0.38
0.33
0.21
0.15
0.10
0.00
0.00
0.02
0.02
0.02
0.00
0.00
0.00
0.04
0.01
0.01
0.01
0.01
0.01
0.01
0.00
0.02
0.01
0.04
0.02
0.04
0.02
0.04
0.04
0.04
0.07
0.04
0.02
0.02
0.02
0.01
0.01
0.00
0.01
0.00
0.00
0.00
0.00
0.00
0.00
0.02
0.00
0.00
0.00
0.02
0.00
0.00
0.00
0.00
0.00
0.04
0.02
0.11
0.11
0.24
0.11
0.07
0.00
0.05
0.05
0.07
0.05
0.02
0.06
0.05
0.02
0.05
0.25
0.53
0.68
0.80
0.86
0.61
0.64
0.54
0.06
0.05
0.02
0.00
0.01
0.01
0.01
0.02
0.04
0.07
0.04
0.10
0.10
0.13
0.14
0.15
0.19
0.19
0.19
0.24
0.21
0.19
0.15
0.13
0.07
0.04
0.01
0.00
0.06
0.10
0.10
0.07
0.02
0.00
0.00
0.01
0.01
0.01
0.01
0.01
0.01
0.00
0.01
0.01
0.01
0.01
0.01
0.01
0.01
0.00
0.02
0.00
0.01
0.01
0.01
0.00
0.01
0.00
0.00
0.00
0.00
0.00
0.02
0.00
0.02
0.02
0.02
0.02
0.00
0.00
0.00
0.00
0.00
0.00
0.00
0.00
0.02
0.04
0.04
0.10
0.24
0.14
0.07
0.02
0.05
0.06
0.10
0.06
0.05
0.07
0.05
0.07
0.06
0.01
0.44
0.71
0.61
0.84
0.71
0.62
0.58
0.15
0.10
0.05
0.02
0.00
0.00
0.00
0.00
0.00
0.02
0.01
0.04
0.04
0.04
0.11
0.11
0.10
0.11
0.11
0.13
0.13
0.13
0.11
0.04
0.01
0.01
0.00
0.02
0.15
0.15
0.19
0.15
0.07
0.06
0.05
0.05
0.05
0.00
0.05
0.00
0.00
0.02
0.00
0.00
0.00
0.00
0.00
0.00
0.00
0.00
0.00
0.00
0.02
0.00
0.02
0.05
0.02
0.02
0.06
0.05
0.07
0.07
0.06
0.10
0.10
0.11
0.15
0.10
0.15
0.11
0.15
0.15
0.15
0.11
0.15
0.11
0.15
0.11
0.10
0.11
0.10
0.00
0.06
0.02
0.02
0.07
0.01
0.01
0.10
0.20
0.19
0.23
0.15
0.15
0.20
0.19
0.19
0.29
0.07
0.44
0.52
0.62
0.61
0.61
0.61
0.55
0.15
0.23
0.11
0.11
0.15
0.07
0.10
0.07
0.07
0.02
0.06
0.05
0.06
0.06
0.07
0.07
0.06
0.11
0.11
0.15
0.16
0.19
0.15
0.26
0.26
0.26
0.26
0.26
0.26
0.23
0.20
0.15
0.15
0.07
0.07
0.02
0.02
0.05
0.00
0.00
0.00
0.00
0.00
0.02
0.02
0.00
0.00
0.00
0.02
0.02
0.02
0.00
0.02
0.00
0.02
0.02
0.00
0.00
0.02
0.02
0.02
0.02
0.02
0.00
0.02
0.00
0.02
0.02
0.02
0.00
0.01
0.01
0.07
0.04
0.19
0.11
0.07
0.01
0.07
0.06
0.11
0.06
0.10
0.15
0.11
0.11
0.15
0.11
0.49
0.70
0.65
0.78
0.64
0.62
0.58
0.11
0.05
0.02
0.00
0.01
0.01
0.02
0.04
0.04
0.07
0.11
0.10
0.11
0.14
0.14
0.19
0.21
0.26
0.29
0.33
0.36
0.36
0.36
0.29
0.24
0.15
0.11
0.04
0.00
0.02
0.05
0.05
0.02
0.02
0.00
0.00
0.01
0.01
0.01
0.02
0.01
0.02
0.01
0.01
0.04
0.04
0.01
0.04
0.04
0.02
0.04
0.04
0.04
0.02
0.04
0.02
0.02
0.01
0.02
0.01
0.01
0.00
0.01
0.01
0.00
0.01
0.00
0.01
0.01
0.01
0.01
0.01
0.01
0.00
0.01
0.01
0.02
0.07
0.10
0.07
0.14
0.15
0.15
0.07
0.04
0.02
0.05
0.06
0.05
0.02
0.02
0.05
0.02
0.06
0.00
0.47
0.68
0.59
0.85
0.83
0.63
0.59
0.27
0.02
0.02
0.00
0.02
0.02
0.04
0.04
0.10
0.10
0.11
0.14
0.13
0.14
0.19
0.24
0.24
0.29
0.26
0.33
0.36
0.33
0.29
0.26
0.24
0.15
0.13
0.11
0.01
0.02
0.02
0.06
0.05
0.00
0.00
0.00
0.01
0.02
0.04
0.04
0.04
0.01
0.01
0.01
0.02
0.02
0.02
0.04
0.01
0.01
0.04
0.04
0.04
0.04
0.02
0.01
0.02
0.01
0.01
0.01
0.01
0.00
0.00
0.00
0.01
0.00
0.00
0.00
0.00
0.00
0.01
0.01
0.00
0.00
0.01
0.04
0.10
0.04
0.13
0.21
0.19
0.10
0.07
0.02
0.10
0.07
0.05
0.05
0.05
0.05
0.06
0.05
0.04
0.50
0.74
0.63
0.85
0.72
0.63
0.58
0.10
0.10
0.02
0.00
0.01
0.01
0.01
0.01
0.04
0.07
0.04
0.11
0.10
0.14
0.13
0.14
0.19
0.19
0.19
0.19
0.19
0.15
0.14
0.11
0.04
0.01
0.00
0.05
0.11
0.15
0.15
0.15
0.10
0.05
0.02
0.00
0.00
0.00
0.00
0.01
0.01
0.00
0.00
0.00
0.00
0.01
0.01
0.01
0.00
0.01
0.00
0.01
0.01
0.00
0.00
0.00
0.00
0.00
0.00
0.02
0.02
0.02
0.05
0.05
0.02
0.06
0.02
0.06
0.07
0.05
0.05
0.05
0.05
0.05
0.06
0.06
0.06
0.05
0.02
0.01
0.02
0.04
0.01
0.13
0.00
0.00
0.06
0.23
0.16
0.16
0.15
0.15
0.15
0.16
0.15
0.19
0.21
0.49
0.49
0.78
0.86
0.62
0.64
0.55
0.07
0.11
0.07
0.05
0.02
0.00
0.00
0.00
0.01
0.02
0.04
0.04
0.07
0.07
0.11
0.11
0.11
0.11
0.13
0.11
0.11
0.10
0.04
0.04
0.00
0.00
0.02
0.10
0.16
0.20
0.26
0.19
0.11
0.10
0.07
0.07
0.02
0.05
0.00
0.02
0.02
0.02
0.02
0.02
0.02
0.02
0.02
0.02
0.05
0.00
0.02
0.02
0.02
0.02
0.02
0.02
0.05
0.05
0.05
0.02
0.07
0.05
0.07
0.02
0.06
0.07
0.06
0.06
0.06
0.05
0.05
0.02
0.07
0.06
0.05
0.02
0.01
0.02
0.04
0.00
0.14
0.02
0.02
0.02
0.15
0.15
0.15
0.11
0.10
0.15
0.15
0.11
0.16
0.11
0.36
0.71
0.61
0.63
0.62
0.62
0.59
0.20
0.20
0.10
0.10
0.07
0.10
0.06
0.06
0.07
0.05
0.11
0.05
0.05
0.10
0.05
0.02
0.07
0.07
0.15
0.15
0.11
0.15
0.19
0.20
0.23
0.26
0.23
0.27
0.23
0.19
0.16
0.15
0.10
0.06
0.05
0.02
0.00
0.02
0.00
0.01
0.00
0.00
0.00
0.00
0.00
0.01
0.00
0.00
0.00
0.00
0.00
0.00
0.01
0.00
0.00
0.00
0.00
0.00
0.00
0.00
0.00
0.02
0.02
0.00
0.02
0.02
0.02
0.02
0.02
0.02
0.02
0.02
0.04
0.01
0.07
0.11
0.21
0.14
0.11
0.02
0.02
0.00
0.05
0.02
0.02
0.06
0.02
0.02
0.10
0.24
0.55
0.68
0.66
0.75
0.62
0.64
0.59
0.05
0.05
0.00
0.00
0.01
0.02
0.04
0.04
0.10
0.10
0.11
0.11
0.15
0.19
0.24
0.24
0.29
0.33
0.36
0.36
0.42
0.39
0.39
0.36
0.29
0.25
0.19
0.07
0.04
0.00
0.00
0.01
0.00
0.02
0.02
0.04
0.10
0.11
0.10
0.10
0.10
0.10
0.11
0.11
0.13
0.11
0.11
0.11
0.10
0.10
0.11
0.11
0.10
0.04
0.10
0.10
0.07
0.04
0.07
0.04
0.04
0.04
0.04
0.04
0.04
0.01
0.01
0.04
0.01
0.04
0.01
0.02
0.02
0.11
0.11
0.13
0.19
0.36
0.25
0.19
0.14
0.02
0.00
0.00
0.01
0.01
0.00
0.00
0.00
0.01
0.19
0.57
0.79
0.65
0.86
0.71
0.62
0.54
0.05
0.01
0.00
0.02
0.07
0.11
0.11
0.11
0.13
0.11
0.14
0.15
0.21
0.21
0.24
0.24
0.33
0.36
0.39
0.39
0.39
0.39
0.39
0.36
0.33
0.24
0.19
0.11
0.04
0.01
0.00
0.00
0.00
0.01
0.04
0.07
0.11
0.11
0.11
0.10
0.10
0.10
0.11
0.11
0.11
0.13
0.10
0.11
0.13
0.11
0.13
0.11
0.13
0.13
0.11
0.13
0.10
0.11
0.11
0.11
0.07
0.10
0.07
0.04
0.07
0.04
0.04
0.02
0.02
0.01
0.02
0.01
0.01
0.01
0.02
0.01
0.02
0.04
0.13
0.07
0.15
0.14
0.33
0.15
0.13
0.02
0.02
0.02
0.02
0.00
0.01
0.00
0.00
0.00
0.00
0.44
0.61
0.67
0.78
0.86
0.60
0.63
0.49
0.02
0.01
0.04
0.04
0.10
0.10
0.11
0.13
0.14
0.13
0.19
0.19
0.24
0.24
0.24
0.25
0.26
0.26
0.26
0.33
0.26
0.26
0.26
0.19
0.14
0.11
0.07
0.02
0.00
0.05
0.05
0.02
0.00
0.00
0.01
0.02
0.07
0.07
0.04
0.10
0.07
0.04
0.04
0.04
0.07
0.07
0.04
0.10
0.04
0.07
0.10
0.10
0.10
0.10
0.07
0.04
0.04
0.07
0.04
0.04
0.04
0.02
0.02
0.02
0.04
0.04
0.02
0.01
0.01
0.02
0.02
0.01
0.02
0.01
0.04
0.11
0.07
0.19
0.13
0.25
0.11
0.10
0.00
0.06
0.07
0.07
0.05
0.02
0.06
0.06
0.06
0.11
0.38
0.60
0.00
0.83
0.80
0.63
0.61
0.33
0.05
0.02
0.05
0.00
0.01
0.01
0.04
0.01
0.04
0.04
0.07
0.11
0.11
0.11
0.11
0.13
0.13
0.15
0.15
0.19
0.14
0.11
0.11
0.07
0.01
0.02
0.00
0.06
0.06
0.06
0.06
0.05
0.02
0.00
0.01
0.04
0.00
0.04
0.02
0.04
0.01
0.01
0.01
0.04
0.01
0.04
0.02
0.04
0.04
0.02
0.01
0.02
0.01
0.01
0.01
0.00
0.00
0.00
0.00
0.00
0.00
0.00
0.00
0.02
0.00
0.02
0.02
0.02
0.05
0.02
0.05
0.02
0.05
0.02
0.02
0.00
0.00
0.04
0.01
0.14
0.00
0.01
0.05
0.16
0.15
0.15
0.16
0.16
0.16
0.20
0.20
0.31
0.07
0.36
0.61
0.64
0.68
0.60
0.63
0.59
0.23
0.33
0.23
0.23
0.20
0.16
0.16
0.19
0.15
0.15
0.15
0.15
0.15
0.15
0.11
0.15
0.15
0.16
0.15
0.19
0.27
0.26
0.31
0.27
0.31
0.33
0.33
0.29
0.33
0.27
0.20
0.16
0.15
0.10
0.07
0.02
0.02
0.02
0.02
0.00
0.00
0.00
0.00
0.00
0.00
0.00
0.02
0.00
0.00
0.00
0.00
0.00
0.00
0.00
0.01
0.00
0.00
0.01
0.00
0.05
0.01
0.01
0.00
0.00
0.02
0.00
0.01
0.00
0.00
0.02
0.00
0.01
0.07
0.01
0.13
0.15
0.14
0.21
0.04
0.01
0.00
0.05
0.06
0.07
0.07
0.11
0.07
0.10
0.16
0.21
0.57
0.02
0.73
0.73
0.63
0.61
0.49
0.06
0.10
0.02
0.02
0.00
0.00
0.00
0.01
0.01
0.02
0.07
0.10
0.10
0.11
0.19
0.19
0.21
0.25
0.33
0.33
0.36
0.29
0.36
0.26
0.24
0.15
0.11
0.01
0.00
0.00
0.02
0.00
0.00
0.01
0.00
0.01
0.04
0.01
0.04
0.00
0.11
0.01
0.01
0.04
0.04
0.01
0.02
0.01
0.04
0.02
0.01
0.01
0.01
0.01
0.01
0.00
0.01
0.01
0.01
0.01
0.00
0.01
0.00
0.00
0.01
0.02
0.00
0.01
0.00
0.01
0.01
0.00
0.04
0.10
0.10
0.15
0.19
0.25
0.15
0.11
0.01
0.05
0.02
0.02
0.00
0.02
0.05
0.00
0.05
0.02
0.47
0.66
0.47
0.86
0.85
0.66
0.60
0.29
0.05
0.05
0.00
0.00
0.01
0.01
0.02
0.04
0.07
0.04
0.13
0.10
0.11
0.15
0.19
0.21
0.25
0.26
0.29
0.26
0.29
0.29
0.26
0.15
0.21
0.11
0.02
0.00
0.02
0.05
0.02
0.02
0.00
0.01
0.00
0.02
0.01
0.02
0.02
0.01
0.02
0.01
0.00
0.01
0.02
0.01
0.01
0.01
0.01
0.04
0.02
0.04
0.01
0.01
0.04
0.01
0.01
0.01
0.01
0.01
0.00
0.00
0.01
0.01
0.00
0.01
0.00
0.01
0.00
0.01
0.00
0.01
0.00
0.00
0.01
0.07
0.10
0.10
0.13
0.21
0.15
0.07
0.01
0.06
0.06
0.07
0.02
0.02
0.06
0.02
0.02
0.02
0.19
0.53
0.74
0.75
0.86
0.63
0.61
0.56
0.05
0.06
0.02
0.00
0.01
0.01
0.01
0.01
0.04
0.04
0.10
0.04
0.13
0.11
0.14
0.19
0.21
0.19
0.19
0.24
0.19
0.19
0.15
0.13
0.07
0.04
0.01
0.00
0.05
0.10
0.07
0.06
0.02
0.02
0.00
0.01
0.02
0.01
0.04
0.02
0.04
0.01
0.02
0.01
0.01
0.02
0.04
0.02
0.04
0.04
0.02
0.04
0.04
0.04
0.04
0.02
0.04
0.01
0.02
0.01
0.01
0.01
0.00
0.01
0.00
0.02
0.00
0.00
0.00
0.00
0.00
0.00
0.00
0.04
0.01
0.11
0.19
0.14
0.07
0.02
0.05
0.10
0.10
0.06
0.10
0.06
0.07
0.10
0.10
0.07
0.36
0.67
0.61
0.80
0.73
0.63
0.61
0.29
0.15
0.16
0.15
0.11
0.07
0.07
0.05
0.05
0.02
0.05
0.02
0.02
0.02
0.02
0.02
0.02
0.02
0.02
0.06
0.07
0.10
0.15
0.20
0.20
0.23
0.23
0.27
0.31
0.29
0.27
0.20
0.15
0.10
0.07
0.02
0.02
0.00
0.00
0.00
0.00
0.00
0.00
0.00
0.00
0.00
0.00
0.02
0.00
0.00
0.05
0.00
0.00
0.02
0.00
0.00
0.05
0.00
0.05
0.02
0.06
0.02
0.06
0.05
0.02
0.05
0.02
0.02
0.05
0.02
0.02
0.05
0.02
0.01
0.00
0.07
0.04
0.11
0.13
0.07
0.01
0.05
0.05
0.11
0.10
0.05
0.15
0.15
0.16
0.26
0.07
0.52
0.44
0.63
0.62
0.62
0.62
0.56
0.16
0.19
0.15
0.15
0.10
0.07
0.06
0.05
0.06
0.07
0.02
0.02
0.02
0.02
0.02
0.06
0.05
0.02
0.05
0.05
0.05
0.05
0.06
0.07
0.07
0.10
0.10
0.15
0.11
0.11
0.11
0.07
0.05
0.06
0.02
0.02
0.00
0.00
0.00
0.00
0.00
0.00
0.01
0.01
0.00
0.00
0.00
0.01
0.02
0.00
0.00
0.00
0.02
0.00
0.02
0.00
0.00
0.02
0.02
0.00
0.02
0.02
0.02
0.05
0.02
0.02
0.02
0.02
0.02
0.00
0.04
0.01
0.11
0.24
0.14
0.11
0.07
0.00
0.02
0.05
0.06
0.00
0.05
0.02
0.05
0.02
0.15
0.54
0.74
0.67
0.86
0.71
0.62
0.59
0.05
0.02
0.00
0.00
0.01
0.02
0.04
0.07
0.07
0.11
0.11
0.11
0.15
0.19
0.21
0.26
0.29
0.36
0.38
0.44
0.42
0.45
0.44
0.44
0.36
0.36
0.19
0.11
0.02
0.01
0.00
0.02
0.01
0.00
0.01
0.02
0.04
0.04
0.04
0.04
0.04
0.01
0.01
0.02
0.02
0.01
0.01
0.01
0.04
0.01
0.01
0.01
0.01
0.01
0.02
0.01
0.01
0.01
0.01
0.00
0.00
0.01
0.01
0.00
0.01
0.01
0.01
0.01
0.01
0.01
0.00
0.01
0.04
0.11
0.07
0.19
0.24
0.29
0.19
0.11
0.01
0.02
0.02
0.02
0.00
0.02
0.02
0.02
0.06
0.00
0.47
0.64
0.49
0.87
0.85
0.66
0.61
0.29
0.02
0.02
0.00
0.01
0.02
0.02
0.07
0.04
0.04
0.11
0.11
0.14
0.15
0.19
0.19
0.24
0.26
0.25
0.29
0.26
0.26
0.29
0.21
0.19
0.15
0.13
0.02
0.01
0.00
0.02
0.05
0.02
0.02
0.00
0.01
0.04
0.01
0.04
0.02
0.01
0.02
0.01
0.02
0.01
0.01
0.02
0.02
0.01
0.02
0.01
0.01
0.01
0.01
0.01
0.01
0.01
0.01
0.02
0.01
0.01
0.04
0.01
0.01
0.01
0.00
0.01
0.00
0.01
0.01
0.00
0.00
0.01
0.04
0.04
0.04
0.11
0.21
0.13
0.07
0.01
0.07
0.10
0.10
0.07
0.06
0.10
0.11
0.10
0.11
0.11
0.47
0.73
0.65
0.83
0.65
0.62
0.59
0.16
0.15
0.07
0.06
0.05
0.02
0.02
0.02
0.00
0.00
0.00
0.00
0.00
0.00
0.01
0.00
0.00
0.00
0.00
0.02
0.06
0.05
0.15
0.15
0.19
0.20
0.23
0.20
0.27
0.27
0.27
0.20
0.15
0.07
0.06
0.05
0.05
0.02
0.00
0.00
0.02
0.06
0.02
0.05
0.05
0.05
0.05
0.02
0.07
0.05
0.05
0.02
0.02
0.05
0.05
0.07
0.06
0.06
0.07
0.05
0.05
0.07
0.06
0.02
0.06
0.11
0.05
0.11
0.06
0.07
0.00
0.00
0.00
0.00
0.10
0.11
0.04
0.01
0.10
0.15
0.11
0.07
0.16
0.15
0.19
0.15
0.23
0.29
0.02
0.53
0.16
0.68
0.62
0.62
0.63
0.56
0.16
0.20
0.19
0.10
0.11
0.07
0.07
0.10
0.06
0.06
0.06
0.05
0.02
0.02
0.02
0.00
0.02
0.00
0.02
0.02
0.00
0.00
0.06
0.02
0.10
0.06
0.10
0.10
0.15
0.11
0.11
0.10
0.06
0.02
0.02
0.05
0.00
0.02
0.00
0.00
0.00
0.00
0.00
0.00
0.00
0.00
0.00
0.00
0.01
0.00
0.00
0.00
0.00
0.00
0.00
0.02
0.00
0.00
0.02
0.02
0.00
0.00
0.02
0.02
0.00
0.02
0.00
0.02
0.02
0.02
0.00
0.00
0.02
0.02
0.07
0.07
0.24
0.11
0.07
0.02
0.05
0.10
0.06
0.06
0.05
0.06
0.07
0.10
0.02
0.13
0.52
0.73
0.66
0.85
0.72
0.61
0.59
0.10
0.02
0.02
0.00
0.01
0.04
0.02
0.04
0.04
0.10
0.11
0.11
0.11
0.14
0.19
0.21
0.25
0.33
0.33
0.38
0.38
0.42
0.42
0.38
0.33
0.24
0.19
0.14
0.04
0.00
0.02
0.06
0.02
0.00
0.00
0.00
0.00
0.01
0.01
0.01
0.01
0.01
0.01
0.02
0.01
0.02
0.01
0.04
0.04
0.04
0.04
0.02
0.07
0.10
0.04
0.04
0.04
0.01
0.04
0.04
0.01
0.04
0.00
0.02
0.00
0.01
0.01
0.01
0.00
0.02
0.01
0.04
0.10
0.11
0.11
0.19
0.26
0.21
0.11
0.10
0.00
0.02
0.05
0.02
0.02
0.05
0.02
0.02
0.05
0.01
0.49
0.70
0.62
0.86
0.79
0.66
0.58
0.19
0.02
0.00
0.01
0.04
0.02
0.04
0.07
0.07
0.11
0.11
0.14
0.11
0.19
0.15
0.21
0.24
0.25
0.24
0.26
0.26
0.29
0.25
0.21
0.19
0.11
0.07
0.02
0.00
0.02
0.05
0.05
0.02
0.00
0.01
0.02
0.01
0.02
0.04
0.04
0.02
0.04
0.02
0.02
0.04
0.04
0.02
0.04
0.02
0.04
0.04
0.02
0.04
0.01
0.02
0.04
0.02
0.02
0.02
0.01
0.01
0.01
0.01
0.01
0.00
0.00
0.00
0.00
0.00
0.00
0.00
0.00
0.02
0.04
0.04
0.02
0.11
0.14
0.19
0.10
0.01
0.02
0.11
0.11
0.10
0.07
0.10
0.11
0.10
0.11
0.20
0.15
0.57
0.15
0.72
0.73
0.62
0.61
0.51
0.16
0.20
0.19
0.15
0.11
0.11
0.07
0.07
0.07
0.11
0.06
0.05
0.05
0.06
0.07
0.07
0.07
0.05
0.10
0.10
0.19
0.19
0.16
0.23
0.23
0.27
0.23
0.29
0.29
0.26
0.20
0.15
0.11
0.10
0.06
0.02
0.02
0.00
0.02
0.02
0.00
0.00
0.02
0.02
0.00
0.02
0.00
0.02
0.02
0.00
0.02
0.02
0.00
0.00
0.02
0.02
0.02
0.05
0.02
0.07
0.02
0.07
0.06
0.07
0.05
0.07
0.05
0.07
0.06
0.02
0.00
0.01
0.01
0.01
0.13
0.11
0.04
0.04
0.06
0.10
0.10
0.11
0.15
0.15
0.19
0.19
0.19
0.19
0.10
0.53
0.27
0.68
0.62
0.62
0.63
0.51
0.16
0.16
0.10
0.11
0.06
0.02
0.02
0.00
0.02
0.00
0.02
0.00
0.00
0.00
0.01
0.00
0.01
0.02
0.02
0.04
0.01
0.02
0.04
0.01
0.02
0.00
0.00
0.02
0.06
0.06
0.06
0.02
0.02
0.00
0.02
0.01
0.00
0.01
0.00
0.01
0.01
0.02
0.02
0.01
0.04
0.02
0.01
0.01
0.01
0.00
0.00
0.00
0.00
0.00
0.02
0.02
0.02
0.02
0.02
0.02
0.02
0.02
0.02
0.02
0.00
0.02
0.00
0.00
0.02
0.00
0.00
0.01
0.07
0.02
0.11
0.15
0.15
0.10
0.04
0.00
0.06
0.06
0.05
0.05
0.02
0.06
0.06
0.10
0.02
0.44
0.63
0.44
0.85
0.86
0.66
0.61
0.33
0.02
0.02
0.00
0.01
0.01
0.07
0.04
0.04
0.10
0.10
0.13
0.15
0.19
0.24
0.21
0.26
0.29
0.39
0.39
0.44
0.44
0.42
0.44
0.38
0.29
0.25
0.15
0.04
0.00
0.02
0.00
0.00
0.00
0.02
0.01
0.04
0.04
0.07
0.04
0.04
0.04
0.04
0.02
0.04
0.02
0.04
0.04
0.04
0.04
0.02
0.04
0.07
0.07
0.04
0.07
0.02
0.07
0.04
0.04
0.04
0.02
0.02
0.02
0.02
0.04
0.01
0.01
0.02
0.01
0.04
0.13
0.11
0.15
0.19
0.25
0.15
0.10
0.01
0.02
0.02
0.02
0.07
0.02
0.05
0.05
0.11
0.05
0.42
0.63
0.49
0.87
0.87
0.66
0.61
0.41
0.06
0.02
0.00
0.00
0.01
0.01
0.04
0.02
0.04
0.11
0.10
0.13
0.15
0.13
0.15
0.19
0.21
0.26
0.26
0.25
0.24
0.24
0.21
0.19
0.13
0.11
0.00
0.00
0.05
0.10
0.05
0.02
0.00
0.00
0.00
0.00
0.01
0.01
0.01
0.00
0.00
0.01
0.01
0.01
0.01
0.01
0.01
0.01
0.04
0.02
0.02
0.02
0.01
0.02
0.01
0.02
0.00
0.00
0.01
0.01
0.01
0.00
0.00
0.00
0.00
0.00
0.00
0.00
0.02
0.00
0.00
0.02
0.00
0.00
0.02
0.02
0.00
0.04
0.01
0.04
0.11
0.13
0.01
0.00
0.07
0.15
0.16
0.07
0.11
0.07
0.11
0.06
0.15
0.02
0.29
0.69
0.58
0.75
0.67
0.61
0.59
0.27
0.10
0.10
0.07
0.02
0.00
0.00
0.00
0.00
0.00
0.01
0.00
0.00
0.02
0.00
0.00
0.01
0.00
0.02
0.05
0.05
0.07
0.10
0.15
0.15
0.15
0.19
0.20
0.19
0.23
0.19
0.11
0.10
0.11
0.02
0.00
0.02
0.00
0.00
0.02
0.00
0.00
0.02
0.00
0.02
0.00
0.00
0.00
0.00
0.05
0.00
0.02
0.00
0.00
0.00
0.00
0.02
0.00
0.02
0.00
0.02
0.02
0.02
0.02
0.00
0.02
0.00
0.02
0.02
0.00
0.00
0.01
0.04
0.02
0.07
0.01
0.19
0.14
0.07
0.04
0.07
0.07
0.11
0.05
0.06
0.10
0.15
0.11
0.15
0.07
0.36
0.66
0.62
0.67
0.61
0.64
0.61
0.20
0.15
0.05
0.05
0.02
0.00
0.00
0.00
0.01
0.01
0.01
0.02
0.02
0.04
0.07
0.07
0.10
0.11
0.11
0.13
0.14
0.15
0.14
0.13
0.11
0.07
0.07
0.01
0.01
0.00
0.02
0.02
0.02
0.01
0.00
0.00
0.01
0.01
0.02
0.11
0.10
0.10
0.07
0.10
0.10
0.10
0.07
0.04
0.07
0.07
0.04
0.04
0.04
0.01
0.02
0.01
0.01
0.02
0.02
0.00
0.01
0.01
0.01
0.01
0.01
0.02
0.00
0.02
0.01
0.01
0.02
0.01
0.10
0.10
0.15
0.14
0.29
0.19
0.13
0.10
0.00
0.00
0.02
0.00
0.02
0.00
0.00
0.02
0.00
0.44
0.61
0.01
0.85
0.86
0.65
0.61
0.39
0.00
0.00
0.01
0.02
0.04
0.07
0.10
0.11
0.13
0.11
0.15
0.14
0.19
0.24
0.29
0.33
0.38
0.42
0.44
0.45
0.49
0.47
0.45
0.36
0.38
0.29
0.19
0.11
0.02
0.00
0.01
0.01
0.01
0.01
0.04
0.04
0.04
0.10
0.04
0.04
0.07
0.04
0.07
0.04
0.10
0.04
0.07
0.10
0.07
0.07
0.07
0.07
0.04
0.04
0.07
0.04
0.04
0.04
0.02
0.02
0.04
0.04
0.02
0.01
0.01
0.04
0.01
0.02
0.02
0.02
0.01
0.01
0.02
0.02
0.10
0.13
0.11
0.15
0.24
0.21
0.11
0.11
0.00
0.02
0.05
0.02
0.00
0.02
0.02
0.02
0.02
0.02
0.52
0.71
0.64
0.86
0.78
0.65
0.59
0.16
0.02
0.00
0.00
0.02
0.02
0.02
0.10
0.07
0.11
0.11
0.13
0.13
0.15
0.19
0.24
0.24
0.25
0.33
0.29
0.33
0.36
0.25
0.24
0.19
0.15
0.11
0.07
0.00
0.02
0.06
0.02
0.00
0.00
0.00
0.01
0.01
0.02
0.02
0.04
0.02
0.04
0.01
0.01
0.01
0.01
0.01
0.01
0.04
0.04
0.01
0.02
0.00
0.01
0.00
0.01
0.00
0.01
0.00
0.00
0.00
0.00
0.00
0.00
0.02
0.00
0.00
0.00
0.00
0.00
0.02
0.02
0.00
0.02
0.01
0.04
0.04
0.19
0.13
0.11
0.01
0.06
0.05
0.15
0.06
0.11
0.07
0.10
0.11
0.16
0.00
0.26
0.70
0.63
0.71
0.61
0.61
0.61
0.27
0.19
0.11
0.10
0.07
0.07
0.07
0.06
0.02
0.02
0.05
0.00
0.02
0.00
0.02
0.02
0.02
0.02
0.02
0.06
0.05
0.02
0.07
0.11
0.15
0.19
0.19
0.16
0.20
0.20
0.15
0.15
0.10
0.10
0.10
0.02
0.02
0.02
0.02
0.02
0.00
0.02
0.00
0.00
0.00
0.00
0.02
0.00
0.02
0.00
0.02
0.00
0.06
0.02
0.02
0.05
0.05
0.06
0.06
0.05
0.05
0.02
0.05
0.05
0.06
0.02
0.07
0.02
0.07
0.07
0.07
0.05
0.01
0.00
0.02
0.01
0.13
0.04
0.01
0.00
0.11
0.11
0.19
0.15
0.15
0.16
0.15
0.16
0.26
0.13
0.53
0.52
0.68
0.75
0.65
0.64
0.58
0.15
0.15
0.10
0.07
0.02
0.00
0.00
0.00
0.01
0.01
0.04
0.04
0.10
0.07
0.11
0.13
0.15
0.19
0.21
0.19
0.24
0.25
0.24
0.25
0.15
0.11
0.04
0.04
0.00
0.02
0.02
0.02
0.02
0.02
0.00
0.00
0.00
0.00
0.01
0.00
0.01
0.00
0.01
0.01
0.00
0.00
0.01
0.00
0.01
0.00
0.00
0.00
0.00
0.02
0.00
0.00
0.00
0.00
0.00
0.00
0.00
0.02
0.00
0.00
0.00
0.05
0.02
0.02
0.05
0.02
0.02
0.00
0.04
0.00
0.10
0.13
0.19
0.11
0.04
0.00
0.07
0.05
0.05
0.06
0.06
0.07
0.10
0.10
0.02
0.44
0.64
0.49
0.86
0.87
0.66
0.61
0.39
0.06
0.07
0.02
0.00
0.00
0.00
0.00
0.00
0.00
0.01
0.01
0.01
0.01
0.01
0.02
0.04
0.04
0.07
0.07
0.07
0.07
0.04
0.02
0.00
0.00
0.11
0.16
0.29
0.36
0.45
0.45
0.45
0.44
0.36
0.35
0.29
0.27
0.23
0.23
0.19
0.23
0.19
0.15
0.15
0.11
0.10
0.10
0.10
0.07
0.07
0.07
0.02
0.02
0.02
0.02
0.02
0.00
0.00
0.00
0.00
0.00
0.00
0.00
0.00
0.00
0.00
0.00
0.02
0.00
0.00
0.00
0.01
0.00
0.00
0.01
0.01
0.01
0.07
0.07
0.11
0.11
0.21
0.13
0.04
0.01
0.05
0.10
0.07
0.06
0.02
0.05
0.10
0.05
0.05
0.13
0.52
0.75
0.65
0.85
0.68
0.63
0.57
0.10
0.02
0.00
0.00
0.04
0.02
0.04
0.10
0.10
0.11
0.11
0.14
0.14
0.15
0.19
0.24
0.21
0.25
0.25
0.25
0.33
0.36
0.25
0.25
0.19
0.13
0.13
0.07
0.01
0.02
0.02
0.02
0.00
0.01
0.02
0.04
0.04
0.07
0.04
0.07
0.04
0.07
0.02
0.02
0.04
0.02
0.04
0.07
0.04
0.04
0.02
0.04
0.07
0.07
0.04
0.04
0.02
0.04
0.01
0.02
0.02
0.01
0.01
0.02
0.00
0.00
0.01
0.00
0.00
0.01
0.00
0.00
0.00
0.00
0.00
0.00
0.02
0.01
0.04
0.01
0.10
0.04
0.21
0.10
0.04
0.00
0.15
0.10
0.11
0.10
0.07
0.15
0.10
0.11
0.15
0.11
0.42
0.70
0.63
0.71
0.61
0.64
0.58
0.15
0.20
0.11
0.10
0.06
0.02
0.02
0.02
0.02
0.02
0.01
0.00
0.00
0.00
0.00
0.00
0.02
0.00
0.02
0.02
0.02
0.05
0.07
0.15
0.11
0.19
0.15
0.16
0.19
0.20
0.16
0.11
0.07
0.07
0.02
0.02
0.00
0.00
0.00
0.02
0.00
0.00
0.00
0.01
0.01
0.00
0.00
0.00
0.00
0.00
0.00
0.00
0.00
0.00
0.00
0.00
0.00
0.02
0.00
0.02
0.02
0.02
0.00
0.02
0.02
0.02
0.00
0.02
0.00
0.00
0.00
0.00
0.07
0.04
0.11
0.14
0.19
0.10
0.07
0.00
0.05
0.05
0.06
0.10
0.05
0.07
0.06
0.07
0.15
0.15
0.60
0.42
0.66
0.67
0.62
0.62
0.57
0.10
0.11
0.05
0.05
0.00
0.00
0.01
0.01
0.00
0.01
0.02
0.04
0.04
0.11
0.11
0.11
0.11
0.15
0.19
0.24
0.19
0.21
0.15
0.19
0.13
0.13
0.04
0.01
0.00
0.02
0.02
0.02
0.00
0.02
0.00
0.00
0.01
0.01
0.01
0.02
0.04
0.04
0.02
0.02
0.04
0.02
0.02
0.04
0.02
0.01
0.02
0.01
0.00
0.01
0.01
0.00
0.01
0.00
0.00
0.01
0.00
0.00
0.00
0.00
0.00
0.00
0.00
0.00
0.00
0.02
0.02
0.00
0.00
0.02
0.07
0.07
0.11
0.19
0.15
0.10
0.07
0.00
0.07
0.05
0.02
0.05
0.02
0.05
0.06
0.05
0.00
0.44
0.67
0.53
0.84
0.84
0.65
0.61
0.35
0.00
0.07
0.00
0.00
0.02
0.04
0.04
0.02
0.10
0.07
0.11
0.13
0.13
0.15
0.19
0.24
0.24
0.29
0.29
0.29
0.36
0.36
0.26
0.25
0.19
0.13
0.10
0.02
0.00
0.05
0.07
0.07
0.02
0.02
0.00
0.01
0.00
0.01
0.00
0.01
0.00
0.01
0.00
0.01
0.01
0.04
0.01
0.02
0.01
0.02
0.02
0.04
0.01
0.01
0.02
0.01
0.01
0.00
0.02
0.01
0.00
0.01
0.01
0.01
0.01
0.01
0.01
0.01
0.00
0.01
0.00
0.00
0.00
0.00
0.01
0.07
0.04
0.11
0.07
0.21
0.11
0.07
0.01
0.10
0.05
0.11
0.05
0.02
0.06
0.06
0.07
0.07
0.14
0.50
0.73
0.72
0.86
0.66
0.62
0.58
0.11
0.11
0.07
0.02
0.02
0.00
0.00
0.01
0.01
0.01
0.01
0.04
0.07
0.10
0.11
0.11
0.14
0.14
0.19
0.19
0.15
0.15
0.15
0.13
0.11
0.04
0.01
0.00
0.07
0.10
0.11
0.10
0.06
0.05
0.02
0.01
0.00
0.01
0.00
0.00
0.01
0.00
0.00
0.00
0.01
0.00
0.00
0.01
0.00
0.00
0.00
0.01
0.00
0.01
0.00
0.00
0.00
0.02
0.00
0.00
0.00
0.02
0.00
0.05
0.06
0.02
0.06
0.06
0.06
0.05
0.06
0.06
0.00
0.00
0.00
0.04
0.10
0.11
0.02
0.01
0.07
0.16
0.11
0.11
0.11
0.15
0.10
0.15
0.19
0.15
0.19
0.55
0.00
0.75
0.73
0.62
0.61
0.51
0.15
0.23
0.15
0.10
0.07
0.07
0.10
0.10
0.05
0.06
0.06
0.02
0.02
0.06
0.05
0.06
0.06
0.07
0.10
0.11
0.15
0.16
0.20
0.20
0.26
0.29
0.23
0.27
0.29
0.26
0.23
0.16
0.15
0.10
0.06
0.06
0.05
0.05
0.02
0.05
0.00
0.02
0.02
0.02
0.02
0.02
0.02
0.06
0.02
0.02
0.05
0.02
0.02
0.05
0.05
0.05
0.05
0.05
0.06
0.05
0.07
0.05
0.05
0.06
0.06
0.07
0.06
0.10
0.06
0.02
0.00
0.00
0.00
0.04
0.04
0.13
0.07
0.02
0.00
0.15
0.07
0.06
0.11
0.11
0.15
0.11
0.15
0.23
0.13
0.53
0.57
0.63
0.67
0.62
0.63
0.59
0.15
0.16
0.10
0.06
0.05
0.02
0.00
0.02
0.00
0.00
0.01
0.01
0.02
0.02
0.04
0.04
0.10
0.11
0.11
0.13
0.14
0.13
0.13
0.10
0.04
0.04
0.01
0.02
0.02
0.06
0.05
0.07
0.05
0.02
0.02
0.00
0.00
0.02
0.01
0.00
0.00
0.00
0.00
0.01
0.00
0.00
0.00
0.00
0.00
0.00
0.00
0.00
0.02
0.00
0.02
0.00
0.00
0.00
0.00
0.02
0.02
0.02
0.00
0.00
0.00
0.00
0.00
0.02
0.00
0.00
0.00
0.02
0.00
0.02
0.02
0.11
0.07
0.19
0.04
0.04
0.02
0.07
0.11
0.15
0.10
0.07
0.15
0.10
0.15
0.11
0.33
0.53
0.39
0.83
0.87
0.64
0.63
0.49
0.02
0.02
0.00
0.00
0.04
0.01
0.07
0.07
0.04
0.07
0.13
0.13
0.14
0.19
0.19
0.24
0.25
0.25
0.33
0.33
0.33
0.26
0.26
0.21
0.19
0.14
0.11
0.01
0.02
0.05
0.06
0.05
0.02
0.00
0.01
0.00
0.01
0.02
0.01
0.02
0.01
0.01
0.01
0.02
0.02
0.02
0.04
0.04
0.04
0.04
0.04
0.04
0.02
0.02
0.04
0.04
0.02
0.04
0.02
0.01
0.02
0.02
0.01
0.02
0.01
0.02
0.01
0.02
0.01
0.00
0.01
0.01
0.02
0.07
0.11
0.07
0.14
0.24
0.24
0.10
0.07
0.00
0.07
0.06
0.02
0.02
0.05
0.05
0.02
0.07
0.01
0.52
0.71
0.63
0.85
0.75
0.64
0.59
0.15
0.06
0.05
0.00
0.00
0.02
0.02
0.04
0.04
0.07
0.04
0.11
0.13
0.13
0.13
0.15
0.19
0.24
0.21
0.24
0.21
0.24
0.19
0.14
0.11
0.10
0.01
0.00
0.07
0.05
0.10
0.06
0.06
0.02
0.00
0.00
0.01
0.01
0.02
0.01
0.01
0.04
0.01
0.01
0.01
0.01
0.04
0.02
0.02
0.04
0.02
0.07
0.04
0.04
0.04
0.04
0.02
0.02
0.04
0.04
0.02
0.01
0.01
0.02
0.02
0.01
0.02
0.01
0.01
0.01
0.01
0.02
0.00
0.00
0.01
0.00
0.01
0.00
0.04
0.10
0.02
0.11
0.15
0.14
0.04
0.02
0.06
0.11
0.10
0.10
0.05
0.07
0.07
0.07
0.06
0.00
0.42
0.70
0.64
0.80
0.71
0.62
0.57
0.15
0.07
0.02
0.00
0.01
0.00
0.00
0.01
0.02
0.01
0.01
0.04
0.04
0.04
0.07
0.11
0.11
0.13
0.11
0.11
0.11
0.10
0.02
0.02
0.01
0.00
0.02
0.05
0.15
0.15
0.19
0.16
0.11
0.06
0.02
0.02
0.02
0.00
0.00
0.00
0.00
0.00
0.00
0.00
0.02
0.00
0.00
0.00
0.00
0.00
0.00
0.00
0.00
0.00
0.00
0.00
0.00
0.00
0.00
0.00
0.00
0.02
0.00
0.00
0.02
0.02
0.02
0.02
0.05
0.02
0.05
0.02
0.06
0.05
0.02
0.01
0.00
0.04
0.00
0.15
0.07
0.01
0.00
0.11
0.11
0.16
0.15
0.11
0.11
0.15
0.16
0.26
0.04
0.39
0.63
0.61
0.65
0.61
0.62
0.57
0.19
0.19
0.15
0.15
0.07
0.10
0.06
0.02
0.00
0.06
0.05
0.02
0.02
0.02
0.05
0.02
0.02
0.06
0.10
0.06
0.15
0.15
0.15
0.20
0.19
0.23
0.23
0.27
0.23
0.26
0.16
0.15
0.10
0.07
0.06
0.05
0.02
0.02
0.02
0.00
0.02
0.02
0.00
0.02
0.02
0.02
0.02
0.02
0.02
0.02
0.02
0.05
0.05
0.02
0.02
0.06
0.02
0.05
0.02
0.02
0.05
0.05
0.02
0.05
0.02
0.02
0.05
0.06
0.07
0.02
0.02
0.01
0.01
0.07
0.14
0.11
0.10
0.04
0.00
0.06
0.10
0.07
0.11
0.11
0.07
0.10
0.15
0.02
0.19
0.63
0.57
0.75
0.71
0.62
0.61
0.31
0.11
0.06
0.05
0.02
0.00
0.00
0.01
0.01
0.01
0.01
0.04
0.07
0.10
0.13
0.13
0.13
0.15
0.19
0.19
0.21
0.21
0.24
0.19
0.19
0.11
0.10
0.01
0.02
0.06
0.06
0.06
0.07
0.02
0.02
0.02
0.00
0.00
0.00
0.00
0.01
0.00
0.00
0.00
0.00
0.00
0.00
0.01
0.01
0.00
0.01
0.00
0.00
0.00
0.00
0.00
0.00
0.00
0.00
0.00
0.00
0.00
0.00
0.02
0.00
0.00
0.02
0.00
0.02
0.00
0.00
0.00
0.01
0.07
0.04
0.11
0.24
0.13
0.13
0.04
0.00
0.02
0.06
0.06
0.05
0.05
0.07
0.07
0.10
0.00
0.42
0.70
0.63
0.84
0.75
0.66
0.60
0.19
0.07
0.05
0.00
0.00
0.00
0.01
0.02
0.04
0.04
0.04
0.07
0.10
0.13
0.11
0.19
0.14
0.19
0.21
0.24
0.24
0.24
0.19
0.15
0.14
0.11
0.07
0.01
0.00
0.02
0.05
0.02
0.02
0.00
0.00
0.02
0.01
0.04
0.04
0.04
0.02
0.02
0.02
0.02
0.01
0.04
0.01
0.02
0.01
0.02
0.04
0.02
0.02
0.02
0.01
0.02
0.01
0.01
0.01
0.00
0.00
0.01
0.00
0.00
0.00
0.00
0.00
0.00
0.00
0.00
0.00
0.00
0.00
0.00
0.01
0.07
0.02
0.13
0.14
0.19
0.13
0.04
0.00
0.07
0.05
0.05
0.05
0.06
0.06
0.07
0.10
0.07
0.33
0.53
0.42
0.78
0.84
0.62
0.61
0.45
0.05
0.06
0.02
0.01
0.00
0.00
0.01
0.01
0.04
0.04
0.04
0.07
0.04
0.11
0.11
0.11
0.13
0.14
0.11
0.13
0.11
0.11
0.11
0.04
0.01
0.00
0.02
0.02
0.07
0.10
0.10
0.10
0.05
0.06
0.01
0.00
0.00
0.00
0.00
0.01
0.00
0.00
0.00
0.00
0.00
0.00
0.00
0.00
0.01
0.00
0.00
0.00
0.00
0.00
0.02
0.00
0.00
0.05
0.02
0.00
0.00
0.02
0.02
0.02
0.02
0.02
0.02
0.07
0.02
0.05
0.00
0.02
0.02
0.01
0.00
0.07
0.07
0.15
0.07
0.02
0.01
0.07
0.07
0.15
0.11
0.07
0.10
0.15
0.11
0.20
0.10
0.44
0.68
0.61
0.67
0.61
0.63
0.59
0.20
0.20
0.11
0.07
0.07
0.10
0.07
0.02
0.02
0.02
0.02
0.00
0.02
0.00
0.00
0.00
0.00
0.02
0.02
0.02
0.05
0.06
0.06
0.10
0.15
0.11
0.11
0.11
0.11
0.15
0.11
0.10
0.05
0.02
0.00
0.00
0.00
0.00
0.01
0.01
0.01
0.01
0.01
0.01
0.01
0.02
0.02
0.01
0.01
0.01
0.01
0.01
0.01
0.01
0.00
0.00
0.01
0.01
0.00
0.00
0.00
0.00
0.00
0.00
0.00
0.02
0.02
0.00
0.02
0.00
0.00
0.04
0.01
0.11
0.11
0.21
0.13
0.10
0.01
0.05
0.02
0.05
0.05
0.02
0.06
0.07
0.06
0.15
0.21
0.57
0.57
0.67
0.75
0.62
0.63
0.57
0.06
0.06
0.02
0.00
0.01
0.01
0.02
0.04
0.04
0.07
0.11
0.13
0.14
0.14
0.19
0.21
0.24
0.29
0.29
0.33
0.36
0.36
0.36
0.33
0.24
0.19
0.15
0.07
0.04
0.00
0.00
0.00
0.00
0.01
0.01
0.02
0.02
0.02
0.07
0.04
0.02
0.02
0.04
0.01
0.04
0.04
0.04
0.02
0.02
0.02
0.04
0.02
0.04
0.02
0.01
0.01
0.01
0.01
0.01
0.01
0.00
0.00
0.00
0.00
0.00
0.01
0.00
0.00
0.01
0.00
0.01
0.00
0.00
0.02
0.04
0.10
0.11
0.26
0.11
0.04
0.01
0.05
0.05
0.07
0.06
0.02
0.06
0.07
0.06
0.05
0.26
0.54
0.69
0.77
0.86
0.62
0.62
0.56
0.05
0.02
0.00
0.01
0.01
0.07
0.04
0.10
0.10
0.11
0.13
0.13
0.13
0.15
0.19
0.19
0.24
0.25
0.24
0.25
0.25
0.29
0.21
0.21
0.19
0.11
0.10
0.02
0.00
0.02
0.02
0.05
0.00
0.01
0.01
0.04
0.02
0.04
0.04
0.04
0.04
0.04
0.04
0.02
0.04
0.04
0.04
0.02
0.04
0.04
0.04
0.07
0.04
0.04
0.04
0.01
0.04
0.04
0.02
0.02
0.01
0.01
0.01
0.01
0.02
0.01
0.00
0.00
0.00
0.00
0.00
0.01
0.04
0.02
0.10
0.15
0.19
0.11
0.04
0.00
0.07
0.05
0.06
0.05
0.06
0.07
0.07
0.10
0.10
0.36
0.60
0.29
0.83
0.82
0.63
0.61
0.35
0.05
0.06
0.02
0.00
0.00
0.00
0.01
0.01
0.04
0.01
0.04
0.10
0.10
0.14
0.13
0.11
0.14
0.14
0.15
0.14
0.15
0.13
0.11
0.10
0.04
0.01
0.01
0.02
0.06
0.06
0.07
0.06
0.00
0.00
0.00
0.00
0.00
0.01
0.00
0.00
0.00
0.00
0.02
0.02
0.00
0.00
0.00
0.02
0.00
0.00
0.00
0.00
0.00
0.00
0.00
0.00
0.00
0.00
0.00
0.00
0.00
0.02
0.00
0.02
0.00
0.00
0.02
0.00
0.00
0.00
0.02
0.00
0.00
0.02
0.01
0.01
0.01
0.04
0.13
0.11
0.07
0.01
0.06
0.11
0.11
0.10
0.07
0.10
0.07
0.11
0.15
0.19
0.19
0.55
0.07
0.70
0.70
0.61
0.61
0.47
0.06
0.11
0.15
0.10
0.05
0.02
0.00
0.05
0.00
0.00
0.00
0.00
0.00
0.00
0.02
0.00
0.02
0.02
0.05
0.05
0.06
0.10
0.15
0.15
0.16
0.16
0.23
0.20
0.23
0.19
0.19
0.16
0.07
0.06
0.06
0.05
0.00
0.00
0.00
0.00
0.00
0.02
0.02
0.00
0.02
0.02
0.02
0.00
0.02
0.05
0.02
0.00
0.00
0.00
0.00
0.02
0.00
0.02
0.02
0.00
0.02
0.02
0.05
0.02
0.02
0.05
0.02
0.05
0.02
0.06
0.01
0.00
0.02
0.04
0.19
0.11
0.10
0.04
0.05
0.05
0.07
0.10
0.11
0.07
0.10
0.15
0.16
0.04
0.36
0.67
0.62
0.68
0.62
0.64
0.61
0.19
0.15
0.10
0.06
0.06
0.02
0.02
0.02
0.01
0.00
0.01
0.01
0.01
0.02
0.04
0.07
0.04
0.10
0.07
0.11
0.10
0.11
0.11
0.10
0.04
0.02
0.01
0.00
0.02
0.06
0.06
0.05
0.05
0.05
0.02
0.00
0.00
0.00
0.00
0.00
0.00
0.00
0.01
0.00
0.00
0.00
0.00
0.00
0.01
0.00
0.00
0.00
0.00
0.01
0.00
0.01
0.01
0.00
0.00
0.02
0.01
0.01
0.01
0.00
0.00
0.01
0.01
0.01
0.01
0.00
0.00
0.01
0.01
0.10
0.07
0.15
0.21
0.24
0.15
0.11
0.04
0.00
0.02
0.00
0.00
0.00
0.02
0.02
0.10
0.00
0.44
0.69
0.61
0.83
0.75
0.65
0.58
0.15
0.02
0.00
0.00
0.01
0.02
0.02
0.02
0.04
0.04
0.11
0.13
0.15
0.15
0.19
0.19
0.24
0.26
0.26
0.36
0.29
0.33
0.29
0.29
0.24
0.19
0.13
0.04
0.02
0.01
0.00
0.00
0.00
0.00
0.02
0.04
0.04
0.04
0.04
0.02
0.04
0.02
0.04
0.02
0.02
0.02
0.04
0.04
0.10
0.04
0.07
0.04
0.07
0.04
0.04
0.04
0.02
0.01
0.02
0.02
0.01
0.01
0.00
0.01
0.01
0.00
0.00
0.00
0.00
0.00
0.01
0.01
0.10
0.04
0.14
0.14
0.25
0.19
0.11
0.02
0.02
0.02
0.02
0.00
0.02
0.02
0.02
0.05
0.06
0.36
0.57
0.26
0.78
0.85
0.61
0.61
0.47
0.02
0.05
0.02
0.00
0.01
0.01
0.02
0.02
0.04
0.07
0.11
0.11
0.11
0.11
0.13
0.14
0.14
0.19
0.15
0.15
0.15
0.13
0.13
0.11
0.04
0.01
0.01
0.00
0.05
0.05
0.06
0.05
0.02
0.00
0.01
0.01
0.01
0.01
0.01
0.01
0.01
0.01
0.01
0.02
0.00
0.01
0.02
0.01
0.01
0.01
0.01
0.01
0.01
0.01
0.01
0.00
0.00
0.01
0.01
0.00
0.00
0.00
0.00
0.00
0.00
0.00
0.02
0.00
0.00
0.00
0.00
0.00
0.01
0.04
0.00
0.11
0.19
0.14
0.11
0.04
0.02
0.02
0.07
0.07
0.05
0.07
0.15
0.15
0.10
0.07
0.14
0.67
0.56
0.68
0.63
0.61
0.61
0.35
0.15
0.11
0.15
0.07
0.06
0.06
0.02
0.05
0.02
0.05
0.02
0.00
0.00
0.00
0.02
0.00
0.05
0.02
0.02
0.07
0.07
0.11
0.15
0.15
0.16
0.20
0.19
0.20
0.20
0.15
0.16
0.15
0.10
0.02
0.06
0.00
0.02
0.00
0.00
0.00
0.00
0.02
0.00
0.00
0.00
0.00
0.00
0.02
0.00
0.00
0.00
0.00
0.00
0.02
0.00
0.00
0.02
0.00
0.02
0.02
0.00
0.02
0.02
0.02
0.02
0.02
0.02
0.02
0.00
0.02
0.01
0.04
0.10
0.25
0.14
0.13
0.04
0.02
0.00
0.06
0.02
0.05
0.06
0.11
0.05
0.16
0.11
0.53
0.67
0.61
0.68
0.61
0.63
0.57
0.10
0.15
0.05
0.02
0.02
0.00
0.00
0.00
0.01
0.00
0.02
0.01
0.02
0.07
0.07
0.11
0.13
0.14
0.19
0.19
0.19
0.21
0.15
0.13
0.10
0.10
0.02
0.01
0.00
0.02
0.02
0.00
0.00
0.01
0.01
0.04
0.04
0.02
0.02
0.04
0.07
0.04
0.04
0.07
0.04
0.04
0.04
0.07
0.02
0.10
0.04
0.04
0.04
0.04
0.04
0.04
0.04
0.04
0.02
0.02
0.02
0.02
0.02
0.02
0.00
0.00
0.00
0.00
0.00
0.02
0.07
0.04
0.11
0.26
0.14
0.19
0.04
0.00
0.02
0.05
0.02
0.02
0.06
0.07
0.05
0.05
0.11
0.53
0.75
0.67
0.85
0.70
0.62
0.57
0.05
0.02
0.02
0.00
0.01
0.04
0.04
0.07
0.07
0.11
0.11
0.13
0.11
0.14
0.19
0.19
0.25
0.24
0.26
0.26
0.29
0.26
0.26
0.24
0.15
0.19
0.11
0.04
0.00
0.02
0.02
0.05
0.02
0.00
0.01
0.00
0.01
0.04
0.02
0.02
0.02
0.01
0.02
0.02
0.01
0.04
0.04
0.04
0.04
0.04
0.04
0.07
0.04
0.04
0.04
0.04
0.02
0.04
0.04
0.02
0.02
0.02
0.01
0.01
0.02
0.01
0.00
0.00
0.00
0.00
0.04
0.07
0.04
0.11
0.24
0.15
0.14
0.04
0.02
0.02
0.07
0.02
0.05
0.10
0.07
0.06
0.06
0.04
0.47
0.75
0.62
0.83
0.67
0.62
0.57
0.10
0.11
0.06
0.05
0.02
0.00
0.00
0.00
0.00
0.01
0.00
0.01
0.00
0.01
0.00
0.01
0.00
0.02
0.00
0.01
0.02
0.00
0.00
0.02
0.10
0.07
0.11
0.16
0.16
0.15
0.15
0.15
0.07
0.02
0.02
0.00
0.00
0.02
0.00
0.02
0.00
0.01
0.00
0.00
0.00
0.00
0.00
0.00
0.00
0.00
0.00
0.01
0.01
0.00
0.01
0.00
0.00
0.01
0.00
0.00
0.01
0.00
0.02
0.00
0.00
0.00
0.00
0.00
0.00
0.00
0.02
0.00
0.04
0.02
0.01
0.10
0.15
0.14
0.10
0.04
0.02
0.06
0.07
0.07
0.10
0.15
0.11
0.11
0.15
0.15
0.11
0.57
0.39
0.71
0.62
0.60
0.61
0.44
0.15
0.11
0.07
0.05
0.02
0.02
0.00
0.02
0.00
0.00
0.00
0.00
0.00
0.00
0.00
0.00
0.01
0.00
0.01
0.00
0.01
0.00
0.00
0.00
0.02
0.02
0.02
0.05
0.10
0.05
0.02
0.00
0.00
0.00
0.00
0.01
0.02
0.02
0.02
0.02
0.04
0.01
0.04
0.04
0.02
0.04
0.02
0.01
0.07
0.02
0.01
0.01
0.01
0.01
0.00
0.01
0.01
0.00
0.01
0.00
0.00
0.00
0.00
0.00
0.00
0.00
0.00
0.00
0.00
0.02
0.04
0.10
0.11
0.25
0.11
0.13
0.04
0.05
0.02
0.10
0.06
0.06
0.07
0.10
0.10
0.10
0.19
0.53
0.69
0.73
0.82
0.64
0.63
0.58
0.05
0.07
0.02
0.00
0.01
0.01
0.01
0.02
0.10
0.10
0.07
0.11
0.13
0.14
0.19
0.19
0.24
0.21
0.26
0.25
0.33
0.29
0.25
0.25
0.21
0.14
0.10
0.04
0.00
0.02
0.02
0.02
0.02
0.00
0.01
0.01
0.02
0.04
0.04
0.02
0.04
0.04
0.01
0.01
0.02
0.04
0.07
0.04
0.04
0.04
0.07
0.07
0.07
0.07
0.04
0.04
0.04
0.04
0.04
0.04
0.01
0.01
0.02
0.01
0.01
0.01
0.01
0.01
0.01
0.01
0.01
0.04
0.07
0.10
0.13
0.26
0.11
0.11
0.02
0.05
0.02
0.07
0.02
0.05
0.06
0.06
0.06
0.05
0.24
0.53
0.69
0.77
0.86
0.63
0.62
0.56
0.05
0.06
0.02
0.00
0.01
0.01
0.01
0.04
0.04
0.07
0.11
0.10
0.11
0.13
0.13
0.15
0.15
0.19
0.21
0.21
0.19
0.19
0.19
0.15
0.13
0.07
0.02
0.01
0.00
0.06
0.06
0.05
0.00
0.00
0.01
0.01
0.01
0.02
0.02
0.01
0.01
0.01
0.01
0.00
0.01
0.01
0.01
0.01
0.02
0.00
0.01
0.01
0.02
0.00
0.00
0.00
0.01
0.00
0.00
0.00
0.00
0.00
0.00
0.00
0.00
0.00
0.00
0.02
0.00
0.01
0.01
0.00
0.01
0.04
0.01
0.11
0.11
0.24
0.13
0.11
0.01
0.02
0.05
0.10
0.07
0.10
0.11
0.10
0.11
0.15
0.19
0.45
0.71
0.68
0.75
0.61
0.63
0.60
0.15
0.20
0.16
0.06
0.05
0.07
0.02
0.05
0.02
0.02
0.02
0.02
0.00
0.00
0.02
0.02
0.02
0.00
0.02
0.05
0.07
0.10
0.11
0.16
0.16
0.16
0.19
0.19
0.23
0.27
0.23
0.16
0.15
0.10
0.06
0.10
0.05
0.02
0.02
0.05
0.06
0.02
0.02
0.06
0.02
0.05
0.05
0.02
0.05
0.02
0.02
0.02
0.06
0.02
0.05
0.02
0.02
0.05
0.02
0.05
0.02
0.06
0.00
0.05
0.06
0.02
0.06
0.02
0.02
0.00
0.01
0.00
0.02
0.15
0.13
0.11
0.04
0.05
0.06
0.16
0.10
0.11
0.16
0.16
0.19
0.19
0.02
0.21
0.63
0.63
0.71
0.62
0.63
0.62
0.29
0.19
0.11
0.10
0.06
0.05
0.05
0.02
0.00
0.00
0.01
0.00
0.00
0.02
0.04
0.04
0.02
0.07
0.04
0.04
0.04
0.04
0.02
0.04
0.01
0.00
0.00
0.00
0.05
0.07
0.06
0.07
0.02
0.02
0.02
0.00
0.00
0.00
0.00
0.00
0.01
0.01
0.00
0.01
0.00
0.01
0.01
0.01
0.00
0.01
0.00
0.00
0.00
0.00
0.00
0.00
0.00
0.02
0.02
0.02
0.02
0.00
0.02
0.02
0.02
0.06
0.05
0.05
0.02
0.02
0.05
0.00
0.01
0.00
0.07
0.19
0.11
0.11
0.02
0.05
0.05
0.06
0.06
0.02
0.10
0.07
0.06
0.06
0.02
0.45
0.71
0.61
0.84
0.76
0.65
0.59
0.16
0.05
0.02
0.00
0.00
0.01
0.01
0.04
0.04
0.07
0.11
0.10
0.13
0.13
0.14
0.19
0.19
0.25
0.29
0.26
0.33
0.33
0.33
0.29
0.25
0.19
0.14
0.11
0.01
0.00
0.00
0.05
0.00
0.02
0.01
0.01
0.02
0.01
0.04
0.04
0.02
0.04
0.04
0.02
0.04
0.04
0.04
0.04
0.07
0.02
0.10
0.04
0.07
0.02
0.07
0.04
0.04
0.07
0.01
0.02
0.01
0.01
0.00
0.01
0.01
0.00
0.00
0.02
0.00
0.00
0.00
0.01
0.02
0.02
0.07
0.19
0.11
0.13
0.04
0.02
0.06
0.07
0.02
0.02
0.06
0.06
0.05
0.02
0.13
0.53
0.75
0.68
0.86
0.70
0.63
0.58
0.07
0.06
0.02
0.00
0.01
0.04
0.02
0.04
0.07
0.10
0.11
0.11
0.11
0.11
0.15
0.14
0.19
0.15
0.19
0.24
0.21
0.21
0.19
0.14
0.11
0.11
0.10
0.01
0.00
0.05
0.02
0.02
0.02
0.00
0.01
0.01
0.01
0.01
0.01
0.02
0.04
0.00
0.01
0.01
0.01
0.01
0.04
0.01
0.01
0.01
0.01
0.02
0.00
0.00
0.00
0.01
0.00
0.00
0.00
0.00
0.00
0.00
0.00
0.02
0.02
0.00
0.02
0.05
0.02
0.02
0.05
0.02
0.02
0.06
0.00
0.01
0.01
0.04
0.14
0.11
0.01
0.01
0.10
0.15
0.16
0.15
0.15
0.10
0.10
0.11
0.15
0.01
0.36
0.71
0.63
0.73
0.62
0.60
0.59
0.19
0.10
0.11
0.07
0.06
0.02
0.02
0.02
0.02
0.02
0.02
0.00
0.00
0.02
0.00
0.00
0.00
0.00
0.05
0.02
0.07
0.07
0.15
0.11
0.19
0.19
0.19
0.23
0.27
0.23
0.19
0.19
0.10
0.10
0.06
0.05
0.02
0.02
0.02
0.02
0.02
0.00
0.02
0.00
0.00
0.06
0.00
0.02
0.00
0.00
0.00
0.02
0.02
0.00
0.00
0.01
0.00
0.00
0.00
0.00
0.00
0.02
0.00
0.00
0.00
0.00
0.02
0.00
0.00
0.01
0.01
0.04
0.10
0.24
0.13
0.14
0.07
0.00
0.00
0.07
0.02
0.06
0.10
0.11
0.11
0.11
0.01
0.24
0.66
0.62
0.68
0.62
0.63
0.62
0.33
0.16
0.15
0.15
0.10
0.10
0.11
0.10
0.06
0.10
0.06
0.06
0.05
0.02
0.06
0.02
0.02
0.00
0.02
0.00
0.00
0.00
0.00
0.00
0.00
0.02
0.02
0.02
0.05
0.10
0.07
0.05
0.02
0.02
0.00
0.00
0.01
0.01
0.02
0.02
0.02
0.04
0.01
0.04
0.04
0.02
0.02
0.04
0.04
0.02
0.01
0.04
0.01
0.01
0.00
0.00
0.01
0.00
0.00
0.00
0.00
0.00
0.00
0.00
0.00
0.00
0.00
0.00
0.00
0.01
0.02
0.04
0.11
0.11
0.26
0.14
0.15
0.07
0.02
0.02
0.05
0.02
0.02
0.05
0.06
0.06
0.06
0.19
0.53
0.75
0.70
0.86
0.67
0.60
0.58
0.02
0.05
0.00
0.00
0.02
0.02
0.04
0.07
0.07
0.10
0.13
0.14
0.19
0.19
0.24
0.26
0.29
0.36
0.38
0.36
0.36
0.38
0.36
0.33
0.29
0.24
0.15
0.11
0.04
0.01
0.00
0.00
0.01
0.02
0.07
0.07
0.10
0.10
0.07
0.11
0.10
0.07
0.07
0.04
0.10
0.10
0.10
0.10
0.04
0.11
0.10
0.07
0.11
0.07
0.04
0.04
0.04
0.04
0.04
0.07
0.04
0.02
0.02
0.04
0.02
0.02
0.02
0.01
0.01
0.00
0.01
0.04
0.11
0.11
0.13
0.26
0.15
0.14
0.10
0.02
0.02
0.06
0.02
0.02
0.05
0.02
0.02
0.05
0.19
0.52
0.73
0.75
0.86
0.63
0.62
0.55
0.00
0.05
0.00
0.00
0.04
0.01
0.04
0.04
0.07
0.11
0.11
0.11
0.14
0.19
0.15
0.19
0.25
0.25
0.24
0.26
0.29
0.25
0.21
0.19
0.14
0.11
0.07
0.01
0.00
0.00
0.02
0.02
0.02
0.01
0.02
0.07
0.04
0.10
0.04
0.04
0.04
0.04
0.07
0.07
0.04
0.04
0.04
0.04
0.04
0.04
0.04
0.07
0.04
0.04
0.02
0.04
0.04
0.02
0.02
0.01
0.01
0.01
0.01
0.00
0.01
0.00
0.00
0.01
0.01
0.00
0.00
0.00
0.04
0.07
0.07
0.11
0.26
0.15
0.14
0.10
0.00
0.00
0.02
0.00
0.02
0.02
0.02
0.02
0.02
0.10
0.44
0.76
0.61
0.75
0.61
0.61
0.59
0.15
0.10
0.10
0.07
0.05
0.06
0.02
0.00
0.02
0.00
0.00
0.00
0.00
0.01
0.00
0.00
0.00
0.00
0.00
0.00
0.00
0.02
0.05
0.07
0.07
0.07
0.11
0.16
0.16
0.15
0.15
0.07
0.07
0.02
0.02
0.00
0.00
0.00
0.00
0.00
0.00
0.00
0.00
0.00
0.00
0.00
0.00
0.00
0.00
0.00
0.00
0.01
0.02
0.00
0.00
0.00
0.00
0.00
0.02
0.00
0.00
0.00
0.00
0.00
0.00
0.00
0.02
0.00
0.00
0.00
0.01
0.01
0.04
0.07
0.21
0.13
0.11
0.02
0.05
0.02
0.10
0.06
0.07
0.10
0.11
0.11
0.23
0.13
0.54
0.57
0.63
0.66
0.61
0.61
0.56
0.07
0.10
0.06
0.02
0.02
0.00
0.00
0.00
0.01
0.02
0.02
0.02
0.04
0.04
0.07
0.11
0.10
0.10
0.10
0.11
0.11
0.11
0.11
0.10
0.07
0.04
0.01
0.01
0.02
0.02
0.02
0.02
0.00
0.00
0.01
0.01
0.01
0.01
0.04
0.04
0.04
0.04
0.04
0.04
0.04
0.04
0.04
0.04
0.04
0.04
0.02
0.02
0.01
0.01
0.02
0.01
0.02
0.01
0.01
0.01
0.01
0.02
0.01
0.01
0.00
0.01
0.01
0.01
0.01
0.10
0.04
0.11
0.24
0.21
0.15
0.07
0.01
0.02
0.02
0.02
0.02
0.06
0.06
0.07
0.07
0.00
0.44
0.69
0.62
0.84
0.80
0.66
0.61
0.27
0.07
0.06
0.05
0.02
0.00
0.00
0.01
0.01
0.01
0.04
0.07
0.10
0.11
0.13
0.15
0.19
0.21
0.24
0.26
0.29
0.33
0.29
0.25
0.19
0.15
0.13
0.07
0.00
0.01
0.00
0.00
0.00
0.01
0.04
0.02
0.10
0.04
0.10
0.07
0.07
0.07
0.07
0.04
0.04
0.10
0.07
0.07
0.10
0.07
0.07
0.10
0.07
0.11
0.07
0.07
0.04
0.04
0.07
0.02
0.04
0.02
0.02
0.02
0.02
0.04
0.01
0.04
0.02
0.04
0.14
0.11
0.19
0.24
0.33
0.21
0.14
0.10
0.00
0.00
0.00
0.01
0.00
0.00
0.02
0.00
0.02
0.39
0.58
0.26
0.82
0.85
0.63
0.61
0.44
0.00
0.02
0.00
0.01
0.02
0.04
0.04
0.04
0.04
0.11
0.11
0.11
0.14
0.13
0.14
0.19
0.24
0.24
0.24
0.21
0.21
0.25
0.19
0.14
0.11
0.07
0.02
0.01
0.00
0.00
0.02
0.00
0.00
0.01
0.04
0.07
0.04
0.10
0.04
0.04
0.04
0.04
0.04
0.04
0.04
0.07
0.04
0.04
0.07
0.04
0.07
0.10
0.07
0.04
0.04
0.04
0.02
0.04
0.04
0.04
0.02
0.02
0.01
0.01
0.01
0.01
0.01
0.01
0.01
0.01
0.01
0.01
0.02
0.11
0.02
0.11
0.19
0.21
0.15
0.10
0.01
0.02
0.05
0.02
0.05
0.05
0.07
0.05
0.06
0.11
0.26
0.60
0.00
0.73
0.74
0.62
0.61
0.39
0.07
0.15
0.06
0.05
0.05
0.05
0.02
0.00
0.01
0.00
0.01
0.01
0.01
0.01
0.01
0.01
0.01
0.00
0.00
0.02
0.02
0.06
0.05
0.07
0.15
0.11
0.15
0.15
0.15
0.15
0.15
0.06
0.06
0.00
0.00
0.00
0.00
0.01
0.01
0.00
0.00
0.00
0.00
0.00
0.00
0.00
0.00
0.00
0.00
0.00
0.00
0.00
0.00
0.00
0.00
0.01
0.00
0.00
0.00
0.02
0.00
0.00
0.01
0.01
0.01
0.02
0.00
0.00
0.00
0.02
0.04
0.07
0.10
0.24
0.19
0.15
0.11
0.00
0.00
0.07
0.02
0.06
0.07
0.07
0.11
0.15
0.02
0.36
0.67
0.64
0.66
0.61
0.64
0.61
0.20
0.15
0.10
0.05
0.02
0.02
0.00
0.00
0.00
0.00
0.01
0.01
0.01
0.02
0.04
0.04
0.04
0.10
0.07
0.07
0.11
0.10
0.10
0.07
0.04
0.02
0.01
0.00
0.00
0.05
0.02
0.02
0.02
0.00
0.01
0.01
0.02
0.01
0.04
0.02
0.07
0.04
0.04
0.02
0.04
0.04
0.04
0.04
0.02
0.02
0.01
0.02
0.04
0.02
0.01
0.02
0.01
0.02
0.01
0.01
0.02
0.01
0.02
0.01
0.01
0.01
0.01
0.00
0.01
0.04
0.10
0.10
0.14
0.25
0.25
0.15
0.11
0.01
0.02
0.02
0.00
0.02
0.02
0.05
0.05
0.10
0.04
0.45
0.71
0.61
0.83
0.75
0.63
0.58
0.11
0.05
0.05
0.00
0.00
0.01
0.02
0.01
0.04
0.04
0.07
0.10
0.13
0.14
0.15
0.19
0.21
0.25
0.26
0.26
0.33
0.26
0.29
0.25
0.21
0.19
0.11
0.04
0.01
0.00
0.00
0.02
0.00
0.00
0.01
0.01
0.04
0.04
0.02
0.04
0.01
0.02
0.04
0.02
0.04
0.04
0.04
0.04
0.07
0.04
0.04
0.07
0.07
0.11
0.07
0.04
0.04
0.04
0.04
0.04
0.02
0.01
0.01
0.01
0.01
0.00
0.00
0.00
0.00
0.02
0.00
0.04
0.04
0.07
0.11
0.25
0.14
0.11
0.04
0.06
0.07
0.11
0.06
0.02
0.07
0.10
0.07
0.10
0.13
0.50
0.75
0.70
0.85
0.66
0.62
0.57
0.10
0.07
0.02
0.02
0.02
0.00
0.00
0.00
0.01
0.02
0.04
0.04
0.10
0.07
0.11
0.11
0.13
0.15
0.14
0.15
0.15
0.15
0.14
0.11
0.10
0.02
0.02
0.02
0.02
0.06
0.10
0.07
0.06
0.05
0.00
0.00
0.01
0.01
0.01
0.01
0.02
0.01
0.01
0.01
0.01
0.00
0.00
0.01
0.01
0.01
0.02
0.02
0.01
0.01
0.01
0.01
0.01
0.00
0.00
0.00
0.00
0.00
0.00
0.00
0.00
0.00
0.00
0.00
0.00
0.00
0.00
0.00
0.00
0.00
0.07
0.01
0.11
0.11
0.25
0.13
0.11
0.02
0.05
0.06
0.10
0.05
0.02
0.06
0.06
0.10
0.07
0.07
0.45
0.75
0.62
0.75
0.62
0.61
0.59
0.15
0.15
0.11
0.06
0.06
0.02
0.05
0.02
0.05
0.02
0.02
0.02
0.02
0.02
0.02
0.02
0.02
0.02
0.05
0.10
0.10
0.10
0.16
0.19
0.26
0.29
0.29
0.26
0.27
0.31
0.35
0.27
0.19
0.16
0.15
0.07
0.06
0.05
0.05
0.06
0.02
0.05
0.06
0.06
0.05
0.05
0.00
0.02
0.02
0.02
0.02
0.02
0.00
0.02
0.02
0.02
0.05
0.00
0.02
0.02
0.02
0.02
0.06
0.05
0.02
0.05
0.06
0.07
0.06
0.00
0.01
0.02
0.02
0.13
0.15
0.07
0.04
0.02
0.05
0.10
0.10
0.10
0.11
0.11
0.11
0.20
0.11
0.11
0.54
0.44
0.65
0.61
0.61
0.62
0.41
0.16
0.15
0.10
0.06
0.02
0.05
0.02
0.00
0.00
0.00
0.00
0.00
0.00
0.00
0.00
0.00
0.00
0.00
0.00
0.00
0.00
0.02
0.00
0.05
0.05
0.07
0.11
0.07
0.15
0.15
0.10
0.07
0.06
0.02
0.02
0.00
0.02
0.00
0.00
0.00
0.01
0.01
0.00
0.02
0.01
0.01
0.01
0.01
0.01
0.01
0.01
0.00
0.01
0.00
0.00
0.01
0.00
0.00
0.01
0.00
0.00
0.01
0.00
0.00
0.00
0.01
0.00
0.01
0.00
0.01
0.04
0.07
0.07
0.10
0.24
0.13
0.14
0.04
0.02
0.05
0.11
0.05
0.02
0.07
0.07
0.07
0.10
0.04
0.44
0.71
0.61
0.80
0.75
0.63
0.61
0.20
0.10
0.07
0.02
0.00
0.00
0.01
0.04
0.04
0.07
0.10
0.11
0.15
0.15
0.19
0.24
0.25
0.29
0.36
0.36
0.36
0.36
0.36
0.36
0.36
0.24
0.21
0.13
0.07
0.02
0.00
0.01
0.01
0.01
0.04
0.04
0.04
0.07
0.07
0.04
0.04
0.04
0.07
0.04
0.04
0.04
0.04
0.04
0.10
0.10
0.07
0.10
0.07
0.10
0.10
0.10
0.07
0.07
0.02
0.04
0.04
0.07
0.04
0.04
0.02
0.04
0.04
0.04
0.02
0.02
0.04
0.13
0.11
0.19
0.19
0.36
0.19
0.15
0.10
0.00
0.00
0.05
0.00
0.00
0.02
0.02
0.02
0.00
0.21
0.55
0.71
0.76
0.86
0.62
0.62
0.55
0.02
0.02
0.00
0.01
0.01
0.02
0.07
0.10
0.11
0.11
0.11
0.13
0.14
0.15
0.15
0.19
0.24
0.25
0.24
0.26
0.25
0.21
0.19
0.19
0.13
0.11
0.04
0.02
0.02
0.00
0.05
0.02
0.00
0.00
0.01
0.01
0.02
0.04
0.02
0.02
0.01
0.02
0.02
0.04
0.02
0.02
0.02
0.01
0.02
0.04
0.04
0.02
0.01
0.04
0.02
0.02
0.02
0.01
0.01
0.02
0.02
0.04
0.01
0.01
0.01
0.01
0.01
0.01
0.02
0.01
0.01
0.02
0.10
0.04
0.14
0.19
0.19
0.14
0.07
0.00
0.05
0.07
0.05
0.05
0.06
0.05
0.11
0.10
0.16
0.36
0.64
0.29
0.78
0.78
0.63
0.61
0.37
0.15
0.10
0.06
0.06
0.02
0.02
0.00
0.00
0.01
0.00
0.02
0.01
0.04
0.02
0.02
0.01
0.02
0.02
0.00
0.00
0.00
0.02
0.05
0.10
0.07
0.15
0.16
0.19
0.15
0.16
0.11
0.06
0.05
0.00
0.02
0.01
0.00
0.00
0.00
0.00
0.02
0.00
0.02
0.01
0.01
0.00
0.00
0.00
0.00
0.00
0.01
0.00
0.00
0.02
0.00
0.02
0.02
0.02
0.00
0.02
0.02
0.02
0.02
0.02
0.02
0.02
0.00
0.05
0.05
0.02
0.02
0.00
0.07
0.04
0.15
0.11
0.11
0.01
0.10
0.06
0.15
0.11
0.10
0.16
0.15
0.19
0.33
0.04
0.44
0.64
0.62
0.65
0.62
0.63
0.59
0.15
0.19
0.15
0.11
0.10
0.06
0.05
0.02
0.02
0.02
0.00
0.00
0.00
0.00
0.00
0.01
0.00
0.01
0.00
0.00
0.00
0.00
0.00
0.02
0.02
0.05
0.06
0.10
0.07
0.15
0.15
0.07
0.06
0.05
0.06
0.00
0.00
0.00
0.00
0.00
0.00
0.00
0.00
0.00
0.00
0.05
0.00
0.00
0.00
0.00
0.00
0.00
0.00
0.02
0.00
0.00
0.00
0.02
0.00
0.00
0.00
0.00
0.00
0.00
0.00
0.00
0.00
0.00
0.00
0.01
0.11
0.04
0.14
0.24
0.19
0.14
0.04
0.00
0.02
0.05
0.05
0.06
0.06
0.07
0.10
0.11
0.00
0.42
0.69
0.62
0.80
0.78
0.66
0.61
0.31
0.05
0.06
0.02
0.00
0.02
0.01
0.00
0.01
0.01
0.02
0.04
0.11
0.11
0.14
0.13
0.14
0.19
0.26
0.25
0.26
0.29
0.24
0.24
0.19
0.19
0.11
0.04
0.00
0.00
0.05
0.02
0.00
0.00
0.01
0.01
0.02
0.04
0.02
0.02
0.04
0.02
0.02
0.04
0.04
0.04
0.04
0.04
0.07
0.04
0.04
0.04
0.01
0.01
0.04
0.01
0.01
0.01
0.01
0.00
0.00
0.00
0.00
0.02
0.02
0.02
0.02
0.02
0.02
0.00
0.02
0.01
0.04
0.11
0.13
0.07
0.01
0.02
0.15
0.15
0.11
0.15
0.15
0.15
0.16
0.16
0.10
0.36
0.68
0.64
0.86
0.78
0.67
0.61
0.31
0.15
0.11
0.05
0.02
0.00
0.00
0.00
0.01
0.01
0.02
0.04
0.04
0.10
0.10
0.13
0.15
0.13
0.14
0.15
0.15
0.15
0.14
0.11
0.07
0.04
0.01
0.00
0.06
0.07
0.11
0.06
0.02
0.00
0.00
0.01
0.01
0.01
0.01
0.04
0.00
0.01
0.00
0.02
0.02
0.01
0.01
0.02
0.02
0.00
0.01
0.01
0.01
0.01
0.00
0.00
0.00
0.00
0.00
0.00
0.00
0.00
0.02
0.02
0.02
0.00
0.02
0.02
0.00
0.02
0.00
0.00
0.02
0.00
0.11
0.11
0.15
0.01
0.01
0.06
0.15
0.11
0.07
0.10
0.07
0.15
0.10
0.11
0.06
0.29
0.67
0.50
0.75
0.71
0.62
0.61
0.31
0.15
0.15
0.10
0.06
0.07
0.02
0.02
0.02
0.02
0.00
0.00
0.00
0.00
0.00
0.00
0.00
0.02
0.05
0.02
0.06
0.10
0.11
0.15
0.16
0.16
0.19
0.20
0.26
0.27
0.20
0.15
0.10
0.07
0.02
0.02
0.02
0.00
0.00
0.00
0.00
0.00
0.00
0.00
0.00
0.00
0.00
0.02
0.00
0.00
0.00
0.00
0.00
0.05
0.00
0.00
0.02
0.02
0.02
0.00
0.02
0.02
0.00
0.02
0.05
0.06
0.06
0.05
0.05
0.01
0.00
0.04
0.04
0.14
0.13
0.01
0.01
0.10
0.06
0.10
0.10
0.07
0.10
0.15
0.11
0.23
0.11
0.53
0.47
0.63
0.63
0.62
0.62
0.53
0.10
0.15
0.10
0.05
0.02
0.00
0.00
0.02
0.00
0.00
0.01
0.00
0.01
0.00
0.01
0.01
0.01
0.02
0.01
0.02
0.00
0.01
0.01
0.01
0.00
0.02
0.02
0.02
0.06
0.06
0.06
0.05
0.02
0.00
0.00
0.01
0.01
0.01
0.01
0.01
0.02
0.01
0.02
0.00
0.04
0.02
0.01
0.01
0.00
0.01
0.00
0.01
0.00
0.00
0.00
0.00
0.00
0.01
0.00
0.00
0.00
0.00
0.00
0.00
0.00
0.00
0.02
0.00
0.04
0.04
0.11
0.11
0.29
0.15
0.14
0.11
0.00
0.00
0.05
0.00
0.02
0.02
0.02
0.02
0.05
0.25
0.58
0.70
0.75
0.83
0.63
0.64
0.54
0.00
0.02
0.00
0.01
0.02
0.04
0.04
0.07
0.07
0.10
0.11
0.11
0.13
0.15
0.19
0.19
0.24
0.24
0.26
0.29
0.33
0.26
0.33
0.25
0.21
0.19
0.11
0.04
0.01
0.00
0.00
0.00
0.01
0.01
0.04
0.07
0.07
0.07
0.04
0.04
0.04
0.07
0.10
0.10
0.07
0.07
0.11
0.07
0.10
0.11
0.10
0.07
0.10
0.07
0.10
0.04
0.07
0.04
0.04
0.04
0.04
0.02
0.02
0.01
0.02
0.02
0.01
0.01
0.04
0.10
0.10
0.15
0.11
0.33
0.19
0.11
0.04
0.00
0.02
0.02
0.00
0.00
0.02
0.02
0.02
0.02
0.33
0.55
0.71
0.77
0.86
0.62
0.63
0.53
0.02
0.02
0.00
0.00
0.01
0.01
0.04
0.04
0.04
0.07
0.10
0.11
0.11
0.13
0.14
0.15
0.19
0.19
0.21
0.19
0.19
0.19
0.15
0.11
0.11
0.07
0.02
0.00
0.02
0.02
0.02
0.00
0.01
0.01
0.04
0.04
0.07
0.11
0.04
0.10
0.10
0.04
0.07
0.10
0.04
0.10
0.07
0.04
0.10
0.10
0.10
0.10
0.07
0.04
0.10
0.04
0.07
0.04
0.04
0.01
0.04
0.04
0.01
0.02
0.02
0.01
0.01
0.02
0.04
0.11
0.04
0.15
0.24
0.24
0.14
0.10
0.00
0.05
0.05
0.02
0.05
0.07
0.10
0.10
0.11
0.10
0.29
0.64
0.23
0.75
0.75
0.63
0.61
0.39
0.11
0.15
0.07
0.05
0.02
0.02
0.00
0.00
0.01
0.01
0.00
0.00
0.01
0.00
0.01
0.01
0.01
0.01
0.00
0.00
0.05
0.02
0.05
0.10
0.15
0.11
0.15
0.15
0.16
0.15
0.11
0.05
0.05
0.02
0.00
0.00
0.00
0.00
0.00
0.02
0.00
0.00
0.02
0.00
0.00
0.00
0.00
0.00
0.01
0.00
0.00
0.01
0.00
0.00
0.00
0.00
0.00
0.00
0.02
0.02
0.02
0.02
0.05
0.05
0.02
0.02
0.05
0.01
0.00
0.01
0.04
0.19
0.13
0.10
0.04
0.06
0.05
0.15
0.07
0.10
0.15
0.15
0.15
0.26
0.04
0.49
0.67
0.62
0.66
0.62
0.63
0.58
0.11
0.15
0.06
0.07
0.02
0.02
0.02
0.00
0.00
0.00
0.00
0.00
0.00
0.00
0.01
0.00
0.01
0.01
0.02
0.01
0.00
0.01
0.00
0.00
0.02
0.00
0.02
0.05
0.06
0.06
0.05
0.05
0.02
0.02
0.02
0.00
0.00
0.01
0.00
0.01
0.00
0.01
0.01
0.01
0.02
0.01
0.00
0.00
0.01
0.01
0.01
0.01
0.01
0.01
0.00
0.02
0.00
0.01
0.01
0.01
0.01
0.01
0.01
0.01
0.00
0.00
0.01
0.02
0.04
0.11
0.10
0.14
0.29
0.21
0.19
0.11
0.01
0.00
0.02
0.00
0.00
0.02
0.06
0.02
0.06
0.07
0.45
0.74
0.61
0.83
0.74
0.63
0.59
0.11
0.06
0.02
0.00
0.00
0.01
0.02
0.02
0.04
0.10
0.07
0.10
0.13
0.11
0.15
0.21
0.21
0.24
0.26
0.26
0.33
0.29
0.29
0.24
0.19
0.15
0.11
0.07
0.01
0.00
0.02
0.02
0.00
0.00
0.00
0.00
0.02
0.01
0.02
0.01
0.01
0.01
0.01
0.02
0.01
0.01
0.02
0.04
0.01
0.02
0.04
0.02
0.02
0.01
0.01
0.01
0.01
0.01
0.00
0.00
0.00
0.02
0.00
0.00
0.00
0.00
0.00
0.00
0.00
0.00
0.07
0.02
0.11
0.14
0.21
0.14
0.07
0.01
0.05
0.06
0.05
0.06
0.02
0.06
0.07
0.11
0.11
0.29
0.57
0.25
0.80
0.87
0.63
0.63
0.51
0.06
0.07
0.05
0.00
0.00
0.00
0.01
0.01
0.04
0.02
0.04
0.04
0.07
0.07
0.10
0.10
0.13
0.11
0.13
0.11
0.10
0.11
0.04
0.04
0.01
0.00
0.02
0.06
0.11
0.15
0.15
0.10
0.11
0.02
0.05
0.00
0.01
0.01
0.00
0.00
0.01
0.01
0.00
0.00
0.01
0.01
0.01
0.02
0.01
0.00
0.02
0.01
0.02
0.02
0.02
0.01
0.00
0.01
0.02
0.00
0.01
0.01
0.00
0.00
0.00
0.00
0.00
0.00
0.01
0.02
0.00
0.01
0.04
0.04
0.11
0.19
0.14
0.11
0.04
0.02
0.10
0.11
0.07
0.05
0.07
0.07
0.10
0.11
0.11
0.36
0.69
0.60
0.75
0.72
0.63
0.60
0.29
0.10
0.10
0.10
0.06
0.02
0.05
0.02
0.02
0.02
0.00
0.00
0.00
0.00
0.00
0.00
0.00
0.00
0.02
0.06
0.02
0.06
0.07
0.11
0.16
0.19
0.23
0.23
0.26
0.20
0.20
0.16
0.15
0.11
0.06
0.02
0.00
0.00
0.00
0.02
0.01
0.00
0.00
0.00
0.00
0.00
0.00
0.00
0.00
0.02
0.00
0.05
0.00
0.00
0.02
0.02
0.02
0.05
0.02
0.05
0.00
0.02
0.02
0.02
0.05
0.02
0.02
0.05
0.00
0.02
0.00
0.04
0.07
0.14
0.10
0.07
0.01
0.11
0.06
0.15
0.10
0.11
0.11
0.15
0.16
0.27
0.07
0.52
0.38
0.66
0.63
0.61
0.62
0.54
0.15
0.16
0.11
0.07
0.07
0.05
0.02
0.02
0.02
0.00
0.00
0.02
0.00
0.00
0.00
0.00
0.00
0.00
0.00
0.00
0.01
0.00
0.00
0.02
0.02
0.02
0.00
0.06
0.02
0.07
0.05
0.00
0.02
0.01
0.00
0.00
0.01
0.04
0.04
0.02
0.04
0.01
0.02
0.02
0.01
0.02
0.01
0.01
0.01
0.01
0.01
0.01
0.00
0.01
0.00
0.01
0.00
0.01
0.01
0.01
0.01
0.00
0.01
0.00
0.01
0.01
0.01
0.02
0.11
0.04
0.13
0.26
0.24
0.21
0.11
0.01
0.00
0.00
0.02
0.00
0.00
0.02
0.05
0.06
0.00
0.36
0.67
0.44
0.75
0.77
0.63
0.61
0.35
0.02
0.02
0.00
0.00
0.02
0.01
0.07
0.04
0.11
0.10
0.11
0.13
0.15
0.15
0.19
0.19
0.21
0.25
0.26
0.26
0.26
0.26
0.25
0.24
0.19
0.14
0.10
0.04
0.01
0.00
0.00
0.01
0.00
0.02
0.04
0.04
0.07
0.07
0.04
0.04
0.07
0.07
0.04
0.07
0.07
0.10
0.10
0.07
0.07
0.04
0.04
0.07
0.04
0.04
0.04
0.04
0.04
0.04
0.02
0.04
0.02
0.02
0.01
0.01
0.02
0.01
0.02
0.01
0.01
0.04
0.11
0.10
0.15
0.19
0.36
0.19
0.19
0.07
0.00
0.01
0.02
0.00
0.01
0.00
0.00
0.02
0.05
0.33
0.57
0.70
0.75
0.85
0.62
0.64
0.53
0.00
0.02
0.00
0.00
0.04
0.02
0.04
0.07
0.07
0.04
0.11
0.13
0.13
0.15
0.14
0.15
0.19
0.19
0.24
0.24
0.24
0.19
0.19
0.11
0.11
0.04
0.07
0.00
0.00
0.02
0.05
0.05
0.00
0.00
0.04
0.04
0.04
0.04
0.04
0.04
0.04
0.04
0.07
0.04
0.04
0.04
0.07
0.07
0.04
0.10
0.07
0.04
0.04
0.04
0.07
0.04
0.04
0.01
0.02
0.02
0.01
0.01
0.01
0.00
0.01
0.00
0.01
0.00
0.01
0.01
0.11
0.07
0.11
0.19
0.24
0.13
0.04
0.00
0.06
0.07
0.07
0.06
0.07
0.07
0.10
0.15
0.07
0.36
0.68
0.62
0.82
0.73
0.63
0.59
0.16
0.07
0.07
0.06
0.02
0.00
0.00
0.00
0.00
0.01
0.01
0.01
0.01
0.04
0.02
0.02
0.07
0.04
0.04
0.04
0.04
0.01
0.00
0.02
0.05
0.06
0.10
0.15
0.19
0.20
0.16
0.15
0.06
0.07
0.02
0.02
0.02
0.00
0.00
0.00
0.00
0.02
0.00
0.00
0.00
0.02
0.02
0.02
0.02
0.00
0.02
0.05
0.02
0.00
0.02
0.00
0.02
0.02
0.00
0.02
0.02
0.02
0.00
0.00
0.00
0.00
0.00
0.00
0.04
0.00
0.07
0.10
0.19
0.13
0.07
0.00
0.05
0.06
0.06
0.05
0.06
0.11
0.11
0.10
0.16
0.14
0.57
0.00
0.65
0.61
0.60
0.61
0.39
0.15
0.15
0.10
0.07
0.07
0.02
0.06
0.02
0.02
0.05
0.02
0.05
0.02
0.05
0.02
0.02
0.02
0.05
0.05
0.07
0.06
0.11
0.10
0.11
0.15
0.15
0.15
0.15
0.16
0.07
0.11
0.10
0.05
0.05
0.02
0.00
0.02
0.00
0.00
0.00
0.02
0.00
0.05
0.02
0.02
0.02
0.06
0.07
0.06
0.07
0.10
0.05
0.11
0.07
0.10
0.07
0.10
0.07
0.05
0.10
0.10
0.10
0.06
0.10
0.07
0.07
0.06
0.02
0.00
0.04
0.04
0.11
0.04
0.00
0.05
0.16
0.11
0.11
0.15
0.15
0.15
0.15
0.20
0.20
0.14
0.58
0.02
0.73
0.73
0.62
0.61
0.45
0.10
0.07
0.06
0.02
0.02
0.00
0.00
0.00
0.01
0.02
0.04
0.04
0.11
0.11
0.11
0.11
0.13
0.14
0.19
0.19
0.19
0.19
0.15
0.13
0.13
0.11
0.04
0.01
0.02
0.05
0.02
0.00
0.00
0.00
0.00
0.01
0.01
0.01
0.04
0.02
0.01
0.01
0.02
0.01
0.01
0.01
0.01
0.01
0.01
0.02
0.00
0.01
0.01
0.00
0.00
0.00
0.00
0.00
0.00
0.00
0.00
0.00
0.00
0.02
0.00
0.02
0.00
0.04
0.00
0.10
0.11
0.15
0.10
0.04
0.00
0.06
0.06
0.06
0.07
0.06
0.11
0.11
0.11
0.15
0.36
0.60
0.00
0.80
0.84
0.66
0.61
0.39
0.07
0.07
0.05
0.02
0.00
0.00
0.01
0.00
0.01
0.01
0.04
0.04
0.10
0.10
0.13
0.11
0.19
0.19
0.19
0.19
0.19
0.15
0.14
0.14
0.07
0.04
0.00
0.02
0.06
0.05
0.05
0.02
0.00
0.00
0.01
0.01
0.04
0.04
0.01
0.02
0.01
0.02
0.01
0.02
0.04
0.02
0.04
0.04
0.04
0.04
0.01
0.04
0.02
0.02
0.01
0.01
0.01
0.01
0.01
0.01
0.00
0.00
0.00
0.00
0.00
0.00
0.00
0.00
0.07
0.02
0.13
0.14
0.19
0.13
0.04
0.00
0.02
0.02
0.05
0.02
0.02
0.07
0.02
0.06
0.07
0.36
0.67
0.53
0.83
0.75
0.63
0.58
0.26
0.05
0.06
0.02
0.01
0.00
0.00
0.01
0.02
0.01
0.04
0.04
0.07
0.10
0.11
0.10
0.11
0.14
0.11
0.11
0.13
0.11
0.07
0.04
0.00
0.01
0.02
0.05
0.10
0.15
0.11
0.10
0.07
0.05
0.02
0.00
0.01
0.01
0.01
0.00
0.00
0.00
0.00
0.01
0.01
0.02
0.01
0.01
0.02
0.02
0.02
0.01
0.01
0.01
0.01
0.01
0.01
0.01
0.00
0.00
0.00
0.00
0.00
0.00
0.00
0.00
0.02
0.00
0.00
0.00
0.04
0.00
0.07
0.04
0.19
0.10
0.04
0.00
0.07
0.10
0.10
0.10
0.10
0.15
0.11
0.15
0.20
0.11
0.47
0.67
0.65
0.70
0.60
0.62
0.55
0.11
0.16
0.11
0.07
0.06
0.02
0.02
0.00
0.02
0.00
0.00
0.00
0.00
0.00
0.00
0.00
0.00
0.00
0.02
0.05
0.05
0.05
0.06
0.11
0.15
0.10
0.15
0.15
0.15
0.15
0.15
0.06
0.02
0.02
0.02
0.02
0.02
0.00
0.00
0.00
0.00
0.00
0.02
0.00
0.02
0.00
0.00
0.02
0.00
0.00
0.00
0.00
0.02
0.00
0.00
0.00
0.00
0.02
0.00
0.02
0.02
0.00
0.02
0.00
0.02
0.02
0.02
0.01
0.01
0.07
0.04
0.24
0.11
0.10
0.04
0.02
0.02
0.11
0.10
0.06
0.06
0.10
0.07
0.23
0.14
0.52
0.67
0.62
0.68
0.61
0.63
0.58
0.06
0.11
0.06
0.02
0.02
0.00
0.00
0.00
0.01
0.00
0.01
0.04
0.04
0.07
0.10
0.07
0.11
0.11
0.14
0.13
0.19
0.15
0.14
0.13
0.13
0.10
0.04
0.01
0.00
0.00
0.00
0.00
0.00
0.01
0.01
0.01
0.02
0.02
0.02
0.04
0.02
0.04
0.02
0.02
0.04
0.04
0.04
0.04
0.02
0.02
0.04
0.02
0.04
0.07
0.04
0.04
0.02
0.02
0.04
0.04
0.04
0.04
0.04
0.02
0.02
0.04
0.04
0.02
0.07
0.11
0.10
0.15
0.21
0.21
0.14
0.10
0.00
0.00
0.02
0.02
0.02
0.06
0.05
0.02
0.05
0.01
0.47
0.71
0.64
0.80
0.75
0.63
0.58
0.19
0.02
0.00
0.00
0.02
0.04
0.04
0.10
0.07
0.11
0.13
0.14
0.15
0.19
0.21
0.24
0.26
0.29
0.26
0.33
0.33
0.29
0.26
0.24
0.19
0.14
0.14
0.07
0.01
0.00
0.02
0.00
0.00
0.01
0.02
0.04
0.04
0.04
0.04
0.04
0.04
0.02
0.04
0.04
0.07
0.07
0.04
0.10
0.07
0.07
0.10
0.10
0.07
0.10
0.04
0.07
0.04
0.07
0.04
0.04
0.02
0.02
0.04
0.04
0.01
0.01
0.01
0.01
0.01
0.04
0.11
0.10
0.15
0.19
0.25
0.19
0.14
0.04
0.00
0.00
0.02
0.00
0.00
0.02
0.02
0.02
0.05
0.38
0.57
0.53
0.79
0.85
0.61
0.62
0.47
0.06
0.07
0.02
0.00
0.01
0.01
0.01
0.01
0.04
0.04
0.07
0.10
0.07
0.11
0.11
0.13
0.13
0.14
0.13
0.13
0.15
0.13
0.11
0.07
0.04
0.01
0.00
0.00
0.06
0.07
0.05
0.06
0.02
0.00
0.00
0.01
0.01
0.01
0.01
0.01
0.00
0.00
0.00
0.00
0.00
0.00
0.00
0.00
0.00
0.00
0.00
0.00
0.00
0.00
0.00
0.02
0.00
0.02
0.00
0.02
0.02
0.02
0.00
0.00
0.02
0.00
0.02
0.05
0.00
0.00
0.01
0.00
0.07
0.10
0.15
0.10
0.02
0.00
0.07
0.10
0.07
0.11
0.11
0.07
0.15
0.15
0.23
0.15
0.53
0.49
0.71
0.73
0.62
0.62
0.55
0.10
0.16
0.15
0.07
0.06
0.06
0.05
0.00
0.05
0.02
0.05
0.02
0.02
0.00
0.00
0.02
0.02
0.05
0.02
0.07
0.07
0.06
0.11
0.15
0.11
0.16
0.20
0.16
0.20
0.16
0.15
0.11
0.11
0.07
0.05
0.02
0.02
0.00
0.02
0.00
0.02
0.02
0.02
0.05
0.05
0.02
0.02
0.05
0.02
0.06
0.06
0.05
0.06
0.07
0.06
0.07
0.06
0.10
0.07
0.10
0.07
0.07
0.10
0.10
0.10
0.06
0.10
0.05
0.00
0.02
0.02
0.01
0.15
0.10
0.02
0.00
0.10
0.11
0.15
0.15
0.15
0.15
0.15
0.16
0.23
0.10
0.53
0.57
0.63
0.66
0.62
0.63
0.58
0.11
0.11
0.11
0.05
0.02
0.02
0.00
0.00
0.00
0.00
0.00
0.00
0.02
0.01
0.01
0.02
0.02
0.01
0.04
0.04
0.07
0.04
0.02
0.00
0.00
0.00
0.00
0.10
0.11
0.11
0.10
0.07
0.05
0.02
0.02
0.02
0.00
0.00
0.00
0.01
0.00
0.00
0.00
0.01
0.01
0.01
0.01
0.00
0.00
0.01
0.00
0.01
0.00
0.01
0.00
0.00
0.00
0.00
0.00
0.01
0.00
0.00
0.00
0.00
0.00
0.00
0.01
0.04
0.07
0.04
0.15
0.19
0.25
0.15
0.07
0.01
0.02
0.02
0.02
0.02
0.02
0.05
0.02
0.06
0.05
0.38
0.63
0.11
0.80
0.86
0.65
0.63
0.49
0.06
0.02
0.05
0.00
0.00
0.01
0.01
0.01
0.01
0.04
0.07
0.07
0.10
0.13
0.11
0.15
0.19
0.21
0.21
0.21
0.21
0.25
0.24
0.19
0.14
0.11
0.04
0.00
0.00
0.02
0.02
0.02
0.02
0.00
0.01
0.01
0.01
0.01
0.01
0.02
0.01
0.00
0.00
0.00
0.01
0.01
0.02
0.01
0.01
0.01
0.01
0.01
0.02
0.02
0.01
0.01
0.01
0.01
0.02
0.01
0.00
0.01
0.01
0.01
0.01
0.01
0.00
0.01
0.04
0.10
0.10
0.13
0.19
0.15
0.11
0.04
0.02
0.06
0.10
0.07
0.07
0.10
0.06
0.06
0.11
0.07
0.36
0.67
0.58
0.84
0.80
0.66
0.61
0.36
0.06
0.06
0.02
0.00
0.00
0.01
0.02
0.02
0.02
0.04
0.02
0.10
0.10
0.13
0.11
0.15
0.14
0.19
0.19
0.15
0.19
0.15
0.11
0.10
0.07
0.04
0.00
0.02
0.06
0.07
0.10
0.02
0.05
0.00
0.00
0.00
0.01
0.01
0.00
0.00
0.00
0.00
0.00
0.01
0.00
0.01
0.01
0.02
0.02
0.01
0.02
0.01
0.02
0.04
0.01
0.02
0.01
0.00
0.00
0.01
0.00
0.00
0.00
0.00
0.00
0.01
0.00
0.01
0.00
0.00
0.04
0.04
0.04
0.11
0.26
0.13
0.11
0.04
0.02
0.06
0.11
0.07
0.07
0.10
0.07
0.07
0.11
0.04
0.38
0.75
0.61
0.73
0.62
0.61
0.59
0.11
0.15
0.10
0.07
0.07
0.02
0.02
0.02
0.02
0.05
0.02
0.02
0.02
0.00
0.02
0.00
0.02
0.00
0.02
0.06
0.02
0.07
0.15
0.15
0.15
0.15
0.19
0.20
0.20
0.19
0.11
0.10
0.07
0.02
0.02
0.00
0.00
0.01
0.01
0.00
0.02
0.00
0.00
0.01
0.00
0.00
0.02
0.02
0.00
0.02
0.02
0.02
0.02
0.02
0.02
0.02
0.02
0.02
0.05
0.02
0.00
0.05
0.06
0.02
0.05
0.05
0.05
0.00
0.05
0.01
0.00
0.07
0.04
0.19
0.13
0.10
0.02
0.02
0.02
0.07
0.06
0.06
0.07
0.07
0.06
0.16
0.10
0.47
0.67
0.60
0.66
0.61
0.63
0.61
0.19
0.16
0.11
0.10
0.07
0.02
0.02
0.02
0.02
0.00
0.00
0.00
0.00
0.00
0.01
0.01
0.01
0.01
0.02
0.01
0.02
0.01
0.01
0.01
0.01
0.00
0.00
0.00
0.02
0.02
0.02
0.05
0.00
0.00
0.00
0.00
0.00
0.01
0.02
0.02
0.02
0.02
0.02
0.04
0.04
0.02
0.04
0.01
0.04
0.02
0.02
0.01
0.02
0.01
0.02
0.02
0.02
0.01
0.01
0.02
0.01
0.01
0.01
0.02
0.01
0.01
0.01
0.02
0.11
0.10
0.14
0.21
0.25
0.15
0.11
0.04
0.00
0.00
0.02
0.06
0.06
0.01
0.14
0.15
0.33
0.60
0.71
0.38
0.72
0.61
0.35
0.57
0.29
0.10
0.02
0.05
0.06
0.06
0.00
0.02
0.02
0.00
0.00
0.00
0.00
0.00
0.01
0.00
0.01
0.01
0.00
0.00
0.00
0.02
0.02
0.05
0.06
0.05
0.06
0.05
0.02
0.02
0.00
0.00
0.01
0.01
0.02
0.04
0.07
0.04
0.04
0.04
0.01
0.02
0.04
0.02
0.02
0.02
0.01
0.04
0.04
0.04
0.04
0.04
0.02
0.04
0.07
0.04
0.04
0.04
0.04
0.04
0.07
0.04
0.04
0.04
0.04
0.04
0.04
0.04
0.04
0.04
0.11
0.11
0.19
0.19
0.38
0.19
0.19
0.11
0.00
0.00
0.02
0.00
0.00
0.00
0.00
0.00
0.02
0.33
0.53
0.68
0.78
0.86
0.61
0.64
0.51
0.00
0.00
0.01
0.04
0.04
0.04
0.10
0.11
0.10
0.13
0.15
0.14
0.21
0.21
0.24
0.24
0.25
0.26
0.25
0.26
0.33
0.24
0.21
0.19
0.19
0.13
0.10
0.04
0.00
0.02
0.02
0.00
0.01
0.01
0.04
0.04
0.04
0.04
0.07
0.04
0.01
0.02
0.04
0.04
0.04
0.04
0.02
0.02
0.04
0.04
0.04
0.07
0.04
0.01
0.02
0.04
0.01
0.02
0.02
0.01
0.01
0.02
0.01
0.01
0.00
0.01
0.01
0.01
0.02
0.02
0.00
0.04
0.11
0.45
0.39
0.21
0.00
0.33
0.54
0.60
0.58
0.63
0.01
0.44
0.11
0.24
0.10
0.27
0.23
0.11
0.07
0.10
0.15
0.16
0.16
0.20
0.26
0.31
0.33
0.33
0.44
0.49
0.51
0.51
0.55
0.56
0.57
0.56
0.55
0.49
0.37
0.27
0.15
0.02
0.01
0.04
0.07
0.02
0.02
0.01
0.01
0.02
0.00
0.00
0.02
0.01
0.00
0.01
0.00
0.01
0.00
0.01
0.01
0.02
0.01
0.01
0.00
0.01
0.07
0.01
0.01
0.00
0.00
0.01
0.00
0.01
0.01
0.00
0.00
0.00
0.00
0.02
0.02
0.02
0.02
0.00
0.00
0.00
0.02
0.02
0.05
0.02
0.02
0.02
0.00
0.02
0.01
0.11
0.11
0.07
0.02
0.02
0.06
0.10
0.10
0.10
0.11
0.15
0.15
0.19
0.15
0.11
0.57
0.27
0.65
0.62
0.61
0.62
0.41
0.15
0.11
0.06
0.02
0.02
0.02
0.00
0.01
0.00
0.01
0.01
0.04
0.02
0.04
0.11
0.11
0.10
0.11
0.11
0.13
0.14
0.15
0.15
0.11
0.11
0.10
0.04
0.02
0.00
0.05
0.05
0.02
0.02
0.00
0.00
0.00
0.01
0.00
0.04
0.01
0.02
0.02
0.04
0.01
0.02
0.04
0.01
0.04
0.01
0.01
0.02
0.01
0.02
0.01
0.01
0.02
0.01
0.01
0.02
0.01
0.01
0.01
0.01
0.01
0.01
0.01
0.02
0.10
0.26
0.54
0.63
0.61
0.57
0.45
0.19
0.11
0.19
0.02
0.64
0.67
0.39
0.53
0.01
0.26
0.15
0.11
0.07
0.15
0.16
0.23
0.20
0.26
0.29
0.35
0.39
0.41
0.49
0.51
0.55
0.57
0.59
0.61
0.61
0.60
0.60
0.57
0.54
0.45
0.31
0.11
0.00
0.04
0.07
0.11
0.11
0.11
0.11
0.04
0.07
0.04
0.10
0.04
0.07
0.04
0.07
0.07
0.04
0.07
0.07
0.10
0.04
0.04
0.07
0.04
0.04
0.04
0.04
0.04
0.01
0.04
0.01
0.02
0.01
0.01
0.04
0.01
0.02
0.02
0.01
0.01
0.01
0.01
0.02
0.01
0.01
0.00
0.01
0.02
0.04
0.07
0.11
0.11
0.14
0.29
0.14
0.13
0.07
0.02
0.02
0.06
0.02
0.05
0.02
0.06
0.05
0.07
0.25
0.45
0.70
0.75
0.84
0.62
0.64
0.51
0.00
0.06
0.00
0.00
0.01
0.02
0.04
0.04
0.07
0.11
0.11
0.11
0.14
0.14
0.19
0.24
0.21
0.26
0.25
0.25
0.29
0.24
0.24
0.19
0.15
0.11
0.07
0.02
0.02
0.05
0.07
0.07
0.02
0.00
0.01
0.00
0.01
0.00
0.00
0.01
0.00
0.00
0.00
0.00
0.01
0.00
0.01
0.01
0.01
0.01
0.00
0.04
0.01
0.02
0.02
0.02
0.01
0.01
0.01
0.01
0.00
0.00
0.01
0.00
0.00
0.04
0.00
0.11
0.15
0.19
0.15
0.10
0.01
0.02
0.02
0.05
0.10
0.15
0.15
0.02
0.01
0.00
0.26
0.57
0.69
0.67
0.61
0.26
0.59
0.44
0.15
0.15
0.07
0.11
0.10
0.11
0.15
0.15
0.07
0.15
0.15
0.15
0.16
0.19
0.20
0.16
0.23
0.27
0.35
0.35
0.37
0.41
0.44
0.47
0.49
0.47
0.41
0.39
0.29
0.23
0.16
0.10
0.06
0.00
0.02
0.02
0.00
0.02
0.00
0.02
0.00
0.02
0.00
0.00
0.00
0.02
0.02
0.02
0.02
0.06
0.02
0.02
0.05
0.02
0.02
0.02
0.00
0.06
0.02
0.05
0.02
0.02
0.00
0.00
0.00
0.00
0.01
0.04
0.04
0.07
0.25
0.14
0.19
0.11
0.00
0.00
0.06
0.02
0.05
0.05
0.07
0.05
0.15
0.11
0.44
0.69
0.63
0.72
0.62
0.62
0.61
0.19
0.10
0.02
0.02
0.02
0.00
0.00
0.01
0.01
0.01
0.04
0.02
0.04
0.04
0.07
0.07
0.11
0.11
0.14
0.15
0.19
0.19
0.15
0.14
0.13
0.11
0.07
0.01
0.00
0.00
0.00
0.00
0.02
0.00
0.00
0.00
0.01
0.01
0.00
0.02
0.02
0.01
0.01
0.01
0.01
0.02
0.01
0.01
0.02
0.04
0.01
0.04
0.01
0.01
0.04
0.04
0.02
0.01
0.01
0.00
0.00
0.00
0.01
0.01
0.00
0.00
0.00
0.00
0.04
0.02
0.11
0.07
0.25
0.11
0.14
0.04
0.02
0.02
0.07
0.02
0.05
0.06
0.06
0.10
0.06
0.25
0.57
0.68
0.77
0.86
0.65
0.63
0.52
0.02
0.02
0.00
0.00
0.02
0.02
0.07
0.10
0.10
0.07
0.11
0.14
0.15
0.19
0.19
0.21
0.24
0.25
0.26
0.26
0.29
0.25
0.26
0.19
0.19
0.11
0.04
0.00
0.00
0.02
0.02
0.02
0.00
0.00
0.01
0.04
0.02
0.04
0.02
0.02
0.02
0.02
0.04
0.02
0.02
0.02
0.01
0.04
0.04
0.04
0.04
0.02
0.02
0.02
0.04
0.02
0.01
0.01
0.00
0.01
0.01
0.00
0.01
0.00
0.00
0.00
0.00
0.00
0.01
0.04
0.04
0.11
0.15
0.19
0.11
0.04
0.00
0.05
0.05
0.05
0.05
0.05
0.05
0.07
0.07
0.06
0.42
0.63
0.07
0.84
0.85
0.63
0.61
0.44
0.00
0.06
0.00
0.00
0.01
0.04
0.02
0.04
0.04
0.04
0.10
0.10
0.13
0.14
0.11
0.19
0.19
0.19
0.21
0.19
0.19
0.15
0.14
0.11
0.04
0.04
0.00
0.02
0.05
0.05
0.05
0.02
0.00
0.00
0.02
0.01
0.02
0.02
0.02
0.02
0.00
0.01
0.01
0.00
0.00
0.01
0.01
0.01
0.00
0.01
0.01
0.01
0.01
0.00
0.01
0.00
0.00
0.00
0.01
0.00
0.00
0.00
0.00
0.00
0.00
0.00
0.02
0.02
0.00
0.00
0.00
0.05
0.00
0.00
0.00
0.00
0.04
0.01
0.07
0.04
0.19
0.02
0.00
0.00
0.11
0.07
0.07
0.10
0.07
0.11
0.10
0.10
0.16
0.19
0.50
0.54
0.70
0.74
0.61
0.62
0.56
0.16
0.20
0.15
0.10
0.06
0.02
0.07
0.02
0.02
0.00
0.02
0.00
0.02
0.02
0.00
0.00
0.02
0.00
0.02
0.05
0.05
0.06
0.07
0.10
0.16
0.19
0.16
0.20
0.16
0.15
0.19
0.15
0.11
0.07
0.07
0.02
0.05
0.02
0.02
0.02
0.00
0.02
0.00
0.02
0.02
0.02
0.00
0.02
0.02
0.02
0.02
0.02
0.00
0.02
0.02
0.05
0.05
0.02
0.02
0.00
0.02
0.02
0.05
0.02
0.02
0.02
0.05
0.05
0.05
0.05
0.02
0.00
0.00
0.00
0.01
0.07
0.11
0.02
0.00
0.06
0.11
0.15
0.07
0.10
0.11
0.15
0.11
0.15
0.07
0.21
0.63
0.07
0.71
0.68
0.62
0.62
0.44
0.06
0.06
0.05
0.00
0.00
0.01
0.01
0.00
0.01
0.01
0.04
0.04
0.04
0.04
0.04
0.07
0.10
0.10
0.10
0.11
0.07
0.04
0.07
0.04
0.01
0.00
0.02
0.05
0.10
0.10
0.07
0.07
0.05
0.02
0.00
0.02
0.00
0.00
0.00
0.00
0.00
0.00
0.00
0.00
0.01
0.01
0.01
0.01
0.02
0.01
0.01
0.02
0.01
0.01
0.01
0.01
0.01
0.01
0.01
0.01
0.01
0.00
0.01
0.00
0.00
0.00
0.00
0.00
0.00
0.00
0.00
0.00
0.02
0.11
0.04
0.13
0.10
0.25
0.07
0.10
0.01
0.11
0.07
0.07
0.06
0.05
0.07
0.05
0.06
0.06
0.29
0.53
0.70
0.75
0.85
0.63
0.62
0.53
0.02
0.00
0.02
0.01
0.01
0.04
0.04
0.04
0.04
0.11
0.11
0.13
0.14
0.14
0.19
0.19
0.19
0.25
0.26
0.26
0.25
0.26
0.21
0.15
0.15
0.11
0.07
0.00
0.00
0.05
0.06
0.02
0.02
0.00
0.01
0.01
0.02
0.04
0.01
0.04
0.02
0.02
0.02
0.02
0.04
0.04
0.02
0.01
0.02
0.07
0.04
0.04
0.07
0.04
0.04
0.04
0.04
0.02
0.04
0.01
0.02
0.01
0.01
0.01
0.00
0.00
0.00
0.00
0.00
0.00
0.00
0.00
0.02
0.01
0.04
0.04
0.11
0.10
0.21
0.14
0.10
0.01
0.02
0.06
0.06
0.02
0.05
0.05
0.02
0.06
0.02
0.04
0.49
0.71
0.63
0.82
0.77
0.65
0.59
0.20
0.02
0.02
0.00
0.01
0.02
0.04
0.04
0.07
0.07
0.07
0.13
0.11
0.13
0.13
0.15
0.14
0.19
0.19
0.19
0.19
0.19
0.14
0.13
0.07
0.04
0.01
0.00
0.05
0.07
0.05
0.05
0.02
0.00
0.00
0.01
0.02
0.02
0.04
0.04
0.04
0.02
0.02
0.04
0.04
0.02
0.02
0.02
0.04
0.04
0.04
0.04
0.04
0.04
0.04
0.02
0.04
0.04
0.02
0.01
0.01
0.01
0.01
0.01
0.00
0.00
0.02
0.00
0.00
0.02
0.00
0.00
0.00
0.02
0.00
0.00
0.00
0.00
0.01
0.04
0.00
0.11
0.13
0.13
0.04
0.01
0.05
0.11
0.11
0.11
0.07
0.11
0.11
0.07
0.07
0.15
0.21
0.53
0.01
0.73
0.73
0.61
0.58
0.45
0.15
0.15
0.11
0.07
0.05
0.02
0.00
0.00
0.00
0.00
0.00
0.00
0.00
0.01
0.00
0.00
0.00
0.02
0.02
0.02
0.05
0.07
0.07
0.11
0.19
0.16
0.19
0.23
0.26
0.27
0.23
0.16
0.10
0.07
0.06
0.02
0.07
0.02
0.05
0.02
0.02
0.00
0.05
0.02
0.00
0.00
0.02
0.02
0.02
0.00
0.02
0.02
0.02
0.00
0.02
0.02
0.02
0.05
0.00
0.05
0.05
0.02
0.05
0.05
0.02
0.02
0.05
0.06
0.06
0.05
0.02
0.00
0.00
0.01
0.02
0.15
0.11
0.04
0.01
0.06
0.07
0.16
0.06
0.10
0.15
0.15
0.15
0.15
0.04
0.33
0.67
0.64
0.71
0.63
0.63
0.61
0.23
0.16
0.10
0.06
0.02
0.02
0.00
0.00
0.00
0.01
0.01
0.02
0.01
0.04
0.04
0.07
0.07
0.07
0.07
0.10
0.10
0.04
0.04
0.02
0.02
0.00
0.00
0.02
0.06
0.10
0.11
0.06
0.05
0.05
0.02
0.00
0.02
0.00
0.00
0.00
0.00
0.00
0.01
0.01
0.01
0.01
0.01
0.02
0.01
0.01
0.00
0.00
0.01
0.00
0.01
0.00
0.00
0.00
0.00
0.00
0.00
0.00
0.00
0.00
0.02
0.00
0.00
0.00
0.00
0.00
0.02
0.00
0.00
0.00
0.00
0.04
0.07
0.10
0.11
0.19
0.19
0.07
0.01
0.05
0.11
0.00
0.04
0.13
0.19
0.11
0.02
0.11
0.36
0.33
0.47
0.63
0.61
0.64
0.29
0.45
0.07
0.05
0.02
0.02
0.02
0.00
0.02
0.02
0.02
0.02
0.02
0.02
0.02
0.06
0.07
0.11
0.19
0.20
0.26
0.26
0.23
0.20
0.15
0.05
0.00
0.04
0.11
0.19
0.21
0.19
0.14
0.13
0.11
0.04
0.04
0.04
0.02
0.01
0.02
0.01
0.01
0.02
0.01
0.02
0.02
0.02
0.04
0.01
0.02
0.04
0.02
0.04
0.01
0.02
0.01
0.01
0.01
0.01
0.00
0.01
0.01
0.01
0.00
0.01
0.01
0.02
0.00
0.01
0.01
0.00
0.01
0.01
0.00
0.04
0.07
0.07
0.10
0.15
0.19
0.25
0.13
0.10
0.00
0.02
0.05
0.02
0.02
0.02
0.02
0.02
0.02
0.02
0.45
0.70
0.54
0.78
0.78
0.63
0.59
0.23
0.02
0.02
0.00
0.01
0.02
0.04
0.07
0.07
0.07
0.10
0.11
0.15
0.13
0.19
0.19
0.21
0.24
0.24
0.24
0.21
0.24
0.19
0.19
0.11
0.11
0.04
0.01
0.00
0.07
0.07
0.07
0.05
0.02
0.00
0.01
0.01
0.01
0.04
0.04
0.02
0.04
0.02
0.01
0.04
0.02
0.04
0.04
0.04
0.04
0.04
0.07
0.07
0.04
0.04
0.04
0.04
0.04
0.02
0.02
0.01
0.01
0.00
0.01
0.01
0.00
0.01
0.00
0.00
0.00
0.00
0.00
0.01
0.04
0.07
0.13
0.10
0.29
0.11
0.07
0.01
0.07
0.06
0.10
0.05
0.06
0.07
0.06
0.06
0.05
0.14
0.47
0.79
0.65
0.78
0.61
0.63
0.56
0.06
0.10
0.05
0.02
0.00
0.00
0.02
0.01
0.01
0.01
0.02
0.04
0.04
0.04
0.04
0.04
0.04
0.01
0.01
0.00
0.00
0.05
0.05
0.07
0.10
0.15
0.16
0.19
0.23
0.20
0.20
0.15
0.07
0.06
0.02
0.00
0.00
0.00
0.00
0.00
0.00
0.00
0.00
0.02
0.01
0.00
0.00
0.00
0.00
0.00
0.00
0.00
0.00
0.01
0.00
0.01
0.02
0.00
0.00
0.00
0.00
0.02
0.02
0.02
0.02
0.05
0.02
0.05
0.06
0.05
0.02
0.00
0.01
0.04
0.00
0.14
0.11
0.04
0.01
0.11
0.11
0.15
0.07
0.10
0.15
0.15
0.16
0.16
0.00
0.21
0.68
0.62
0.66
0.62
0.63
0.61
0.27
0.16
0.15
0.16
0.07
0.11
0.05
0.07
0.00
0.05
0.02
0.02
0.00
0.00
0.00
0.00
0.00
0.00
0.01
0.01
0.00
0.00
0.00
0.00
0.02
0.00
0.06
0.07
0.11
0.10
0.11
0.10
0.05
0.02
0.02
0.00
0.01
0.00
0.01
0.01
0.00
0.01
0.00
0.00
0.00
0.00
0.00
0.00
0.00
0.00
0.00
0.00
0.02
0.02
0.00
0.00
0.00
0.00
0.00
0.02
0.02
0.02
0.00
0.02
0.00
0.05
0.02
0.02
0.02
0.00
0.01
0.04
0.10
0.07
0.24
0.11
0.07
0.01
0.06
0.10
0.15
0.07
0.10
0.15
0.15
0.10
0.15
0.11
0.47
0.74
0.66
0.78
0.64
0.62
0.57
0.10
0.11
0.07
0.02
0.00
0.00
0.01
0.00
0.00
0.04
0.01
0.04
0.07
0.07
0.10
0.14
0.14
0.19
0.19
0.19
0.19
0.24
0.15
0.15
0.11
0.11
0.04
0.01
0.02
0.02
0.05
0.00
0.00
0.01
0.01
0.02
0.04
0.02
0.04
0.04
0.02
0.02
0.01
0.01
0.04
0.02
0.02
0.02
0.01
0.04
0.01
0.02
0.04
0.01
0.01
0.02
0.01
0.02
0.01
0.02
0.00
0.00
0.00
0.00
0.00
0.00
0.00
0.00
0.00
0.00
0.04
0.10
0.07
0.11
0.21
0.19
0.11
0.11
0.00
0.05
0.05
0.05
0.02
0.02
0.02
0.05
0.02
0.00
0.47
0.73
0.63
0.78
0.72
0.63
0.58
0.15
0.05
0.05
0.02
0.00
0.00
0.01
0.02
0.01
0.04
0.04
0.04
0.07
0.13
0.11
0.14
0.14
0.14
0.15
0.15
0.15
0.13
0.11
0.10
0.04
0.01
0.00
0.02
0.02
0.15
0.07
0.06
0.05
0.00
0.00
0.01
0.01
0.01
0.00
0.01
0.01
0.01
0.01
0.04
0.01
0.01
0.01
0.00
0.04
0.01
0.04
0.01
0.01
0.01
0.01
0.02
0.02
0.01
0.01
0.01
0.01
0.01
0.01
0.01
0.00
0.01
0.00
0.01
0.00
0.00
0.00
0.00
0.02
0.10
0.04
0.11
0.11
0.19
0.07
0.07
0.00
0.06
0.06
0.06
0.07
0.02
0.06
0.06
0.06
0.16
0.33
0.61
0.00
0.75
0.75
0.61
0.61
0.49
0.11
0.15
0.11
0.06
0.05
0.02
0.02
0.00
0.00
0.00
0.00
0.00
0.01
0.00
0.01
0.00
0.00
0.01
0.01
0.01
0.02
0.00
0.05
0.06
0.07
0.11
0.15
0.16
0.20
0.16
0.15
0.11
0.11
0.06
0.02
0.02
0.02
0.02
0.02
0.05
0.02
0.02
0.02
0.02
0.00
0.02
0.02
0.02
0.00
0.02
0.00
0.02
0.02
0.02
0.02
0.00
0.00
0.00
0.02
0.02
0.02
0.00
0.00
0.02
0.02
0.02
0.02
0.02
0.00
0.01
0.00
0.01
0.04
0.19
0.14
0.10
0.04
0.05
0.06
0.15
0.02
0.07
0.10
0.11
0.11
0.20
0.01
0.29
0.69
0.62
0.66
0.61
0.63
0.61
0.23
0.16
0.10
0.07
0.06
0.02
0.02
0.02
0.00
0.00
0.01
0.01
0.01
0.01
0.01
0.04
0.04
0.02
0.02
0.02
0.01
0.04
0.01
0.01
0.01
0.00
0.02
0.02
0.06
0.06
0.06
0.05
0.02
0.02
0.00
0.01
0.01
0.00
0.01
0.04
0.02
0.02
0.01
0.01
0.01
0.01
0.01
0.02
0.01
0.00
0.01
0.01
0.01
0.04
0.01
0.01
0.01
0.01
0.02
0.01
0.02
0.02
0.01
0.04
0.01
0.02
0.01
0.01
0.01
0.01
0.01
0.07
0.10
0.13
0.13
0.33
0.19
0.19
0.11
0.00
0.00
0.02
0.00
0.00
0.02
0.02
0.02
0.07
0.24
0.55
0.71
0.71
0.80
0.61
0.64
0.54
0.02
0.02
0.00
0.00
0.01
0.02
0.04
0.04
0.07
0.04
0.07
0.07
0.10
0.11
0.11
0.14
0.14
0.14
0.15
0.15
0.19
0.15
0.15
0.13
0.10
0.04
0.01
0.00
0.02
0.06
0.07
0.06
0.02
0.00
0.01
0.01
0.04
0.01
0.04
0.01
0.04
0.02
0.04
0.04
0.07
0.04
0.07
0.10
0.04
0.07
0.11
0.04
0.07
0.07
0.07
0.04
0.04
0.01
0.02
0.01
0.04
0.04
0.02
0.02
0.01
0.01
0.04
0.01
0.04
0.07
0.11
0.11
0.14
0.36
0.19
0.25
0.10
0.02
0.00
0.00
0.00
0.00
0.05
0.02
0.02
0.02
0.01
0.47
0.71
0.62
0.78
0.74
0.64
0.60
0.26
0.06
0.06
0.00
0.00
0.00
0.01
0.01
0.04
0.07
0.07
0.10
0.11
0.13
0.14
0.19
0.19
0.19
0.21
0.19
0.25
0.21
0.19
0.15
0.13
0.07
0.07
0.02
0.00
0.02
0.02
0.05
0.00
0.01
0.01
0.01
0.04
0.04
0.04
0.07
0.04
0.04
0.07
0.04
0.07
0.07
0.07
0.07
0.10
0.07
0.10
0.11
0.11
0.07
0.07
0.07
0.10
0.10
0.10
0.11
0.07
0.04
0.10
0.07
0.07
0.10
0.04
0.04
0.04
0.02
0.10
0.04
0.07
0.04
0.10
0.13
0.14
0.19
0.33
0.25
0.19
0.13
0.00
0.00
0.00
0.00
0.00
0.00
0.00
0.02
0.02
0.01
0.44
0.70
0.61
0.78
0.70
0.62
0.58
0.20
0.02
0.02
0.00
0.00
0.01
0.01
0.01
0.02
0.04
0.01
0.04
0.07
0.10
0.10
0.11
0.11
0.11
0.11
0.11
0.11
0.10
0.07
0.04
0.01
0.01
0.00
0.05
0.07
0.11
0.16
0.06
0.07
0.02
0.00
0.00
0.01
0.02
0.02
0.04
0.04
0.02
0.04
0.04
0.04
0.02
0.04
0.04
0.02
0.04
0.02
0.02
0.04
0.01
0.01
0.02
0.02
0.02
0.01
0.01
0.01
0.01
0.01
0.02
0.01
0.01
0.00
0.00
0.02
0.02
0.07
0.02
0.11
0.19
0.21
0.14
0.10
0.01
0.05
0.05
0.02
0.05
0.07
0.06
0.10
0.10
0.15
0.19
0.64
0.50
0.72
0.62
0.61
0.60
0.31
0.15
0.15
0.10
0.10
0.06
0.05
0.02
0.06
0.02
0.02
0.00
0.00
0.00
0.02
0.02
0.02
0.00
0.02
0.02
0.07
0.11
0.15
0.15
0.16
0.16
0.20
0.23
0.23
0.23
0.20
0.19
0.15
0.07
0.05
0.02
0.02
0.00
0.00
0.02
0.00
0.00
0.00
0.02
0.02
0.00
0.00
0.00
0.00
0.02
0.00
0.02
0.05
0.00
0.02
0.02
0.02
0.05
0.06
0.06
0.02
0.05
0.06
0.05
0.06
0.07
0.06
0.07
0.07
0.00
0.02
0.00
0.02
0.11
0.04
0.00
0.02
0.15
0.15
0.19
0.19
0.20
0.23
0.23
0.27
0.35
0.00
0.45
0.07
0.68
0.66
0.62
0.63
0.56
0.20
0.26
0.15
0.16
0.15
0.15
0.10
0.07
0.05
0.06
0.05
0.02
0.02
0.02
0.00
0.00
0.00
0.00
0.01
0.01
0.01
0.02
0.00
0.00
0.00
0.02
0.02
0.10
0.15
0.15
0.15
0.11
0.10
0.05
0.02
0.02
0.02
0.00
0.00
0.00
0.00
0.01
0.00
0.01
0.01
0.01
0.01
0.01
0.00
0.01
0.01
0.01
0.00
0.01
0.00
0.00
0.00
0.00
0.00
0.00
0.00
0.00
0.00
0.00
0.00
0.00
0.00
0.00
0.01
0.02
0.04
0.10
0.21
0.11
0.13
0.01
0.02
0.05
0.11
0.05
0.07
0.10
0.07
0.15
0.15
0.11
0.49
0.71
0.70
0.83
0.66
0.60
0.59
0.10
0.11
0.06
0.05
0.02
0.00
0.00
0.00
0.01
0.01
0.01
0.04
0.07
0.07
0.11
0.07
0.11
0.13
0.13
0.14
0.14
0.14
0.11
0.07
0.07
0.02
0.00
0.00
0.06
0.11
0.07
0.07
0.05
0.02
0.00
0.00
0.00
0.00
0.01
0.00
0.00
0.00
0.00
0.00
0.00
0.01
0.01
0.01
0.01
0.01
0.02
0.01
0.01
0.01
0.01
0.02
0.00
0.01
0.01
0.00
0.01
0.01
0.00
0.00
0.00
0.00
0.01
0.00
0.00
0.01
0.04
0.04
0.13
0.25
0.19
0.19
0.10
0.01
0.00
0.00
0.00
0.00
0.00
0.05
0.00
0.05
0.00
0.42
0.70
0.61
0.78
0.73
0.62
0.58
0.16
0.10
0.02
0.00
0.02
0.01
0.01
0.01
0.01
0.04
0.04
0.04
0.04
0.04
0.07
0.11
0.11
0.11
0.11
0.11
0.11
0.11
0.10
0.04
0.02
0.01
0.00
0.02
0.10
0.15
0.15
0.15
0.07
0.05
0.00
0.00
0.00
0.01
0.00
0.01
0.01
0.00
0.00
0.00
0.01
0.01
0.01
0.01
0.01
0.01
0.01
0.01
0.02
0.01
0.01
0.01
0.01
0.01
0.02
0.01
0.01
0.00
0.01
0.01
0.02
0.01
0.01
0.01
0.01
0.02
0.10
0.10
0.11
0.11
0.26
0.19
0.15
0.07
0.00
0.00
0.05
0.00
0.00
0.02
0.02
0.02
0.05
0.25
0.55
0.67
0.75
0.79
0.60
0.62
0.49
0.00
0.02
0.00
0.00
0.00
0.02
0.02
0.02
0.04
0.04
0.07
0.10
0.11
0.11
0.11
0.10
0.14
0.15
0.13
0.11
0.11
0.10
0.07
0.04
0.01
0.00
0.02
0.05
0.07
0.06
0.06
0.02
0.00
0.00
0.00
0.02
0.04
0.02
0.02
0.02
0.04
0.04
0.04
0.02
0.02
0.01
0.04
0.04
0.02
0.04
0.02
0.02
0.02
0.01
0.01
0.02
0.02
0.01
0.01
0.01
0.00
0.01
0.00
0.00
0.01
0.00
0.01
0.00
0.04
0.02
0.04
0.11
0.26
0.14
0.14
0.04
0.02
0.02
0.10
0.02
0.02
0.07
0.07
0.10
0.19
0.10
0.39
0.71
0.62
0.70
0.61
0.64
0.60
0.15
0.16
0.10
0.11
0.07
0.05
0.02
0.05
0.05
0.02
0.02
0.02
0.05
0.02
0.02
0.02
0.02
0.02
0.07
0.02
0.05
0.07
0.10
0.10
0.15
0.10
0.11
0.11
0.11
0.15
0.11
0.06
0.02
0.02
0.00
0.00
0.00
0.01
0.02
0.02
0.01
0.01
0.01
0.02
0.01
0.02
0.01
0.01
0.01
0.01
0.00
0.01
0.01
0.01
0.00
0.00
0.01
0.00
0.01
0.00
0.00
0.00
0.00
0.00
0.00
0.00
0.00
0.04
0.07
0.10
0.11
0.29
0.15
0.19
0.11
0.02
0.00
0.05
0.00
0.02
0.05
0.05
0.06
0.15
0.11
0.49
0.71
0.60
0.67
0.62
0.62
0.57
0.02
0.06
0.02
0.00
0.00
0.01
0.02
0.04
0.04
0.04
0.07
0.07
0.11
0.14
0.14
0.19
0.15
0.15
0.19
0.24
0.19
0.21
0.15
0.14
0.11
0.13
0.07
0.01
0.00
0.00
0.00
0.01
0.01
0.01
0.04
0.04
0.04
0.04
0.10
0.10
0.11
0.04
0.10
0.10
0.07
0.07
0.10
0.10
0.10
0.07
0.04
0.04
0.04
0.04
0.04
0.04
0.02
0.04
0.02
0.01
0.04
0.02
0.01
0.02
0.04
0.01
0.02
0.04
0.13
0.07
0.15
0.33
0.25
0.25
0.13
0.04
0.01
0.01
0.00
0.01
0.01
0.00
0.00
0.02
0.14
0.57
0.78
0.61
0.80
0.68
0.61
0.56
0.05
0.02
0.00
0.00
0.04
0.04
0.04
0.10
0.11
0.07
0.13
0.11
0.19
0.19
0.19
0.24
0.25
0.33
0.26
0.33
0.29
0.26
0.24
0.24
0.15
0.13
0.10
0.04
0.00
0.00
0.00
0.00
0.01
0.00
0.01
0.04
0.04
0.04
0.04
0.04
0.04
0.04
0.02
0.04
0.02
0.04
0.04
0.04
0.04
0.04
0.04
0.04
0.04
0.04
0.02
0.02
0.04
0.04
0.01
0.04
0.04
0.01
0.01
0.00
0.01
0.01
0.01
0.00
0.00
0.01
0.04
0.04
0.11
0.11
0.25
0.15
0.14
0.04
0.02
0.02
0.10
0.02
0.05
0.05
0.05
0.06
0.07
0.13
0.53
0.73
0.72
0.83
0.63
0.60
0.57
0.07
0.05
0.05
0.00
0.00
0.01
0.00
0.01
0.01
0.02
0.01
0.07
0.04
0.07
0.11
0.11
0.11
0.11
0.14
0.11
0.13
0.13
0.07
0.07
0.02
0.01
0.02
0.06
0.11
0.15
0.15
0.10
0.06
0.02
0.00
0.00
0.01
0.02
0.01
0.01
0.00
0.01
0.01
0.01
0.01
0.01
0.01
0.01
0.00
0.01
0.00
0.01
0.00
0.00
0.00
0.00
0.00
0.00
0.00
0.00
0.00
0.00
0.00
0.02
0.00
0.05
0.02
0.02
0.00
0.00
0.01
0.01
0.04
0.15
0.11
0.10
0.02
0.06
0.10
0.15
0.07
0.07
0.07
0.11
0.10
0.15
0.04
0.33
0.71
0.62
0.72
0.62
0.62
0.60
0.16
0.16
0.10
0.10
0.07
0.02
0.07
0.05
0.02
0.00
0.00
0.00
0.02
0.00
0.02
0.00
0.02
0.02
0.05
0.06
0.05
0.10
0.11
0.15
0.16
0.19
0.15
0.20
0.26
0.23
0.23
0.19
0.16
0.07
0.06
0.05
0.07
0.00
0.02
0.02
0.02
0.05
0.02
0.02
0.02
0.05
0.00
0.02
0.05
0.00
0.02
0.05
0.06
0.05
0.06
0.06
0.05
0.06
0.07
0.06
0.07
0.07
0.07
0.11
0.06
0.07
0.10
0.05
0.00
0.00
0.00
0.01
0.19
0.11
0.07
0.01
0.06
0.05
0.11
0.11
0.10
0.11
0.11
0.16
0.20
0.13
0.53
0.66
0.64
0.71
0.62
0.63
0.59
0.10
0.16
0.06
0.10
0.02
0.02
0.02
0.00
0.00
0.00
0.01
0.00
0.01
0.04
0.04
0.04
0.04
0.10
0.10
0.11
0.11
0.07
0.07
0.07
0.04
0.04
0.02
0.00
0.02
0.06
0.02
0.05
0.00
0.00
0.01
0.00
0.01
0.01
0.04
0.01
0.01
0.02
0.02
0.01
0.01
0.00
0.02
0.01
0.01
0.00
0.00
0.00
0.00
0.00
0.00
0.00
0.00
0.00
0.00
0.00
0.00
0.00
0.00
0.02
0.00
0.02
0.00
0.00
0.01
0.04
0.02
0.11
0.07
0.26
0.13
0.07
0.02
0.02
0.02
0.05
0.05
0.05
0.06
0.05
0.06
0.07
0.29
0.54
0.64
0.78
0.86
0.63
0.64
0.55
0.10
0.07
0.02
0.00
0.00
0.01
0.01
0.01
0.02
0.04
0.07
0.10
0.07
0.11
0.14
0.14
0.19
