0.03
0.03
0.13
0.03
0.22
0.41
0.08
0.08
0.01
0.04
0.02
0.01
0.04
0.08
0.06
0.06
0.08
0.00
0.08
0.70
0.51
0.56
0.52
0.56
0.53
0.35
0.04
0.01
0.02
0.00
0.01
0.00
0.00
0.00
0.00
0.00
0.00
0.00
0.03
0.01
0.03
0.03
0.06
0.00
0.00
0.01
0.00
0.01
0.01
0.02
0.06
0.08
0.11
0.08
0.14
0.08
0.08
0.02
0.01
0.00
0.00
0.00
0.01
0.03
0.06
0.08
0.08
0.06
0.13
0.08
0.08
0.08
0.08
0.13
0.15
0.13
0.06
0.13
0.13
0.13
0.08
0.06
0.06
0.03
0.01
0.08
0.03
0.08
0.01
0.06
0.03
0.06
0.01
0.01
0.01
0.01
0.06
0.01
0.03
0.03
0.03
0.03
0.03
0.06
0.06
0.18
0.18
0.34
0.24
0.48
0.34
0.24
0.08
0.01
0.02
0.01
0.00
0.00
0.02
0.01
0.00
0.02
0.22
0.22
0.79
0.53
0.57
0.54
0.56
0.53
0.04
0.04
0.01
0.00
0.00
0.00
0.00
0.06
0.03
0.03
0.06
0.13
0.15
0.08
0.13
0.22
0.15
0.22
0.13
0.13
0.08
0.08
0.00
0.00
0.00
0.06
0.04
0.08
0.08
0.08
0.08
0.08
0.01
0.00
0.00
0.01
0.03
0.03
0.08
0.08
0.06
0.06
0.08
0.08
0.03
0.08
0.08
0.15
0.06
0.06
0.13
0.06
0.08
0.06
0.06
0.03
0.03
0.08
0.01
0.03
0.06
0.01
0.03
0.00
0.06
0.03
0.01
0.03
0.01
0.03
0.00
0.01
0.00
0.00
0.00
0.01
0.00
0.00
0.03
0.13
0.06
0.24
0.15
0.38
0.26
0.22
0.01
0.01
0.02
0.04
0.01
0.02
0.01
0.02
0.04
0.04
0.18
0.08
0.78
0.53
0.58
0.54
0.56
0.53
0.06
0.01
0.01
0.01
0.00
0.00
0.00
0.00
0.01
0.00
0.00
0.01
0.01
0.03
0.00
0.01
0.08
0.06
0.01
0.00
0.00
0.00
0.00
0.01
0.02
0.06
0.08
0.14
0.11
0.11
0.14
0.08
0.02
0.01
0.00
0.00
0.01
0.06
0.03
0.06
0.06
0.03
0.00
0.06
0.01
0.03
0.00
0.00
0.00
0.00
0.01
0.01
0.00
0.00
0.00
0.00
0.00
0.00
0.00
0.00
0.00
0.00
0.01
0.01
0.00
0.01
0.01
0.00
0.00
0.00
0.01
0.00
0.00
0.00
0.01
0.00
0.01
0.00
0.01
0.00
0.01
0.00
0.00
0.01
0.00
0.08
0.01
0.08
0.06
0.30
0.15
0.01
0.03
0.06
0.11
0.08
0.02
0.08
0.08
0.06
0.14
0.11
0.00
0.01
0.73
0.53
0.57
0.52
0.56
0.53
0.18
0.20
0.18
0.08
0.06
0.06
0.04
0.06
0.02
0.01
0.01
0.02
0.02
0.00
0.02
0.01
0.04
0.01
0.04
0.06
0.08
0.08
0.08
0.14
0.18
0.22
0.38
0.26
0.32
0.32
0.20
0.18
0.11
0.06
0.02
0.02
0.01
0.01
0.00
0.01
0.01
0.00
0.00
0.04
0.01
0.01
0.01
0.01
0.01
0.01
0.04
0.01
0.01
0.01
0.01
0.01
0.02
0.01
0.01
0.01
0.01
0.02
0.06
0.02
0.01
0.06
0.01
0.02
0.06
0.01
0.04
0.06
0.01
0.04
0.00
0.00
0.01
0.00
0.26
0.15
0.01
0.06
0.06
0.08
0.14
0.11
0.18
0.20
0.24
0.20
0.32
0.02
0.00
0.65
0.53
0.62
0.56
0.56
0.52
0.40
0.20
0.18
0.18
0.08
0.08
0.08
0.04
0.06
0.02
0.04
0.06
0.02
0.01
0.01
0.02
0.00
0.02
0.01
0.04
0.02
0.06
0.04
0.08
0.08
0.18
0.14
0.14
0.22
0.18
0.14
0.08
0.04
0.01
0.00
0.00
0.00
0.00
0.00
0.00
0.00
0.00
0.00
0.01
0.00
0.00
0.01
0.01
0.00
0.01
0.03
0.00
0.00
0.01
0.01
0.00
0.01
0.00
0.00
0.00
0.01
0.00
0.00
0.03
0.00
0.01
0.00
0.00
0.00
0.00
0.00
0.00
0.00
0.00
0.00
0.00
0.00
0.00
0.15
0.08
0.18
0.15
0.38
0.30
0.15
0.08
0.01
0.06
0.02
0.02
0.04
0.04
0.08
0.06
0.08
0.13
0.06
0.78
0.53
0.61
0.56
0.58
0.53
0.18
0.08
0.08
0.04
0.06
0.00
0.00
0.00
0.01
0.00
0.00
0.00
0.00
0.01
0.00
0.03
0.03
0.06
0.01
0.03
0.01
0.00
0.00
0.01
0.04
0.08
0.11
0.18
0.14
0.22
0.14
0.08
0.08
0.00
0.01
0.00
0.00
0.01
0.03
0.01
0.00
0.03
0.00
0.00
0.00
0.00
0.00
0.03
0.00
0.00
0.01
0.01
0.00
0.00
0.06
0.01
0.00
0.03
0.00
0.00
0.00
0.00
0.00
0.00
0.00
0.01
0.00
0.00
0.00
0.00
0.00
0.00
0.00
0.03
0.00
0.00
0.15
0.15
0.18
0.24
0.50
0.41
0.26
0.13
0.00
0.01
0.00
0.00
0.01
0.01
0.01
0.01
0.02
0.18
0.13
0.79
0.53
0.57
0.56
0.56
0.53
0.01
0.01
0.00
0.00
0.00
0.03
0.03
0.01
0.01
0.01
0.03
0.03
0.06
0.03
0.03
0.06
0.13
0.08
0.06
0.08
0.01
0.00
0.00
0.01
0.01
0.02
0.06
0.08
0.08
0.08
0.02
0.01
0.00
0.00
0.06
0.03
0.15
0.08
0.15
0.15
0.08
0.13
0.13
0.15
0.13
0.08
0.13
0.15
0.08
0.13
0.18
0.13
0.06
0.13
0.13
0.15
0.15
0.13
0.08
0.08
0.13
0.08
0.06
0.08
0.15
0.03
0.06
0.01
0.03
0.03
0.08
0.00
0.03
0.01
0.01
0.13
0.26
0.15
0.26
0.41
0.43
0.30
0.22
0.00
0.01
0.00
0.01
0.00
0.00
0.01
0.01
0.00
0.00
0.18
0.71
0.43
0.56
0.56
0.57
0.53
0.26
0.08
0.01
0.02
0.01
0.00
0.01
0.00
0.00
0.00
0.00
0.00
0.00
0.00
0.00
0.01
0.00
0.00
0.00
0.00
0.00
0.02
0.04
0.08
0.11
0.20
0.20
0.20
0.26
0.14
0.14
0.11
0.01
0.04
0.00
0.01
0.00
0.00
0.00
0.00
0.00
0.00
0.00
0.01
0.00
0.00
0.00
0.01
0.00
0.00
0.00
0.00
0.00
0.01
0.00
0.00
0.01
0.00
0.00
0.00
0.01
0.01
0.01
0.01
0.00
0.02
0.01
0.01
0.00
0.01
0.01
0.00
0.00
0.01
0.08
0.08
0.06
0.06
0.38
0.24
0.13
0.08
0.06
0.04
0.06
0.06
0.06
0.08
0.08
0.08
0.20
0.00
0.15
0.66
0.54
0.58
0.56
0.52
0.53
0.08
0.14
0.06
0.06
0.02
0.02
0.01
0.01
0.01
0.00
0.00
0.01
0.01
0.00
0.00
0.00
0.00
0.00
0.00
0.00
0.01
0.00
0.01
0.01
0.04
0.06
0.08
0.08
0.08
0.08
0.06
0.06
0.02
0.01
0.00
0.00
0.00
0.00
0.00
0.00
0.00
0.00
0.00
0.00
0.00
0.00
0.00
0.00
0.01
0.00
0.00
0.00
0.00
0.00
0.00
0.00
0.00
0.00
0.00
0.00
0.00
0.00
0.00
0.00
0.00
0.00
0.00
0.00
0.00
0.00
0.00
0.00
0.00
0.13
0.13
0.22
0.15
0.45
0.38
0.24
0.13
0.00
0.01
0.00
0.01
0.00
0.01
0.01
0.01
0.06
0.22
0.34
0.76
0.53
0.63
0.56
0.56
0.53
0.04
0.02
0.00
0.00
0.00
0.00
0.00
0.00
0.01
0.00
0.00
0.00
0.01
0.01
0.03
0.01
0.01
0.06
0.01
0.03
0.00
0.00
0.01
0.01
0.04
0.06
0.11
0.08
0.08
0.08
0.04
0.02
0.01
0.01
0.00
0.01
0.03
0.03
0.03
0.01
0.06
0.06
0.06
0.01
0.06
0.08
0.01
0.03
0.06
0.00
0.08
0.01
0.01
0.01
0.00
0.03
0.00
0.00
0.00
0.01
0.01
0.01
0.01
0.00
0.00
0.00
0.00
0.00
0.00
0.00
0.00
0.00
0.00
0.01
0.00
0.03
0.13
0.03
0.15
0.26
0.30
0.08
0.08
0.01
0.06
0.02
0.02
0.04
0.02
0.04
0.08
0.01
0.08
0.13
0.78
0.53
0.58
0.57
0.64
0.53
0.22
0.08
0.08
0.06
0.08
0.06
0.08
0.06
0.06
0.06
0.06
0.08
0.08
0.11
0.11
0.08
0.14
0.08
0.18
0.18
0.22
0.22
0.35
0.38
0.47
0.48
0.50
0.48
0.49
0.50
0.47
0.40
0.38
0.22
0.20
0.11
0.06
0.08
0.04
0.04
0.02
0.02
0.01
0.01
0.01
0.01
0.00
0.00
0.00
0.00
0.00
0.00
0.00
0.00
0.00
0.00
0.00
0.00
0.00
0.01
0.00
0.00
0.00
0.00
0.00
0.00
0.01
0.00
0.00
0.00
0.00
0.00
0.00
0.00
0.01
0.08
0.08
0.18
0.43
0.26
0.22
0.13
0.02
0.04
0.02
0.01
0.01
0.02
0.06
0.04
0.08
0.08
0.06
0.76
0.52
0.58
0.56
0.56
0.53
0.08
0.08
0.06
0.08
0.01
0.04
0.00
0.01
0.01
0.01
0.04
0.00
0.00
0.01
0.00
0.01
0.00
0.01
0.01
0.01
0.04
0.04
0.06
0.08
0.18
0.18
0.20
0.18
0.14
0.11
0.11
0.06
0.02
0.00
0.00
0.00
0.00
0.00
0.00
0.00
0.03
0.00
0.03
0.00
0.00
0.00
0.00
0.00
0.00
0.00
0.00
0.00
0.00
0.00
0.00
0.00
0.00
0.01
0.00
0.00
0.00
0.00
0.01
0.00
0.01
0.04
0.01
0.01
0.01
0.02
0.02
0.00
0.02
0.01
0.00
0.03
0.01
0.15
0.18
0.30
0.22
0.08
0.00
0.04
0.04
0.04
0.04
0.08
0.11
0.14
0.14
0.18
0.00
0.34
0.00
0.57
0.58
0.60
0.53
0.52
0.11
0.14
0.08
0.08
0.04
0.02
0.01
0.06
0.01
0.01
0.01
0.00
0.00
0.00
0.01
0.00
0.01
0.01
0.01
0.01
0.01
0.00
0.00
0.01
0.01
0.02
0.01
0.06
0.04
0.02
0.01
0.01
0.00
0.00
0.03
0.00
0.00
0.00
0.08
0.01
0.06
0.01
0.03
0.00
0.03
0.01
0.00
0.00
0.00
0.00
0.00
0.00
0.00
0.00
0.00
0.00
0.00
0.00
0.00
0.00
0.00
0.00
0.00
0.00
0.00
0.00
0.00
0.00
0.00
0.00
0.00
0.00
0.00
0.00
0.06
0.22
0.13
0.24
0.34
0.34
0.18
0.24
0.00
0.00
0.02
0.01
0.01
0.04
0.04
0.04
0.02
0.01
0.18
0.68
0.06
0.58
0.62
0.64
0.53
0.47
0.08
0.08
0.04
0.02
0.01
0.01
0.01
0.00
0.00
0.00
0.00
0.00
0.00
0.01
0.00
0.00
0.01
0.01
0.01
0.00
0.00
0.00
0.01
0.04
0.02
0.11
0.08
0.11
0.14
0.08
0.04
0.01
0.00
0.00
0.00
0.00
0.03
0.08
0.03
0.08
0.06
0.06
0.03
0.06
0.06
0.03
0.01
0.01
0.06
0.03
0.06
0.01
0.01
0.01
0.00
0.03
0.00
0.00
0.00
0.00
0.00
0.00
0.00
0.00
0.00
0.00
0.00
0.00
0.00
0.00
0.00
0.01
0.00
0.00
0.00
0.00
0.00
0.00
0.13
0.00
0.24
0.08
0.38
0.08
0.13
0.00
0.06
0.04
0.02
0.01
0.01
0.02
0.02
0.04
0.08
0.24
0.26
0.69
0.52
0.64
0.56
0.53
0.52
0.04
0.04
0.04
0.02
0.01
0.00
0.01
0.00
0.00
0.00
0.00
0.00
0.00
0.00
0.01
0.00
0.01
0.00
0.03
0.00
0.00
0.00
0.01
0.02
0.08
0.11
0.14
0.18
0.22
0.20
0.11
0.11
0.04
0.01
0.00
0.00
0.00
0.00
0.01
0.01
0.01
0.03
0.01
0.01
0.01
0.00
0.01
0.01
0.00
0.00
0.01
0.00
0.00
0.00
0.01
0.00
0.00
0.00
0.00
0.00
0.01
0.00
0.01
0.00
0.00
0.00
0.01
0.01
0.02
0.02
0.01
0.01
0.04
0.02
0.06
0.02
0.02
0.01
0.00
0.06
0.01
0.26
0.18
0.03
0.00
0.06
0.18
0.08
0.08
0.06
0.11
0.14
0.14
0.08
0.01
0.02
0.71
0.53
0.57
0.56
0.60
0.52
0.48
0.24
0.22
0.20
0.14
0.08
0.18
0.08
0.08
0.06
0.08
0.04
0.04
0.06
0.08
0.02
0.04
0.08
0.02
0.06
0.08
0.06
0.11
0.18
0.11
0.20
0.24
0.26
0.20
0.22
0.18
0.18
0.08
0.04
0.08
0.00
0.00
0.00
0.00
0.00
0.00
0.00
0.00
0.03
0.00
0.01
0.00
0.00
0.00
0.00
0.00
0.00
0.00
0.01
0.00
0.01
0.00
0.00
0.01
0.02
0.01
0.01
0.01
0.02
0.01
0.04
0.04
0.04
0.04
0.06
0.01
0.02
0.08
0.02
0.01
0.06
0.00
0.03
0.24
0.24
0.08
0.08
0.01
0.04
0.06
0.02
0.08
0.08
0.11
0.08
0.14
0.02
0.00
0.62
0.52
0.58
0.58
0.58
0.52
0.47
0.22
0.08
0.11
0.08
0.06
0.04
0.06
0.06
0.01
0.01
0.01
0.01
0.01
0.00
0.00
0.00
0.00
0.00
0.00
0.00
0.00
0.01
0.01
0.01
0.04
0.06
0.08
0.08
0.08
0.04
0.04
0.02
0.01
0.00
0.00
0.00
0.00
0.00
0.00
0.00
0.01
0.00
0.01
0.03
0.01
0.03
0.01
0.01
0.03
0.03
0.03
0.01
0.01
0.06
0.03
0.01
0.00
0.03
0.03
0.01
0.01
0.03
0.00
0.00
0.00
0.00
0.00
0.01
0.00
0.00
0.00
0.00
0.00
0.00
0.01
0.15
0.15
0.26
0.18
0.45
0.34
0.26
0.13
0.00
0.01
0.00
0.00
0.01
0.01
0.01
0.01
0.04
0.24
0.18
0.79
0.53
0.62
0.56
0.57
0.53
0.08
0.02
0.01
0.01
0.00
0.00
0.00
0.00
0.00
0.03
0.00
0.01
0.00
0.08
0.03
0.06
0.03
0.03
0.00
0.08
0.00
0.00
0.00
0.00
0.02
0.08
0.06
0.11
0.14
0.11
0.08
0.04
0.02
0.00
0.00
0.00
0.01
0.01
0.01
0.03
0.03
0.08
0.03
0.03
0.06
0.06
0.01
0.03
0.03
0.01
0.01
0.00
0.06
0.00
0.06
0.03
0.01
0.00
0.00
0.00
0.01
0.00
0.00
0.00
0.00
0.00
0.00
0.00
0.00
0.01
0.00
0.00
0.01
0.00
0.00
0.00
0.06
0.13
0.13
0.24
0.08
0.43
0.22
0.08
0.01
0.04
0.06
0.04
0.01
0.02
0.04
0.02
0.06
0.08
0.13
0.06
0.76
0.52
0.66
0.56
0.56
0.53
0.20
0.20
0.18
0.08
0.08
0.08
0.06
0.02
0.01
0.01
0.02
0.01
0.00
0.01
0.01
0.00
0.00
0.00
0.00
0.00
0.01
0.01
0.04
0.08
0.08
0.14
0.22
0.18
0.20
0.11
0.11
0.06
0.02
0.00
0.00
0.00
0.01
0.00
0.06
0.00
0.01
0.01
0.03
0.00
0.01
0.00
0.00
0.00
0.00
0.00
0.01
0.00
0.00
0.00
0.00
0.00
0.00
0.00
0.00
0.00
0.01
0.00
0.00
0.00
0.00
0.00
0.01
0.01
0.00
0.00
0.01
0.00
0.01
0.01
0.00
0.00
0.03
0.06
0.18
0.08
0.34
0.26
0.08
0.08
0.02
0.04
0.04
0.02
0.06
0.04
0.08
0.06
0.11
0.00
0.01
0.72
0.53
0.57
0.54
0.56
0.52
0.11
0.18
0.14
0.11
0.06
0.04
0.06
0.01
0.01
0.01
0.01
0.00
0.01
0.00
0.00
0.00
0.00
0.00
0.01
0.00
0.01
0.02
0.04
0.08
0.14
0.11
0.20
0.20
0.11
0.08
0.11
0.08
0.04
0.01
0.01
0.00
0.00
0.00
0.00
0.01
0.00
0.00
0.00
0.00
0.00
0.01
0.00
0.00
0.01
0.00
0.00
0.01
0.00
0.00
0.00
0.01
0.00
0.00
0.00
0.01
0.00
0.00
0.01
0.00
0.01
0.00
0.01
0.00
0.00
0.00
0.01
0.01
0.01
0.15
0.03
0.15
0.26
0.30
0.18
0.15
0.00
0.04
0.02
0.01
0.04
0.08
0.08
0.08
0.11
0.06
0.00
0.57
0.47
0.57
0.57
0.57
0.52
0.47
0.08
0.11
0.06
0.01
0.01
0.00
0.00
0.00
0.00
0.00
0.01
0.00
0.00
0.01
0.06
0.01
0.06
0.06
0.01
0.01
0.01
0.00
0.00
0.00
0.06
0.06
0.08
0.06
0.08
0.06
0.08
0.01
0.01
0.00
0.00
0.01
0.00
0.03
0.03
0.03
0.01
0.03
0.06
0.03
0.03
0.06
0.06
0.08
0.06
0.06
0.06
0.01
0.03
0.01
0.01
0.01
0.03
0.00
0.00
0.00
0.00
0.00
0.01
0.00
0.00
0.00
0.01
0.00
0.00
0.01
0.00
0.00
0.00
0.08
0.24
0.13
0.24
0.43
0.41
0.22
0.18
0.00
0.01
0.00
0.01
0.01
0.01
0.01
0.01
0.01
0.00
0.18
0.73
0.40
0.57
0.57
0.64
0.53
0.26
0.02
0.02
0.01
0.00
0.00
0.00
0.01
0.00
0.01
0.01
0.01
0.00
0.06
0.03
0.03
0.08
0.13
0.03
0.03
0.01
0.03
0.00
0.00
0.01
0.02
0.08
0.11
0.08
0.14
0.11
0.06
0.04
0.02
0.00
0.00
0.00
0.03
0.00
0.00
0.00
0.00
0.00
0.00
0.00
0.00
0.00
0.00
0.00
0.00
0.00
0.03
0.01
0.00
0.00
0.00
0.00
0.00
0.00
0.00
0.00
0.01
0.00
0.00
0.00
0.00
0.00
0.00
0.00
0.00
0.00
0.00
0.00
0.00
0.08
0.18
0.08
0.15
0.30
0.41
0.15
0.08
0.00
0.02
0.02
0.01
0.01
0.02
0.01
0.01
0.01
0.06
0.08
0.79
0.53
0.60
0.56
0.57
0.53
0.08
0.01
0.04
0.00
0.00
0.00
0.00
0.01
0.00
0.01
0.00
0.01
0.00
0.01
0.03
0.01
0.03
0.00
0.03
0.00
0.00
0.00
0.01
0.04
0.06
0.11
0.14
0.11
0.11
0.18
0.11
0.08
0.02
0.01
0.00
0.00
0.00
0.06
0.00
0.00
0.00
0.00
0.00
0.00
0.03
0.00
0.00
0.00
0.01
0.00
0.01
0.00
0.00
0.00
0.00
0.01
0.01
0.00
0.00
0.00
0.00
0.00
0.00
0.00
0.00
0.00
0.00
0.00
0.02
0.00
0.00
0.01
0.00
0.01
0.00
0.02
0.00
0.08
0.00
0.15
0.06
0.45
0.08
0.03
0.00
0.18
0.04
0.04
0.04
0.04
0.04
0.01
0.11
0.11
0.06
0.34
0.26
0.56
0.56
0.57
0.53
0.52
0.08
0.11
0.06
0.06
0.02
0.01
0.01
0.02
0.01
0.01
0.02
0.01
0.01
0.01
0.00
0.00
0.01
0.02
0.06
0.04
0.06
0.06
0.08
0.18
0.18
0.18
0.24
0.22
0.24
0.14
0.14
0.08
0.02
0.01
0.01
0.01
0.00
0.00
0.00
0.00
0.00
0.00
0.00
0.00
0.00
0.00
0.00
0.00
0.00
0.00
0.00
0.00
0.00
0.00
0.00
0.01
0.00
0.01
0.00
0.01
0.00
0.00
0.01
0.00
0.00
0.00
0.00
0.00
0.01
0.01
0.00
0.00
0.08
0.00
0.18
0.06
0.34
0.13
0.18
0.00
0.08
0.04
0.08
0.11
0.08
0.08
0.14
0.14
0.20
0.00
0.26
0.62
0.56
0.63
0.57
0.52
0.53
0.08
0.11
0.06
0.06
0.02
0.01
0.00
0.00
0.01
0.00
0.00
0.00
0.01
0.00
0.03
0.01
0.00
0.03
0.03
0.01
0.06
0.00
0.00
0.01
0.01
0.01
0.06
0.08
0.06
0.08
0.08
0.08
0.08
0.04
0.01
0.02
0.02
0.02
0.02
0.04
0.02
0.01
0.04
0.01
0.02
0.01
0.01
0.01
0.00
0.01
0.01
0.01
0.00
0.01
0.00
0.00
0.00
0.00
0.00
0.00
0.00
0.01
0.00
0.03
0.00
0.03
0.01
0.15
0.03
0.06
0.06
0.03
0.08
0.26
0.18
0.34
0.38
0.48
0.43
0.34
0.08
0.00
0.00
0.00
0.00
0.00
0.00
0.00
0.00
0.00
0.34
0.70
0.00
0.57
0.63
0.63
0.53
0.43
0.01
0.01
0.01
0.00
0.00
0.00
0.01
0.03
0.03
0.01
0.03
0.03
0.06
0.13
0.15
0.13
0.15
0.13
0.13
0.18
0.13
0.06
0.03
0.00
0.01
0.01
0.08
0.06
0.04
0.02
0.02
0.01
0.00
0.00
0.01
0.13
0.08
0.13
0.15
0.08
0.15
0.08
0.13
0.06
0.08
0.08
0.15
0.13
0.08
0.08
0.15
0.03
0.15
0.13
0.13
0.15
0.08
0.08
0.06
0.01
0.06
0.06
0.00
0.03
0.00
0.01
0.00
0.00
0.00
0.00
0.01
0.00
0.00
0.06
0.24
0.01
0.38
0.13
0.50
0.15
0.18
0.01
0.01
0.06
0.01
0.00
0.00
0.01
0.01
0.01
0.04
0.24
0.15
0.76
0.54
0.66
0.56
0.56
0.53
0.11
0.06
0.06
0.02
0.04
0.01
0.01
0.01
0.02
0.00
0.02
0.01
0.01
0.01
0.00
0.00
0.00
0.00
0.00
0.00
0.00
0.00
0.02
0.04
0.04
0.18
0.14
0.18
0.18
0.11
0.08
0.06
0.01
0.00
0.00
0.01
0.00
0.01
0.01
0.08
0.03
0.03
0.01
0.01
0.03
0.01
0.00
0.00
0.00
0.01
0.00
0.00
0.00
0.00
0.03
0.01
0.00
0.01
0.01
0.00
0.00
0.01
0.00
0.01
0.01
0.00
0.02
0.00
0.01
0.01
0.01
0.01
0.01
0.00
0.00
0.06
0.00
0.18
0.15
0.34
0.15
0.08
0.00
0.04
0.06
0.02
0.06
0.06
0.18
0.08
0.14
0.20
0.00
0.26
0.15
0.56
0.57
0.58
0.52
0.53
0.20
0.22
0.18
0.11
0.14
0.11
0.08
0.04
0.08
0.06
0.08
0.04
0.04
0.01
0.06
0.06
0.02
0.01
0.06
0.06
0.08
0.08
0.14
0.20
0.22
0.22
0.24
0.20
0.26
0.26
0.18
0.22
0.18
0.08
0.06
0.04
0.06
0.02
0.02
0.02
0.02
0.02
0.06
0.01
0.02
0.02
0.02
0.01
0.06
0.02
0.01
0.04
0.02
0.01
0.04
0.04
0.01
0.04
0.04
0.04
0.04
0.04
0.02
0.02
0.04
0.02
0.06
0.06
0.08
0.04
0.08
0.02
0.06
0.00
0.00
0.00
0.08
0.06
0.18
0.03
0.06
0.00
0.11
0.06
0.08
0.08
0.08
0.08
0.08
0.11
0.06
0.00
0.55
0.08
0.58
0.57
0.60
0.53
0.49
0.08
0.14
0.04
0.04
0.04
0.00
0.01
0.01
0.00
0.01
0.00
0.00
0.00
0.00
0.00
0.00
0.00
0.03
0.00
0.00
0.00
0.00
0.01
0.01
0.02
0.08
0.08
0.08
0.08
0.08
0.04
0.04
0.01
0.02
0.01
0.00
0.00
0.00
0.00
0.00
0.00
0.03
0.00
0.00
0.03
0.03
0.00
0.00
0.00
0.00
0.00
0.00
0.00
0.00
0.00
0.00
0.00
0.00
0.00
0.01
0.01
0.01
0.01
0.01
0.00
0.01
0.01
0.02
0.01
0.01
0.01
0.01
0.00
0.02
0.01
0.01
0.00
0.06
0.00
0.08
0.15
0.30
0.01
0.08
0.02
0.08
0.02
0.01
0.02
0.02
0.04
0.02
0.02
0.00
0.18
0.72
0.48
0.57
0.57
0.64
0.53
0.38
0.04
0.02
0.01
0.01
0.00
0.01
0.00
0.00
0.00
0.00
0.00
0.00
0.00
0.00
0.00
0.03
0.00
0.00
0.00
0.00
0.00
0.01
0.00
0.02
0.06
0.08
0.08
0.08
0.14
0.11
0.08
0.01
0.01
0.00
0.00
0.03
0.03
0.03
0.06
0.03
0.08
0.03
0.08
0.13
0.03
0.06
0.13
0.06
0.06
0.13
0.13
0.08
0.13
0.08
0.08
0.08
0.08
0.03
0.03
0.06
0.06
0.03
0.03
0.00
0.00
0.01
0.00
0.01
0.00
0.00
0.00
0.01
0.01
0.00
0.00
0.00
0.01
0.08
0.15
0.13
0.22
0.26
0.50
0.18
0.15
0.00
0.04
0.01
0.01
0.00
0.01
0.01
0.01
0.01
0.00
0.22
0.68
0.04
0.56
0.57
0.62
0.53
0.47
0.01
0.01
0.01
0.00
0.01
0.00
0.00
0.00
0.00
0.00
0.00
0.01
0.01
0.01
0.01
0.00
0.00
0.06
0.00
0.00
0.01
0.02
0.04
0.04
0.08
0.08
0.20
0.18
0.22
0.14
0.11
0.04
0.01
0.01
0.00
0.00
0.01
0.00
0.00
0.01
0.00
0.03
0.00
0.01
0.03
0.00
0.01
0.01
0.00
0.00
0.00
0.06
0.00
0.00
0.00
0.03
0.00
0.00
0.00
0.00
0.00
0.03
0.00
0.01
0.00
0.00
0.00
0.00
0.00
0.00
0.00
0.00
0.00
0.03
0.00
0.13
0.13
0.18
0.06
0.41
0.18
0.22
0.13
0.00
0.02
0.01
0.01
0.01
0.06
0.02
0.02
0.08
0.08
0.01
0.72
0.53
0.57
0.54
0.54
0.53
0.08
0.08
0.04
0.04
0.04
0.01
0.04
0.01
0.01
0.00
0.01
0.00
0.04
0.01
0.00
0.00
0.00
0.00
0.01
0.00
0.02
0.00
0.01
0.04
0.08
0.08
0.08
0.08
0.08
0.06
0.06
0.02
0.01
0.00
0.00
0.01
0.00
0.00
0.03
0.00
0.00
0.03
0.03
0.01
0.00
0.01
0.03
0.03
0.00
0.03
0.00
0.00
0.00
0.00
0.00
0.00
0.03
0.00
0.01
0.00
0.00
0.00
0.00
0.00
0.00
0.00
0.00
0.01
0.00
0.00
0.00
0.00
0.00
0.08
0.08
0.13
0.18
0.24
0.26
0.13
0.13
0.01
0.04
0.04
0.01
0.08
0.06
0.04
0.06
0.08
0.06
0.15
0.73
0.53
0.60
0.56
0.58
0.53
0.18
0.04
0.02
0.00
0.00
0.00
0.00
0.01
0.00
0.03
0.01
0.01
0.08
0.06
0.08
0.08
0.08
0.13
0.13
0.13
0.13
0.06
0.01
0.00
0.00
0.02
0.02
0.04
0.06
0.06
0.06
0.01
0.01
0.00
0.00
0.01
0.01
0.06
0.06
0.03
0.03
0.03
0.13
0.01
0.13
0.06
0.06
0.03
0.03
0.03
0.01
0.01
0.03
0.01
0.00
0.03
0.00
0.00
0.01
0.00
0.00
0.01
0.00
0.00
0.00
0.00
0.00
0.00
0.00
0.00
0.00
0.00
0.00
0.01
0.00
0.00
0.01
0.18
0.06
0.24
0.13
0.43
0.18
0.15
0.00
0.06
0.04
0.02
0.00
0.01
0.02
0.01
0.01
0.02
0.26
0.43
0.68
0.54
0.67
0.57
0.53
0.52
0.01
0.01
0.00
0.00
0.00
0.03
0.00
0.00
0.06
0.00
0.03
0.03
0.03
0.08
0.03
0.08
0.08
0.08
0.03
0.06
0.01
0.03
0.00
0.01
0.01
0.04
0.08
0.06
0.14
0.08
0.08
0.06
0.01
0.00
0.00
0.03
0.01
0.06
0.03
0.01
0.06
0.06
0.03
0.03
0.00
0.01
0.06
0.06
0.03
0.01
0.01
0.03
0.01
0.06
0.03
0.01
0.03
0.01
0.00
0.00
0.00
0.01
0.01
0.00
0.01
0.00
0.00
0.03
0.00
0.00
0.00
0.00
0.00
0.00
0.01
0.22
0.01
0.26
0.22
0.43
0.24
0.22
0.00
0.01
0.01
0.01
0.01
0.01
0.02
0.04
0.04
0.08
0.15
0.43
0.34
0.56
0.57
0.63
0.53
0.48
0.04
0.08
0.04
0.01
0.01
0.00
0.00
0.00
0.00
0.00
0.00
0.00
0.00
0.00
0.00
0.00
0.00
0.00
0.00
0.00
0.01
0.08
0.06
0.11
0.08
0.18
0.18
0.20
0.11
0.11
0.08
0.01
0.00
0.00
0.00
0.01
0.03
0.03
0.00
0.03
0.03
0.01
0.00
0.03
0.01
0.00
0.01
0.03
0.00
0.00
0.01
0.01
0.00
0.00
0.00
0.00
0.00
0.00
0.00
0.01
0.00
0.01
0.01
0.00
0.00
0.00
0.00
0.00
0.00
0.00
0.00
0.00
0.00
0.13
0.01
0.15
0.24
0.38
0.26
0.15
0.00
0.02
0.04
0.01
0.08
0.08
0.08
0.18
0.14
0.11
0.01
0.45
0.47
0.58
0.58
0.61
0.53
0.51
0.18
0.18
0.18
0.14
0.08
0.08
0.11
0.08
0.11
0.11
0.08
0.08
0.08
0.11
0.06
0.08
0.04
0.06
0.04
0.08
0.02
0.04
0.06
0.06
0.08
0.08
0.11
0.14
0.11
0.18
0.08
0.08
0.02
0.04
0.01
0.00
0.00
0.01
0.00
0.00
0.00
0.01
0.00
0.00
0.00
0.00
0.00
0.00
0.00
0.00
0.00
0.00
0.00
0.00
0.00
0.00
0.00
0.00
0.00
0.00
0.00
0.00
0.00
0.00
0.00
0.00
0.00
0.00
0.00
0.00
0.00
0.00
0.00
0.00
0.01
0.06
0.08
0.18
0.34
0.38
0.13
0.13
0.01
0.04
0.04
0.01
0.06
0.04
0.04
0.08
0.08
0.00
0.06
0.76
0.53
0.63
0.57
0.57
0.53
0.20
0.08
0.08
0.04
0.02
0.01
0.00
0.01
0.00
0.00
0.00
0.00
0.00
0.00
0.00
0.01
0.01
0.00
0.01
0.01
0.00
0.00
0.00
0.00
0.02
0.04
0.08
0.08
0.11
0.08
0.06
0.02
0.01
0.00
0.00
0.01
0.03
0.01
0.06
0.03
0.06
0.03
0.06
0.06
0.03
0.06
0.01
0.01
0.06
0.00
0.06
0.01
0.01
0.01
0.00
0.00
0.01
0.00
0.01
0.00
0.00
0.00
0.00
0.00
0.00
0.00
0.00
0.00
0.00
0.00
0.00
0.00
0.01
0.00
0.00
0.01
0.00
0.06
0.22
0.13
0.30
0.18
0.50
0.18
0.24
0.00
0.04
0.01
0.01
0.00
0.00
0.01
0.01
0.01
0.02
0.24
0.60
0.38
0.56
0.58
0.57
0.53
0.48
0.01
0.02
0.00
0.00
0.00
0.00
0.01
0.03
0.03
0.01
0.03
0.01
0.08
0.06
0.06
0.03
0.08
0.03
0.01
0.01
0.00
0.00
0.01
0.04
0.11
0.08
0.11
0.08
0.14
0.06
0.08
0.01
0.02
0.00
0.00
0.00
0.01
0.03
0.00
0.01
0.01
0.01
0.00
0.01
0.00
0.00
0.03
0.01
0.00
0.00
0.00
0.00
0.00
0.00
0.00
0.00
0.00
0.00
0.00
0.00
0.00
0.00
0.00
0.00
0.00
0.01
0.00
0.00
0.00
0.00
0.00
0.00
0.01
0.00
0.18
0.13
0.34
0.30
0.50
0.30
0.22
0.01
0.00
0.00
0.00
0.00
0.01
0.01
0.02
0.02
0.11
0.03
0.48
0.06
0.56
0.56
0.60
0.53
0.51
0.06
0.06
0.04
0.01
0.01
0.02
0.01
0.00
0.00
0.00
0.00
0.01
0.00
0.00
0.00
0.00
0.00
0.00
0.01
0.01
0.00
0.01
0.08
0.06
0.14
0.14
0.14
0.11
0.11
0.08
0.06
0.04
0.01
0.00
0.00
0.00
0.01
0.01
0.00
0.00
0.00
0.00
0.00
0.00
0.00
0.00
0.00
0.00
0.00
0.00
0.00
0.00
0.00
0.00
0.00
0.00
0.00
0.01
0.00
0.00
0.02
0.01
0.00
0.01
0.02
0.01
0.02
0.01
0.02
0.04
0.08
0.01
0.00
0.06
0.00
0.08
0.24
0.26
0.15
0.15
0.00
0.08
0.06
0.06
0.08
0.08
0.08
0.11
0.20
0.11
0.01
0.52
0.35
0.57
0.57
0.58
0.52
0.52
0.14
0.14
0.08
0.08
0.04
0.04
0.01
0.01
0.01
0.02
0.00
0.01
0.00
0.00
0.00
0.00
0.00
0.01
0.00
0.00
0.00
0.00
0.01
0.02
0.02
0.08
0.08
0.06
0.08
0.11
0.08
0.04
0.01
0.01
0.01
0.00
0.00
0.00
0.00
0.00
0.00
0.00
0.00
0.00
0.00
0.00
0.00
0.00
0.00
0.01
0.01
0.01
0.01
0.02
0.00
0.01
0.01
0.01
0.02
0.02
0.02
0.02
0.04
0.02
0.04
0.06
0.02
0.01
0.04
0.01
0.06
0.04
0.04
0.00
0.00
0.00
0.03
0.24
0.24
0.06
0.00
0.08
0.06
0.08
0.08
0.04
0.08
0.08
0.11
0.11
0.03
0.01
0.76
0.53
0.64
0.57
0.58
0.53
0.26
0.08
0.08
0.06
0.01
0.02
0.02
0.01
0.00
0.00
0.00
0.00
0.00
0.00
0.00
0.06
0.00
0.06
0.01
0.01
0.00
0.00
0.00
0.02
0.08
0.08
0.11
0.14
0.18
0.20
0.08
0.08
0.04
0.02
0.00
0.00
0.01
0.00
0.03
0.00
0.00
0.00
0.01
0.01
0.00
0.00
0.01
0.00
0.00
0.00
0.00
0.01
0.00
0.03
0.01
0.00
0.00
0.00
0.00
0.00
0.00
0.03
0.00
0.00
0.00
0.00
0.00
0.00
0.00
0.00
0.00
0.00
0.00
0.00
0.00
0.00
0.13
0.01
0.22
0.06
0.41
0.22
0.15
0.01
0.04
0.02
0.04
0.01
0.01
0.01
0.06
0.02
0.11
0.13
0.15
0.71
0.52
0.64
0.56
0.56
0.53
0.08
0.08
0.08
0.08
0.04
0.01
0.01
0.01
0.01
0.00
0.01
0.00
0.00
0.00
0.00
0.00
0.00
0.00
0.00
0.00
0.00
0.01
0.01
0.06
0.08
0.14
0.18
0.22
0.22
0.18
0.20
0.08
0.08
0.01
0.01
0.01
0.00
0.00
0.00
0.00
0.00
0.00
0.03
0.00
0.00
0.00
0.00
0.00
0.00
0.00
0.00
0.01
0.00
0.00
0.00
0.00
0.00
0.00
0.00
0.00
0.00
0.01
0.01
0.01
0.01
0.06
0.02
0.01
0.02
0.04
0.01
0.06
0.01
0.02
0.01
0.00
0.00
0.00
0.03
0.06
0.24
0.34
0.03
0.06
0.04
0.04
0.08
0.04
0.04
0.04
0.08
0.08
0.08
0.01
0.00
0.68
0.51
0.57
0.56
0.58
0.52
0.48
0.14
0.20
0.18
0.11
0.14
0.18
0.11
0.04
0.08
0.06
0.04
0.06
0.06
0.04
0.08
0.02
0.08
0.01
0.06
0.06
0.08
0.11
0.14
0.20
0.20
0.18
0.20
0.26
0.08
0.14
0.08
0.01
0.01
0.02
0.00
0.00
0.00
0.00
0.01
0.00
0.00
0.01
0.00
0.00
0.00
0.00
0.00
0.00
0.00
0.00
0.01
0.01
0.00
0.00
0.01
0.00
0.00
0.01
0.01
0.00
0.01
0.02
0.00
0.01
0.02
0.01
0.02
0.00
0.02
0.00
0.01
0.00
0.01
0.03
0.08
0.34
0.22
0.18
0.15
0.01
0.02
0.06
0.06
0.08
0.08
0.08
0.08
0.14
0.01
0.00
0.63
0.51
0.58
0.56
0.57
0.53
0.47
0.14
0.11
0.11
0.01
0.04
0.01
0.02
0.01
0.01
0.01
0.00
0.00
0.00
0.01
0.00
0.00
0.00
0.00
0.00
0.00
0.00
0.01
0.00
0.02
0.01
0.04
0.04
0.08
0.02
0.06
0.04
0.01
0.00
0.00
0.00
0.01
0.01
0.03
0.06
0.06
0.06
0.06
0.08
0.03
0.03
0.03
0.08
0.06
0.08
0.08
0.13
0.03
0.13
0.03
0.08
0.03
0.06
0.06
0.06
0.06
0.06
0.00
0.03
0.03
0.03
0.03
0.01
0.01
0.00
0.01
0.01
0.00
0.00
0.01
0.13
0.13
0.22
0.22
0.30
0.30
0.18
0.06
0.00
0.04
0.01
0.01
0.02
0.01
0.02
0.02
0.01
0.13
0.15
0.79
0.53
0.60
0.56
0.57
0.53
0.08
0.02
0.02
0.01
0.00
0.00
0.00
0.01
0.00
0.01
0.03
0.03
0.01
0.08
0.01
0.15
0.08
0.08
0.13
0.08
0.06
0.06
0.00
0.00
0.00
0.01
0.01
0.04
0.06
0.06
0.04
0.02
0.01
0.00
0.00
0.01
0.06
0.06
0.08
0.03
0.08
0.08
0.01
0.06
0.01
0.03
0.01
0.03
0.03
0.03
0.03
0.00
0.03
0.03
0.01
0.06
0.01
0.01
0.01
0.01
0.01
0.00
0.00
0.00
0.03
0.00
0.00
0.00
0.00
0.00
0.01
0.00
0.00
0.00
0.00
0.08
0.03
0.15
0.15
0.41
0.13
0.06
0.00
0.08
0.06
0.04
0.02
0.06
0.06
0.06
0.04
0.11
0.15
0.24
0.71
0.53
0.66
0.56
0.52
0.51
0.04
0.02
0.02
0.00
0.00
0.00
0.00
0.00
0.00
0.00
0.01
0.03
0.01
0.03
0.08
0.00
0.13
0.06
0.03
0.01
0.01
0.00
0.00
0.01
0.02
0.06
0.14
0.08
0.11
0.06
0.08
0.01
0.01
0.00
0.00
0.08
0.06
0.13
0.03
0.08
0.03
0.03
0.01
0.00
0.01
0.01
0.00
0.01
0.00
0.00
0.00
0.01
0.00
0.01
0.00
0.00
0.01
0.01
0.00
0.00
0.00
0.00
0.00
0.00
0.00
0.01
0.00
0.01
0.00
0.00
0.00
0.00
0.00
0.01
0.00
0.00
0.03
0.18
0.01
0.30
0.15
0.52
0.18
0.22
0.00
0.02
0.01
0.00
0.01
0.01
0.01
0.01
0.02
0.02
0.06
0.45
0.30
0.56
0.57
0.58
0.53
0.52
0.08
0.11
0.08
0.02
0.01
0.02
0.02
0.01
0.01
0.01
0.01
0.01
0.00
0.01
0.01
0.00
0.01
0.00
0.00
0.01
0.00
0.06
0.06
0.08
0.11
0.14
0.11
0.11
0.14
0.11
0.06
0.06
0.01
0.02
0.00
0.00
0.01
0.00
0.00
0.00
0.00
0.00
0.00
0.00
0.00
0.00
0.01
0.00
0.00
0.01
0.00
0.01
0.01
0.01
0.01
0.01
0.01
0.01
0.01
0.01
0.01
0.01
0.01
0.01
0.02
0.01
0.04
0.01
0.01
0.02
0.02
0.01
0.00
0.08
0.01
0.18
0.18
0.34
0.22
0.15
0.00
0.04
0.04
0.04
0.02
0.06
0.08
0.08
0.11
0.18
0.01
0.41
0.06
0.56
0.57
0.58
0.53
0.51
0.08
0.08
0.08
0.04
0.01
0.01
0.02
0.00
0.01
0.00
0.01
0.00
0.00
0.00
0.00
0.00
0.00
0.00
0.00
0.00
0.01
0.00
0.00
0.02
0.08
0.06
0.06
0.11
0.08
0.06
0.06
0.01
0.00
0.00
0.01
0.03
0.03
0.06
0.03
0.13
0.08
0.03
0.08
0.06
0.01
0.03
0.08
0.03
0.01
0.03
0.03
0.01
0.01
0.00
0.00
0.00
0.01
0.00
0.00
0.00
0.00
0.00
0.00
0.00
0.00
0.00
0.00
0.00
0.00
0.00
0.00
0.00
0.00
0.01
0.03
0.18
0.13
0.24
0.18
0.45
0.30
0.15
0.13
0.01
0.02
0.00
0.00
0.00
0.01
0.00
0.01
0.01
0.26
0.18
0.79
0.52
0.64
0.56
0.57
0.53
0.06
0.01
0.02
0.00
0.00
0.00
0.00
0.00
0.00
0.00
0.00
0.00
0.01
0.00
0.01
0.08
0.06
0.06
0.06
0.03
0.01
0.00
0.00
0.00
0.02
0.01
0.06
0.08
0.11
0.08
0.04
0.02
0.01
0.00
0.00
0.01
0.03
0.03
0.06
0.06
0.03
0.03
0.06
0.01
0.03
0.03
0.03
0.03
0.03
0.03
0.06
0.03
0.01
0.03
0.03
0.00
0.00
0.03
0.03
0.00
0.00
0.00
0.01
0.00
0.00
0.00
0.00
0.00
0.00
0.00
0.00
0.00
0.00
0.00
0.00
0.08
0.13
0.06
0.26
0.41
0.34
0.18
0.18
0.01
0.01
0.01
0.00
0.01
0.01
0.01
0.01
0.01
0.13
0.06
0.78
0.53
0.57
0.56
0.60
0.53
0.20
0.04
0.01
0.01
0.00
0.00
0.00
0.00
0.00
0.00
0.00
0.00
0.00
0.00
0.03
0.00
0.00
0.06
0.00
0.00
0.00
0.00
0.01
0.04
0.08
0.11
0.11
0.20
0.18
0.18
0.11
0.11
0.02
0.00
0.00
0.00
0.01
0.01
0.03
0.08
0.03
0.03
0.01
0.01
0.00
0.00
0.00
0.01
0.00
0.00
0.00
0.00
0.00
0.00
0.00
0.01
0.00
0.00
0.00
0.00
0.00
0.00
0.00
0.00
0.00
0.01
0.00
0.01
0.00
0.01
0.00
0.01
0.00
0.01
0.02
0.00
0.08
0.01
0.13
0.13
0.38
0.22
0.13
0.00
0.01
0.01
0.04
0.01
0.06
0.01
0.06
0.08
0.14
0.00
0.45
0.18
0.56
0.56
0.58
0.53
0.51
0.14
0.11
0.08
0.04
0.04
0.04
0.01
0.04
0.02
0.01
0.01
0.04
0.01
0.04
0.00
0.02
0.02
0.02
0.04
0.02
0.06
0.06
0.08
0.08
0.14
0.18
0.14
0.14
0.18
0.11
0.08
0.04
0.01
0.01
0.00
0.01
0.00
0.01
0.00
0.00
0.00
0.01
0.00
0.00
0.00
0.01
0.00
0.01
0.00
0.01
0.01
0.01
0.01
0.01
0.01
0.01
0.01
0.00
0.00
0.01
0.01
0.01
0.01
0.02
0.01
0.02
0.02
0.01
0.02
0.06
0.02
0.00
0.06
0.00
0.18
0.24
0.26
0.18
0.08
0.00
0.02
0.04
0.06
0.08
0.06
0.11
0.06
0.11
0.02
0.00
0.65
0.47
0.57
0.57
0.61
0.53
0.47
0.08
0.06
0.04
0.01
0.02
0.01
0.02
0.01
0.01
0.00
0.00
0.00
0.00
0.00
0.00
0.00
0.00
0.00
0.00
0.00
0.00
0.04
0.04
0.08
0.14
0.08
0.14
0.14
0.18
0.11
0.08
0.08
0.01
0.00
0.01
0.00
0.00
0.01
0.00
0.00
0.00
0.00
0.00
0.00
0.00
0.00
0.00
0.00
0.01
0.00
0.00
0.00
0.00
0.00
0.00
0.00
0.00
0.00
0.00
0.00
0.00
0.01
0.01
0.00
0.00
0.00
0.00
0.00
0.00
0.01
0.01
0.00
0.01
0.01
0.01
0.00
0.00
0.03
0.06
0.13
0.08
0.26
0.24
0.00
0.01
0.08
0.11
0.08
0.01
0.06
0.06
0.08
0.06
0.06
0.01
0.06
0.78
0.53
0.62
0.56
0.57
0.53
0.08
0.08
0.08
0.04
0.04
0.01
0.01
0.01
0.01
0.01
0.01
0.00
0.01
0.00
0.00
0.01
0.00
0.00
0.00
0.00
0.01
0.01
0.04
0.08
0.08
0.14
0.18
0.22
0.20
0.18
0.18
0.08
0.04
0.01
0.01
0.00
0.00
0.00
0.03
0.03
0.01
0.00
0.00
0.00
0.00
0.00
0.01
0.01
0.01
0.00
0.01
0.00
0.01
0.03
0.00
0.00
0.00
0.00
0.00
0.01
0.00
0.01
0.00
0.00
0.01
0.01
0.01
0.01
0.01
0.04
0.01
0.02
0.04
0.04
0.01
0.00
0.00
0.01
0.00
0.26
0.01
0.01
0.02
0.18
0.08
0.08
0.08
0.06
0.08
0.08
0.08
0.18
0.08
0.30
0.70
0.52
0.63
0.56
0.53
0.51
0.06
0.02
0.01
0.01
0.00
0.00
0.00
0.00
0.00
0.00
0.00
0.01
0.00
0.01
0.00
0.00
0.00
0.01
0.00
0.00
0.01
0.00
0.02
0.02
0.08
0.11
0.14
0.20
0.18
0.08
0.08
0.02
0.01
0.02
0.01
0.00
0.00
0.00
0.01
0.00
0.00
0.01
0.00
0.00
0.00
0.00
0.00
0.00
0.01
0.01
0.00
0.01
0.01
0.01
0.01
0.01
0.01
0.01
0.01
0.01
0.01
0.01
0.02
0.01
0.01
0.01
0.04
0.01
0.04
0.01
0.01
0.01
0.06
0.01
0.01
0.00
0.01
0.00
0.15
0.00
0.30
0.08
0.06
0.00
0.08
0.08
0.08
0.04
0.11
0.08
0.08
0.08
0.24
0.00
0.15
0.55
0.56
0.58
0.56
0.52
0.53
0.08
0.18
0.08
0.08
0.01
0.08
0.06
0.02
0.01
0.04
0.02
0.01
0.04
0.02
0.02
0.01
0.02
0.01
0.01
0.02
0.06
0.06
0.02
0.06
0.08
0.14
0.14
0.18
0.14
0.06
0.04
0.02
0.01
0.01
0.00
0.00
0.00
0.01
0.00
0.00
0.00
0.00
0.00
0.00
0.00
0.00
0.00
0.00
0.00
0.00
0.01
0.00
0.01
0.00
0.01
0.01
0.00
0.00
0.00
0.01
0.00
0.01
0.00
0.00
0.00
0.01
0.00
0.00
0.00
0.01
0.01
0.00
0.00
0.08
0.01
0.22
0.26
0.38
0.13
0.13
0.00
0.04
0.04
0.08
0.04
0.08
0.08
0.08
0.14
0.08
0.00
0.55
0.02
0.56
0.57
0.62
0.53
0.52
0.06
0.08
0.02
0.02
0.01
0.00
0.01
0.01
0.00
0.00
0.01
0.00
0.00
0.03
0.03
0.06
0.01
0.06
0.06
0.03
0.00
0.00
0.00
0.02
0.01
0.04
0.06
0.11
0.04
0.08
0.01
0.01
0.00
0.00
0.00
0.00
0.00
0.00
0.00
0.01
0.01
0.01
0.06
0.01
0.01
0.06
0.03
0.01
0.03
0.06
0.06
0.01
0.06
0.01
0.01
0.03
0.06
0.00
0.01
0.01
0.01
0.00
0.01
0.03
0.01
0.01
0.00
0.03
0.01
0.01
0.06
0.01
0.01
0.00
0.01
0.03
0.01
0.01
0.15
0.18
0.24
0.24
0.41
0.38
0.18
0.08
0.01
0.06
0.00
0.01
0.01
0.01
0.01
0.01
0.04
0.13
0.08
0.79
0.53
0.58
0.56
0.62
0.53
0.22
0.04
0.02
0.02
0.00
0.00
0.00
0.00
0.00
0.00
0.00
0.01
0.01
0.00
0.00
0.01
0.00
0.00
0.00
0.00
0.00
0.01
0.02
0.02
0.08
0.14
0.08
0.14
0.18
0.14
0.08
0.04
0.02
0.01
0.00
0.01
0.00
0.06
0.08
0.08
0.06
0.06
0.01
0.08
0.08
0.06
0.08
0.03
0.03
0.01
0.13
0.06
0.03
0.06
0.06
0.06
0.06
0.01
0.06
0.03
0.06
0.03
0.06
0.03
0.00
0.01
0.01
0.00
0.00
0.00
0.00
0.01
0.00
0.01
0.01
0.03
0.18
0.15
0.26
0.18
0.45
0.41
0.26
0.13
0.00
0.02
0.00
0.00
0.00
0.00
0.00
0.00
0.01
0.22
0.06
0.79
0.53
0.57
0.54
0.57
0.53
0.14
0.04
0.08
0.04
0.01
0.00
0.00
0.01
0.01
0.00
0.00
0.00
0.00
0.00
0.00
0.03
0.00
0.00
0.00
0.01
0.00
0.01
0.01
0.06
0.08
0.20
0.18
0.18
0.20
0.18
0.11
0.08
0.08
0.01
0.00
0.00
0.03
0.00
0.01
0.00
0.03
0.01
0.01
0.01
0.00
0.00
0.03
0.00
0.03
0.01
0.01
0.00
0.01
0.00
0.01
0.00
0.00
0.01
0.01
0.00
0.03
0.01
0.01
0.00
0.00
0.00
0.00
0.00
0.01
0.01
0.00
0.01
0.01
0.00
0.01
0.00
0.13
0.18
0.13
0.24
0.18
0.48
0.26
0.18
0.00
0.01
0.01
0.04
0.01
0.02
0.06
0.06
0.02
0.18
0.01
0.34
0.63
0.52
0.56
0.56
0.52
0.52
0.04
0.06
0.02
0.01
0.00
0.00
0.00
0.01
0.01
0.00
0.00
0.00
0.00
0.00
0.00
0.00
0.00
0.00
0.00
0.00
0.00
0.01
0.02
0.01
0.08
0.08
0.08
0.11
0.18
0.11
0.08
0.04
0.02
0.00
0.00
0.00
0.00
0.00
0.01
0.00
0.03
0.01
0.03
0.03
0.01
0.01
0.01
0.01
0.00
0.00
0.01
0.01
0.00
0.00
0.01
0.00
0.00
0.00
0.00
0.00
0.00
0.00
0.00
0.00
0.00
0.02
0.00
0.00
0.00
0.01
0.01
0.01
0.01
0.03
0.00
0.13
0.03
0.41
0.22
0.15
0.03
0.02
0.06
0.04
0.01
0.02
0.04
0.08
0.04
0.08
0.08
0.22
0.74
0.53
0.60
0.56
0.54
0.53
0.06
0.06
0.02
0.02
0.01
0.01
0.01
0.00
0.00
0.00
0.01
0.00
0.00
0.00
0.00
0.01
0.00
0.00
0.01
0.01
0.00
0.00
0.00
0.02
0.02
0.06
0.04
0.11
0.08
0.08
0.06
0.01
0.01
0.00
0.00
0.00
0.01
0.08
0.06
0.06
0.08
0.06
0.08
0.06
0.00
0.08
0.20
0.48
0.52
0.52
0.41
0.83
0.95
1.00
0.98
0.96
0.94
0.97
0.98
0.97
0.90
0.70
0.65
0.01
0.22
0.26
0.40
0.47
0.48
0.50
0.50
0.51
0.52
0.51
0.53
0.53
0.53
0.53
0.52
0.53
0.54
0.57
0.58
0.63
0.64
0.58
0.57
0.53
0.52
0.53
0.51
0.48
0.35
0.20
0.08
0.06
0.06
0.02
0.02
0.04
0.01
0.02
0.04
0.11
0.13
0.79
0.02
0.56
0.53
0.62
0.48
0.11
0.01
0.02
0.06
0.00
0.01
0.01
0.01
0.01
0.01
0.02
0.01
0.01
0.01
0.01
0.00
0.01
0.00
0.00
0.00
0.00
0.00
0.00
0.00
0.01
0.01
0.01
0.02
0.04
0.01
0.01
0.01
0.00
0.00
0.00
0.00
0.00
0.00
0.01
0.00
0.00
0.00
0.02
0.00
0.01
0.00
0.01
0.00
0.00
0.01
0.00
0.00
0.00
0.00
0.00
0.00
0.01
0.01
0.00
0.01
0.01
0.00
0.01
0.00
0.01
0.26
0.24
0.15
0.03
0.01
0.04
0.08
0.02
0.02
0.04
0.06
0.08
0.08
0.18
0.01
0.38
0.01
0.52
0.53
0.57
0.53
0.52
0.11
0.11
0.08
0.08
0.06
0.02
0.04
0.06
0.01
0.06
0.02
0.01
0.00
0.01
0.01
0.01
0.02
0.06
0.04
0.08
0.11
0.22
0.22
0.20
0.22
0.32
0.26
0.35
0.26
0.35
0.22
0.18
0.11
0.08
0.08
0.06
0.01
0.02
0.01
0.04
0.01
0.01
0.04
0.06
0.01
0.02
0.01
0.01
0.04
0.02
0.01
0.01
0.01
0.04
0.02
0.02
0.01
0.01
0.01
0.01
0.02
0.06
0.04
0.06
0.04
0.08
0.08
0.04
0.06
0.04
0.01
0.00
0.03
0.06
0.24
0.13
0.13
0.00
0.02
0.08
0.06
0.11
0.11
0.11
0.11
0.18
0.26
0.06
0.08
0.13
0.56
0.56
0.57
0.53
0.53
0.14
0.22
0.20
0.06
0.08
0.11
0.04
0.02
0.02
0.02
0.01
0.01
0.01
0.01
0.01
0.00
0.00
0.01
0.02
0.01
0.04
0.04
0.06
0.08
0.11
0.08
0.11
0.11
0.11
0.08
0.06
0.04
0.02
0.00
0.00
0.00
0.01
0.00
0.00
0.00
0.03
0.00
0.01
0.01
0.01
0.03
0.03
0.03
0.03
0.08
0.01
0.06
0.06
0.01
0.01
0.01
0.01
0.00
0.00
0.00
0.00
0.00
0.00
0.00
0.00
0.00
0.00
0.00
0.00
0.00
0.13
0.13
0.13
0.15
0.48
0.38
0.30
0.18
0.00
0.00
0.01
0.00
0.00
0.01
0.02
0.01
0.08
0.22
0.24
0.76
0.53
0.57
0.56
0.54
0.53
0.04
0.02
0.02
0.00
0.00
0.00
0.00
0.01
0.00
0.01
0.01
0.03
0.01
0.06
0.13
0.08
0.06
0.06
0.03
0.01
0.03
0.00
0.00
0.01
0.01
0.06
0.06
0.06
0.08
0.06
0.04
0.00
0.01
0.00
0.01
0.03
0.06
0.13
0.08
0.06
0.15
0.06
0.08
0.01
0.06
0.08
0.08
0.06
0.06
0.03
0.06
0.03
0.08
0.03
0.03
0.08
0.01
0.03
0.03
0.03
0.03
0.15
0.06
0.06
0.06
0.08
0.08
0.06
0.06
0.06
0.03
0.08
0.15
0.24
0.22
0.26
0.30
0.55
0.45
0.30
0.24
0.00
0.00
0.00
0.00
0.00
0.01
0.00
0.01
0.02
0.22
0.18
0.79
0.53
0.62
0.56
0.56
0.53
0.06
0.04
0.01
0.01
0.00
0.00
0.00
0.00
0.01
0.00
0.01
0.01
0.03
0.03
0.03
0.06
0.06
0.00
0.03
0.03
0.00
0.00
0.00
0.01
0.06
0.02
0.08
0.06
0.08
0.06
0.01
0.01
0.00
0.01
0.06
0.06
0.13
0.03
0.06
0.08
0.01
0.06
0.08
0.06
0.03
0.00
0.03
0.03
0.00
0.03
0.03
0.00
0.01
0.00
0.01
0.00
0.00
0.00
0.01
0.01
0.00
0.00
0.00
0.00
0.00
0.00
0.00
0.00
0.00
0.00
0.01
0.01
0.22
0.03
0.30
0.24
0.48
0.30
0.24
0.01
0.01
0.01
0.01
0.02
0.01
0.02
0.02
0.01
0.01
0.18
0.62
0.08
0.56
0.56
0.58
0.53
0.43
0.01
0.02
0.01
0.00
0.00
0.00
0.01
0.00
0.00
0.01
0.00
0.00
0.00
0.00
0.00
0.00
0.00
0.00
0.01
0.02
0.02
0.06
0.08
0.14
0.20
0.24
0.18
0.24
0.20
0.14
0.11
0.04
0.02
0.01
0.00
0.00
0.00
0.01
0.00
0.01
0.00
0.00
0.00
0.00
0.00
0.01
0.01
0.00
0.01
0.00
0.00
0.01
0.00
0.01
0.00
0.00
0.00
0.01
0.01
0.00
0.01
0.01
0.00
0.01
0.01
0.01
0.01
0.01
0.01
0.01
0.00
0.00
0.06
0.06
0.22
0.18
0.38
0.15
0.08
0.00
0.02
0.02
0.06
0.02
0.04
0.08
0.08
0.08
0.08
0.00
0.48
0.11
0.58
0.57
0.58
0.53
0.51
0.08
0.14
0.08
0.08
0.01
0.02
0.04
0.00
0.01
0.01
0.01
0.01
0.00
0.01
0.00
0.00
0.00
0.00
0.00
0.00
0.02
0.01
0.01
0.04
0.08
0.08
0.11
0.11
0.08
0.06
0.02
0.01
0.01
0.00
0.00
0.00
0.01
0.00
0.00
0.00
0.00
0.01
0.00
0.00
0.00
0.00
0.00
0.00
0.01
0.00
0.00
0.00
0.01
0.01
0.00
0.01
0.00
0.00
0.01
0.00
0.01
0.00
0.00
0.00
0.00
0.01
0.00
0.00
0.00
0.01
0.00
0.00
0.08
0.08
0.22
0.15
0.45
0.30
0.22
0.08
0.01
0.02
0.01
0.02
0.01
0.01
0.06
0.02
0.08
0.15
0.24
0.73
0.54
0.63
0.56
0.52
0.52
0.08
0.04
0.06
0.04
0.01
0.01
0.01
0.01
0.00
0.00
0.01
0.00
0.00
0.00
0.00
0.00
0.00
0.00
0.00
0.00
0.01
0.01
0.04
0.06
0.08
0.11
0.14
0.14
0.18
0.11
0.08
0.02
0.01
0.00
0.00
0.00
0.01
0.03
0.01
0.01
0.00
0.01
0.00
0.01
0.00
0.00
0.03
0.00
0.03
0.01
0.01
0.00
0.03
0.03
0.01
0.03
0.00
0.06
0.00
0.00
0.00
0.00
0.00
0.00
0.00
0.00
0.00
0.00
0.00
0.00
0.00
0.00
0.00
0.08
0.15
0.08
0.18
0.41
0.34
0.22
0.08
0.01
0.02
0.02
0.01
0.01
0.04
0.04
0.02
0.06
0.00
0.13
0.76
0.52
0.60
0.57
0.67
0.52
0.26
0.11
0.14
0.08
0.04
0.06
0.01
0.04
0.01
0.04
0.01
0.01
0.00
0.01
0.00
0.00
0.00
0.00
0.00
0.01
0.01
0.01
0.06
0.08
0.14
0.18
0.22
0.20
0.24
0.11
0.11
0.06
0.04
0.01
0.01
0.00
0.00
0.01
0.00
0.00
0.01
0.01
0.02
0.01
0.01
0.01
0.04
0.04
0.08
0.04
0.02
0.04
0.04
0.02
0.06
0.01
0.02
0.06
0.06
0.04
0.08
0.08
0.08
0.06
0.08
0.08
0.08
0.08
0.08
0.08
0.04
0.06
0.04
0.02
0.02
0.03
0.00
0.13
0.03
0.26
0.15
0.06
0.01
0.08
0.08
0.04
0.01
0.08
0.06
0.04
0.04
0.08
0.03
0.06
0.77
0.53
0.57
0.54
0.56
0.53
0.14
0.11
0.08
0.08
0.06
0.02
0.06
0.02
0.04
0.04
0.01
0.01
0.01
0.01
0.01
0.00
0.01
0.01
0.00
0.01
0.01
0.04
0.08
0.14
0.14
0.22
0.22
0.18
0.20
0.18
0.11
0.06
0.04
0.01
0.00
0.00
0.00
0.00
0.00
0.00
0.00
0.02
0.00
0.00
0.01
0.00
0.01
0.00
0.01
0.00
0.01
0.01
0.01
0.01
0.01
0.01
0.01
0.01
0.02
0.04
0.00
0.02
0.08
0.04
0.02
0.06
0.06
0.01
0.08
0.01
0.04
0.02
0.00
0.00
0.01
0.06
0.26
0.15
0.13
0.00
0.06
0.08
0.08
0.08
0.08
0.08
0.11
0.08
0.18
0.00
0.06
0.71
0.53
0.62
0.56
0.56
0.52
0.14
0.08
0.08
0.06
0.01
0.04
0.02
0.01
0.01
0.01
0.02
0.00
0.00
0.02
0.01
0.00
0.00
0.01
0.01
0.01
0.02
0.04
0.06
0.08
0.18
0.11
0.20
0.18
0.18
0.18
0.08
0.08
0.02
0.00
0.00
0.00
0.00
0.00
0.01
0.03
0.03
0.08
0.06
0.06
0.06
0.03
0.08
0.06
0.06
0.03
0.03
0.03
0.03
0.00
0.03
0.06
0.03
0.01
0.08
0.03
0.01
0.03
0.00
0.08
0.01
0.03
0.03
0.03
0.01
0.00
0.03
0.03
0.06
0.01
0.00
0.08
0.22
0.13
0.26
0.30
0.45
0.13
0.18
0.00
0.01
0.01
0.00
0.01
0.00
0.01
0.00
0.01
0.00
0.26
0.71
0.02
0.56
0.58
0.61
0.53
0.40
0.01
0.02
0.00
0.00
0.00
0.01
0.00
0.00
0.00
0.01
0.00
0.06
0.06
0.00
0.06
0.06
0.06
0.06
0.06
0.03
0.00
0.00
0.00
0.01
0.06
0.06
0.11
0.08
0.08
0.02
0.02
0.00
0.00
0.00
0.03
0.08
0.13
0.06
0.13
0.06
0.08
0.03
0.06
0.06
0.06
0.03
0.08
0.06
0.01
0.06
0.06
0.08
0.08
0.08
0.08
0.03
0.13
0.01
0.01
0.03
0.03
0.01
0.00
0.00
0.01
0.03
0.01
0.03
0.03
0.00
0.03
0.01
0.00
0.03
0.13
0.24
0.13
0.38
0.24
0.55
0.22
0.15
0.03
0.01
0.00
0.00
0.00
0.00
0.01
0.01
0.01
0.01
0.30
0.60
0.50
0.54
0.58
0.57
0.53
0.49
0.01
0.01
0.00
0.00
0.01
0.00
0.01
0.01
0.03
0.03
0.01
0.06
0.01
0.06
0.08
0.01
0.03
0.03
0.00
0.00
0.00
0.00
0.00
0.06
0.04
0.11
0.11
0.14
0.14
0.08
0.04
0.02
0.00
0.00
0.00
0.03
0.03
0.06
0.06
0.13
0.08
0.13
0.06
0.08
0.06
0.13
0.08
0.13
0.13
0.06
0.06
0.03
0.03
0.06
0.06
0.08
0.03
0.03
0.06
0.01
0.03
0.06
0.03
0.03
0.01
0.03
0.01
0.01
0.01
0.00
0.00
0.00
0.00
0.00
0.06
0.15
0.03
0.22
0.24
0.43
0.24
0.18
0.01
0.04
0.02
0.01
0.01
0.01
0.01
0.02
0.04
0.08
0.13
0.18
0.71
0.53
0.57
0.56
0.52
0.53
0.08
0.08
0.04
0.06
0.01
0.01
0.01
0.01
0.01
0.00
0.00
0.00
0.01
0.01
0.00
0.00
0.01
0.01
0.01
0.02
0.08
0.08
0.11
0.14
0.20
0.20
0.24
0.24
0.24
0.24
0.20
0.11
0.08
0.06
0.00
0.01
0.00
0.00
0.00
0.00
0.00
0.00
0.00
0.01
0.00
0.00
0.00
0.00
0.00
0.00
0.00
0.01
0.00
0.01
0.00
0.00
0.01
0.00
0.00
0.00
0.00
0.01
0.00
0.00
0.00
0.01
0.00
0.00
0.00
0.00
0.00
0.00
0.00
0.00
0.13
0.08
0.15
0.06
0.34
0.38
0.13
0.13
0.04
0.04
0.08
0.01
0.04
0.06
0.08
0.11
0.08
0.00
0.03
0.71
0.53
0.58
0.56
0.56
0.52
0.22
0.08
0.02
0.04
0.01
0.00
0.00
0.00
0.00
0.00
0.00
0.00
0.00
0.00
0.00
0.00
0.00
0.00
0.00
0.00
0.00
0.01
0.06
0.04
0.11
0.14
0.08
0.14
0.14
0.08
0.11
0.04
0.02
0.00
0.00
0.00
0.00
0.00
0.00
0.00
0.01
0.00
0.00
0.00
0.03
0.00
0.00
0.00
0.00
0.00
0.00
0.00
0.00
0.00
0.00
0.00
0.00
0.00
0.01
0.01
0.00
0.00
0.00
0.00
0.00
0.00
0.00
0.00
0.01
0.00
0.00
0.00
0.01
0.06
0.22
0.06
0.26
0.22
0.43
0.15
0.18
0.00
0.08
0.01
0.01
0.01
0.01
0.02
0.04
0.02
0.06
0.18
0.55
0.60
0.54
0.64
0.57
0.52
0.52
0.06
0.06
0.04
0.01
0.01
0.00
0.00
0.00
0.00
0.00
0.00
0.00
0.00
0.03
0.06
0.03
0.03
0.01
0.01
0.00
0.01
0.00
0.00
0.04
0.04
0.06
0.08
0.08
0.08
0.08
0.08
0.04
0.01
0.00
0.00
0.01
0.01
0.01
0.06
0.03
0.06
0.08
0.08
0.03
0.06
0.06
0.08
0.08
0.08
0.03
0.03
0.03
0.06
0.03
0.06
0.06
0.03
0.06
0.01
0.03
0.01
0.06
0.01
0.03
0.01
0.06
0.01
0.01
0.00
0.03
0.01
0.01
0.01
0.01
0.03
0.13
0.26
0.08
0.34
0.24
0.55
0.18
0.22
0.01
0.02
0.01
0.02
0.00
0.01
0.01
0.00
0.01
0.04
0.24
0.52
0.60
0.54
0.62
0.57
0.52
0.52
0.06
0.06
0.06
0.01
0.00
0.00
0.00
0.01
0.00
0.01
0.00
0.00
0.00
0.00
0.00
0.00
0.00
0.00
0.00
0.01
0.00
0.02
0.06
0.08
0.11
0.20
0.22
0.20
0.18
0.18
0.14
0.06
0.04
0.01
0.00
0.00
0.00
0.00
0.01
0.00
0.00
0.03
0.01
0.00
0.01
0.01
0.03
0.01
0.01
0.03
0.08
0.01
0.08
0.03
0.03
0.08
0.03
0.01
0.03
0.00
0.01
0.03
0.03
0.01
0.00
0.00
0.01
0.06
0.01
0.00
0.01
0.01
0.01
0.01
0.03
0.00
0.06
0.08
0.22
0.06
0.24
0.13
0.45
0.22
0.15
0.00
0.04
0.02
0.06
0.01
0.01
0.02
0.01
0.06
0.08
0.03
0.41
0.13
0.54
0.57
0.60
0.53
0.50
0.18
0.18
0.18
0.18
0.08
0.08
0.02
0.04
0.01
0.06
0.06
0.02
0.02
0.00
0.01
0.02
0.01
0.06
0.06
0.08
0.11
0.18
0.22
0.24
0.35
0.38
0.40
0.40
0.35
0.35
0.32
0.26
0.18
0.08
0.14
0.11
0.11
0.06
0.11
0.08
0.04
0.11
0.06
0.08
0.04
0.06
0.04
0.04
0.08
0.08
0.01
0.02
0.04
0.02
0.04
0.04
0.01
0.02
0.02
0.06
0.01
0.01
0.02
0.04
0.02
0.06
0.02
0.04
0.04
0.06
0.02
0.01
0.00
0.00
0.06
0.03
0.34
0.24
0.13
0.03
0.04
0.06
0.08
0.08
0.04
0.14
0.08
0.14
0.22
0.00
0.15
0.55
0.56
0.58
0.57
0.52
0.53
0.14
0.18
0.06
0.08
0.02
0.01
0.02
0.01
0.01
0.01
0.01
0.01
0.00
0.00
0.00
0.00
0.01
0.00
0.00
0.02
0.00
0.01
0.04
0.06
0.11
0.08
0.14
0.14
0.14
0.08
0.08
0.04
0.01
0.02
0.00
0.01
0.00
0.00
0.00
0.00
0.00
0.00
0.00
0.00
0.00
0.00
0.00
0.00
0.01
0.00
0.01
0.01
0.01
0.01
0.02
0.01
0.01
0.01
0.02
0.04
0.01
0.04
0.06
0.04
0.01
0.06
0.02
0.06
0.01
0.04
0.02
0.02
0.01
0.00
0.08
0.13
0.08
0.15
0.26
0.34
0.13
0.06
0.04
0.08
0.02
0.04
0.04
0.01
0.08
0.04
0.06
0.00
0.13
0.75
0.50
0.58
0.57
0.64
0.53
0.24
0.02
0.04
0.00
0.01
0.00
0.00
0.00
0.01
0.00
0.03
0.00
0.00
0.01
0.08
0.06
0.06
0.01
0.01
0.03
0.01
0.00
0.00
0.01
0.02
0.06
0.08
0.08
0.11
0.11
0.08
0.06
0.01
0.01
0.00
0.00
0.01
0.03
0.01
0.00
0.01
0.03
0.01
0.00
0.01
0.00
0.00
0.03
0.00
0.00
0.00
0.00
0.00
0.00
0.00
0.00
0.00
0.01
0.01
0.01
0.00
0.01
0.03
0.03
0.01
0.03
0.03
0.01
0.01
0.03
0.01
0.01
0.06
0.08
0.22
0.22
0.34
0.22
0.52
0.41
0.26
0.08
0.00
0.00
0.01
0.01
0.00
0.00
0.01
0.00
0.01
0.26
0.18
0.80
0.53
0.58
0.54
0.56
0.53
0.01
0.00
0.01
0.00
0.00
0.01
0.01
0.03
0.03
0.01
0.08
0.06
0.06
0.06
0.06
0.08
0.06
0.01
0.01
0.00
0.00
0.01
0.01
0.08
0.08
0.14
0.18
0.22
0.20
0.18
0.11
0.08
0.01
0.00
0.00
0.03
0.06
0.03
0.03
0.01
0.06
0.03
0.01
0.06
0.00
0.03
0.03
0.01
0.00
0.00
0.01
0.00
0.00
0.00
0.00
0.00
0.00
0.00
0.00
0.00
0.00
0.00
0.00
0.00
0.01
0.01
0.00
0.00
0.01
0.00
0.00
0.00
0.00
0.00
0.08
0.13
0.01
0.18
0.15
0.48
0.15
0.08
0.00
0.06
0.02
0.08
0.01
0.02
0.04
0.06
0.08
0.08
0.01
0.65
0.38
0.56
0.56
0.57
0.52
0.38
0.18
0.08
0.06
0.06
0.01
0.01
0.01
0.00
0.00
0.01
0.00
0.00
0.00
0.01
0.00
0.00
0.00
0.00
0.00
0.01
0.01
0.08
0.04
0.08
0.11
0.14
0.18
0.20
0.11
0.11
0.08
0.01
0.00
0.00
0.00
0.03
0.00
0.00
0.08
0.03
0.01
0.01
0.01
0.01
0.03
0.01
0.03
0.08
0.00
0.00
0.00
0.00
0.00
0.00
0.00
0.00
0.00
0.00
0.01
0.00
0.00
0.00
0.00
0.01
0.01
0.01
0.00
0.00
0.01
0.01
0.00
0.00
0.06
0.01
0.22
0.06
0.38
0.22
0.15
0.01
0.04
0.06
0.08
0.06
0.08
0.08
0.06
0.11
0.20
0.03
0.24
0.69
0.53
0.58
0.56
0.52
0.53
0.04
0.04
0.02
0.02
0.00
0.00
0.00
0.00
0.00
0.00
0.00
0.00
0.00
0.00
0.00
0.01
0.00
0.00
0.00
0.00
0.00
0.00
0.01
0.01
0.04
0.04
0.08
0.11
0.06
0.06
0.02
0.01
0.00
0.00
0.00
0.03
0.06
0.06
0.03
0.08
0.03
0.06
0.03
0.03
0.00
0.08
0.03
0.03
0.03
0.03
0.03
0.00
0.06
0.00
0.01
0.00
0.01
0.00
0.01
0.01
0.03
0.00
0.01
0.00
0.00
0.00
0.03
0.01
0.00
0.01
0.00
0.03
0.00
0.03
0.06
0.15
0.18
0.24
0.22
0.38
0.38
0.18
0.15
0.01
0.01
0.01
0.00
0.01
0.01
0.01
0.01
0.02
0.18
0.08
0.79
0.53
0.62
0.56
0.57
0.53
0.08
0.01
0.02
0.01
0.00
0.01
0.01
0.01
0.01
0.00
0.00
0.01
0.03
0.06
0.01
0.06
0.08
0.03
0.03
0.06
0.03
0.00
0.01
0.01
0.08
0.08
0.11
0.11
0.18
0.14
0.08
0.08
0.04
0.01
0.00
0.00
0.00
0.01
0.00
0.06
0.00
0.00
0.00
0.01
0.01
0.00
0.03
0.00
0.00
0.00
0.01
0.00
0.01
0.00
0.00
0.00
0.00
0.00
0.00
0.00
0.00
0.00
0.01
0.00
0.00
0.01
0.00
0.00
0.01
0.00
0.00
0.00
0.00
0.00
0.00
0.00
0.13
0.01
0.18
0.08
0.45
0.08
0.08
0.00
0.11
0.06
0.08
0.02
0.06
0.04
0.08
0.06
0.11
0.08
0.41
0.50
0.56
0.62
0.57
0.52
0.51
0.06
0.08
0.06
0.02
0.01
0.00
0.01
0.00
0.00
0.00
0.01
0.00
0.01
0.00
0.00
0.00
0.00
0.00
0.01
0.04
0.01
0.08
0.06
0.11
0.18
0.26
0.24
0.26
0.22
0.18
0.11
0.08
0.04
0.01
0.00
0.00
0.00
0.00
0.00
0.00
0.00
0.00
0.00
0.00
0.00
0.00
0.00
0.00
0.00
0.00
0.00
0.00
0.00
0.00
0.00
0.01
0.00
0.00
0.01
0.01
0.01
0.02
0.01
0.01
0.01
0.00
0.01
0.01
0.02
0.00
0.02
0.01
0.01
0.01
0.01
0.01
0.00
0.15
0.00
0.34
0.08
0.06
0.00
0.06
0.06
0.08
0.08
0.06
0.08
0.08
0.08
0.22
0.00
0.06
0.68
0.52
0.57
0.56
0.52
0.53
0.20
0.11
0.14
0.08
0.04
0.06
0.02
0.04
0.01
0.01
0.06
0.01
0.01
0.01
0.00
0.00
0.00
0.00
0.00
0.00
0.01
0.01
0.04
0.01
0.08
0.08
0.08
0.08
0.06
0.08
0.02
0.04
0.02
0.00
0.00
0.00
0.00
0.00
0.00
0.00
0.00
0.00
0.00
0.00
0.00
0.00
0.00
0.00
0.00
0.00
0.00
0.00
0.00
0.01
0.00
0.01
0.00
0.00
0.00
0.00
0.00
0.01
0.00
0.01
0.00
0.01
0.01
0.00
0.00
0.00
0.00
0.00
0.08
0.01
0.18
0.18
0.38
0.26
0.22
0.08
0.01
0.01
0.01
0.02
0.01
0.02
0.04
0.01
0.08
0.08
0.22
0.73
0.53
0.57
0.56
0.52
0.53
0.08
0.08
0.02
0.01
0.00
0.01
0.00
0.00
0.00
0.00
0.00
0.00
0.01
0.00
0.00
0.03
0.03
0.03
0.03
0.01
0.00
0.00
0.01
0.01
0.04
0.06
0.08
0.08
0.08
0.06
0.06
0.08
0.00
0.00
0.00
0.00
0.00
0.00
0.01
0.00
0.00
0.00
0.00
0.00
0.00
0.00
0.01
0.00
0.01
0.01
0.00
0.00
0.01
0.01
0.00
0.00
0.01
0.00
0.01
0.00
0.00
0.00
0.00
0.01
0.00
0.00
0.00
0.01
0.00
0.00
0.00
0.00
0.00
0.00
0.06
0.06
0.08
0.15
0.38
0.34
0.06
0.03
0.04
0.06
0.06
0.01
0.04
0.04
0.02
0.04
0.04
0.03
0.08
0.79
0.53
0.60
0.56
0.63
0.53
0.18
0.06
0.06
0.01
0.01
0.01
0.00
0.00
0.00
0.00
0.00
0.00
0.00
0.00
0.00
0.00
0.01
0.00
0.01
0.00
0.00
0.00
0.01
0.02
0.06
0.08
0.18
0.18
0.18
0.14
0.11
0.08
0.02
0.01
0.00
0.00
0.01
0.01
0.01
0.01
0.01
0.01
0.06
0.01
0.03
0.03
0.00
0.03
0.01
0.01
0.00
0.01
0.01
0.01
0.00
0.00
0.00
0.00
0.00
0.00
0.00
0.00
0.00
0.00
0.00
0.01
0.00
0.01
0.01
0.00
0.00
0.01
0.00
0.00
0.03
0.00
0.13
0.03
0.26
0.08
0.06
0.02
0.08
0.04
0.08
0.04
0.06
0.04
0.02
0.06
0.08
0.15
0.45
0.52
0.54
0.63
0.57
0.52
0.51
0.08
0.08
0.08
0.04
0.01
0.02
0.01
0.04
0.04
0.01
0.01
0.02
0.01
0.01
0.04
0.02
0.01
0.04
0.06
0.06
0.08
0.14
0.20
0.22
0.32
0.32
0.35
0.32
0.35
0.26
0.22
0.14
0.11
0.02
0.02
0.01
0.01
0.00
0.00
0.00
0.00
0.00
0.00
0.00
0.00
0.00
0.00
0.00
0.00
0.00
0.00
0.00
0.00
0.00
0.00
0.00
0.01
0.00
0.00
0.00
0.00
0.00
0.01
0.01
0.01
0.01
0.04
0.01
0.02
0.00
0.02
0.01
0.02
0.00
0.00
0.03
0.06
0.13
0.26
0.08
0.03
0.01
0.08
0.06
0.08
0.06
0.14
0.14
0.08
0.11
0.06
0.01
0.58
0.35
0.56
0.56
0.57
0.52
0.52
0.08
0.11
0.08
0.06
0.01
0.02
0.04
0.06
0.02
0.02
0.04
0.01
0.01
0.01
0.02
0.01
0.01
0.01
0.01
0.01
0.01
0.02
0.08
0.04
0.06
0.08
0.06
0.08
0.04
0.06
0.02
0.01
0.00
0.00
0.00
0.03
0.00
0.01
0.01
0.00
0.01
0.01
0.00
0.03
0.00
0.00
0.01
0.00
0.00
0.01
0.01
0.00
0.00
0.00
0.01
0.03
0.00
0.03
0.00
0.01
0.01
0.01
0.01
0.00
0.00
0.00
0.03
0.00
0.01
0.03
0.08
0.24
0.13
0.26
0.38
0.38
0.26
0.22
0.03
0.01
0.01
0.01
0.01
0.01
0.01
0.04
0.04
0.04
0.08
0.64
0.04
0.56
0.57
0.58
0.53
0.39
0.04
0.01
0.01
0.01
0.00
0.00
0.00
0.01
0.00
0.00
0.00
0.00
0.03
0.01
0.06
0.03
0.03
0.03
0.03
0.06
0.01
0.00
0.00
0.01
0.06
0.04
0.08
0.08
0.08
0.02
0.01
0.00
0.01
0.01
0.03
0.13
0.08
0.13
0.15
0.13
0.15
0.13
0.13
0.15
0.18
0.06
0.18
0.15
0.13
0.13
0.13
0.13
0.08
0.08
0.08
0.08
0.15
0.13
0.13
0.06
0.08
0.08
0.01
0.01
0.13
0.08
0.13
0.06
0.08
0.03
0.13
0.06
0.18
0.26
0.22
0.34
0.30
0.50
0.26
0.22
0.01
0.01
0.01
0.00
0.00
0.00
0.00
0.00
0.00
0.00
0.30
0.68
0.08
0.56
0.57
0.61
0.53
0.35
0.01
0.01
0.01
0.00
0.00
0.01
0.01
0.01
0.00
0.01
0.06
0.03
0.06
0.08
0.06
0.06
0.01
0.08
0.08
0.03
0.00
0.00
0.01
0.04
0.08
0.14
0.14
0.14
0.08
0.08
0.06
0.02
0.01
0.01
0.00
0.01
0.00
0.03
0.06
0.01
0.01
0.00
0.00
0.00
0.01
0.01
0.00
0.01
0.00
0.00
0.00
0.00
0.00
0.00
0.00
0.00
0.00
0.00
0.00
0.00
0.00
0.00
0.00
0.00
0.00
0.00
0.00
0.00
0.00
0.00
0.00
0.00
0.00
0.00
0.01
0.15
0.06
0.26
0.13
0.43
0.22
0.13
0.01
0.06
0.02
0.04
0.00
0.01
0.01
0.02
0.01
0.11
0.13
0.03
0.76
0.53
0.58
0.56
0.56
0.53
0.06
0.06
0.08
0.06
0.01
0.01
0.01
0.00
0.00
0.02
0.00
0.00
0.00
0.00
0.00
0.00
0.00
0.00
0.01
0.01
0.02
0.04
0.06
0.11
0.18
0.20
0.20
0.26
0.20
0.18
0.11
0.06
0.01
0.00
0.00
0.00
0.01
0.06
0.00
0.03
0.01
0.00
0.01
0.00
0.03
0.00
0.00
0.00
0.00
0.00
0.00
0.00
0.00
0.00
0.00
0.00
0.00
0.00
0.00
0.00
0.00
0.00
0.00
0.01
0.00
0.01
0.00
0.00
0.01
0.00
0.00
0.00
0.06
0.00
0.15
0.08
0.34
0.24
0.15
0.00
0.06
0.06
0.06
0.04
0.11
0.14
0.11
0.18
0.22
0.00
0.26
0.43
0.56
0.57
0.57
0.52
0.52
0.14
0.18
0.08
0.08
0.08
0.04
0.06
0.06
0.06
0.02
0.06
0.02
0.01
0.01
0.02
0.00
0.02
0.04
0.04
0.02
0.08
0.08
0.14
0.18
0.18
0.18
0.22
0.22
0.22
0.18
0.18
0.08
0.06
0.06
0.04
0.01
0.01
0.04
0.00
0.00
0.01
0.01
0.01
0.01
0.02
0.01
0.01
0.00
0.01
0.01
0.01
0.01
0.01
0.01
0.02
0.01
0.01
0.01
0.01
0.01
0.01
0.01
0.00
0.01
0.01
0.01
0.00
0.01
0.01
0.01
0.00
0.06
0.00
0.18
0.22
0.24
0.22
0.06
0.00
0.04
0.06
0.04
0.08
0.06
0.11
0.06
0.14
0.08
0.00
0.62
0.08
0.56
0.57
0.63
0.52
0.48
0.11
0.06
0.04
0.06
0.01
0.02
0.01
0.02
0.00
0.01
0.00
0.00
0.00
0.00
0.00
0.01
0.00
0.03
0.00
0.01
0.00
0.00
0.00
0.01
0.02
0.04
0.04
0.04
0.04
0.04
0.02
0.01
0.00
0.00
0.03
0.01
0.08
0.03
0.01
0.01
0.08
0.00
0.01
0.03
0.01
0.01
0.01
0.01
0.00
0.01
0.00
0.00
0.00
0.00
0.00
0.00
0.00
0.00
0.00
0.00
0.01
0.00
0.01
0.01
0.00
0.00
0.01
0.00
0.00
0.01
0.00
0.00
0.00
0.00
0.03
0.22
0.06
0.24
0.08
0.52
0.18
0.15
0.01
0.06
0.01
0.01
0.01
0.01
0.02
0.00
0.01
0.04
0.24
0.48
0.69
0.54
0.62
0.57
0.52
0.52
0.01
0.01
0.00
0.01
0.00
0.00
0.00
0.00
0.00
0.00
0.00
0.00
0.01
0.00
0.00
0.01
0.01
0.03
0.00
0.00
0.00
0.01
0.02
0.04
0.08
0.14
0.11
0.20
0.14
0.14
0.08
0.06
0.01
0.00
0.00
0.01
0.03
0.01
0.01
0.03
0.01
0.00
0.00
0.06
0.00
0.00
0.00
0.01
0.00
0.00
0.00
0.01
0.00
0.00
0.01
0.00
0.00
0.00
0.00
0.00
0.00
0.00
0.00
0.00
0.00
0.00
0.01
0.00
0.01
0.01
0.01
0.01
0.00
0.03
0.03
0.13
0.03
0.38
0.22
0.06
0.00
0.06
0.08
0.04
0.02
0.06
0.02
0.08
0.04
0.11
0.03
0.03
0.77
0.52
0.62
0.56
0.57
0.53
0.11
0.11
0.08
0.06
0.02
0.02
0.02
0.01
0.01
0.01
0.00
0.00
0.01
0.01
0.00
0.00
0.01
0.01
0.01
0.04
0.01
0.06
0.06
0.11
0.11
0.18
0.18
0.18
0.18
0.18
0.11
0.04
0.04
0.00
0.00
0.03
0.03
0.01
0.01
0.06
0.00
0.06
0.01
0.01
0.00
0.01
0.00
0.00
0.00
0.00
0.01
0.00
0.00
0.01
0.00
0.00
0.00
0.00
0.01
0.00
0.01
0.00
0.02
0.01
0.01
0.01
0.01
0.01
0.00
0.00
0.00
0.00
0.06
0.01
0.18
0.06
0.30
0.26
0.06
0.06
0.02
0.06
0.08
0.02
0.08
0.08
0.08
0.06
0.22
0.00
0.13
0.69
0.54
0.58
0.56
0.52
0.53
0.08
0.11
0.08
0.06
0.02
0.04
0.06
0.04
0.01
0.02
0.08
0.02
0.01
0.04
0.01
0.01
0.02
0.00
0.01
0.01
0.02
0.02
0.02
0.02
0.08
0.06
0.08
0.08
0.08
0.08
0.02
0.06
0.02
0.01
0.00
0.00
0.00
0.00
0.00
0.00
0.00
0.00
0.00
0.01
0.00
0.00
0.00
0.00
0.00
0.00
0.00
0.00
0.00
0.00
0.00
0.00
0.00
0.00
0.00
0.00
0.00
0.00
0.00
0.01
0.00
0.01
0.00
0.01
0.00
0.02
0.00
0.13
0.01
0.15
0.18
0.34
0.18
0.22
0.00
0.04
0.02
0.02
0.02
0.02
0.08
0.06
0.08
0.18
0.06
0.43
0.38
0.56
0.58
0.61
0.53
0.51
0.02
0.06
0.02
0.02
0.01
0.00
0.00
0.00
0.00
0.00
0.00
0.00
0.00
0.00
0.00
0.00
0.01
0.00
0.01
0.00
0.00
0.01
0.01
0.04
0.04
0.11
0.08
0.14
0.11
0.14
0.08
0.04
0.06
0.01
0.00
0.00
0.00
0.00
0.00
0.00
0.00
0.03
0.01
0.03
0.01
0.03
0.01
0.01
0.03
0.01
0.06
0.01
0.06
0.01
0.06
0.01
0.01
0.00
0.03
0.00
0.00
0.00
0.00
0.00
0.00
0.00
0.00
0.00
0.00
0.00
0.00
0.00
0.00
0.00
0.00
0.03
0.06
0.08
0.08
0.30
0.30
0.00
0.03
0.02
0.08
0.04
0.01
0.04
0.06
0.06
0.06
0.06
0.08
0.06
0.79
0.53
0.64
0.56
0.57
0.53
0.08
0.02
0.08
0.02
0.01
0.00
0.00
0.00
0.00
0.00
0.01
0.00
0.00
0.03
0.01
0.01
0.06
0.01
0.03
0.00
0.00
0.00
0.01
0.01
0.06
0.06
0.14
0.14
0.11
0.14
0.08
0.04
0.01
0.00
0.00
0.01
0.01
0.03
0.03
0.01
0.01
0.01
0.03
0.00
0.00
0.00
0.00
0.00
0.00
0.01
0.00
0.01
0.01
0.01
0.01
0.01
0.01
0.03
0.01
0.00
0.00
0.00
0.01
0.00
0.00
0.00
0.00
0.00
0.00
0.00
0.00
0.00
0.01
0.01
0.13
0.18
0.13
0.30
0.24
0.52
0.22
0.22
0.00
0.02
0.01
0.01
0.00
0.00
0.02
0.00
0.01
0.02
0.22
0.63
0.08
0.54
0.57
0.57
0.53
0.47
0.01
0.01
0.01
0.01
0.00
0.00
0.00
0.00
0.00
0.00
0.00
0.00
0.00
0.00
0.01
0.00
0.00
0.01
0.02
0.02
0.06
0.06
0.14
0.20
0.20
0.22
0.24
0.24
0.14
0.11
0.04
0.02
0.00
0.00
0.00
0.01
0.13
0.03
0.08
0.08
0.08
0.06
0.06
0.06
0.06
0.13
0.01
0.03
0.06
0.08
0.03
0.00
0.03
0.01
0.01
0.06
0.00
0.01
0.26
0.00
0.63
0.83
1.00
1.00
1.00
1.00
0.98
0.96
0.94
0.98
0.98
0.98
0.94
0.71
0.04
0.39
0.48
0.52
0.50
0.52
0.53
0.53
0.52
0.56
0.58
0.60
0.67
0.77
0.81
0.85
0.87
0.88
0.88
0.89
0.89
0.89
0.88
0.88
0.85
0.78
0.61
0.54
0.53
0.52
0.48
0.35
0.20
0.14
0.11
0.14
0.11
0.11
0.08
0.08
0.08
0.06
0.08
0.11
0.06
0.06
0.04
0.08
0.06
0.04
0.06
0.02
0.06
0.04
0.04
0.06
0.02
0.04
0.06
0.04
0.02
0.02
0.06
0.04
0.01
0.02
0.01
0.01
0.01
0.02
0.01
0.02
0.02
0.01
0.02
0.01
0.01
0.01
0.01
0.01
0.02
0.01
0.01
0.01
0.01
0.02
0.01
0.00
0.01
0.01
0.00
0.02
0.00
0.01
0.01
0.01
0.01
0.01
0.00
0.00
0.08
0.03
0.43
0.18
0.22
0.06
0.06
0.04
0.04
0.04
0.06
0.08
0.08
0.11
0.22
0.01
0.06
0.73
0.52
0.57
0.56
0.53
0.53
0.14
0.14
0.08
0.02
0.01
0.01
0.00
0.00
0.00
0.00
0.00
0.00
0.06
0.01
0.06
0.03
0.06
0.01
0.08
0.03
0.08
0.06
0.03
0.01
0.00
0.00
0.00
0.00
0.01
0.02
0.08
0.08
0.08
0.01
0.01
0.01
0.00
0.01
0.01
0.01
0.01
0.01
0.01
0.03
0.01
0.00
0.03
0.00
0.00
0.03
0.01
0.00
0.06
0.04
0.20
0.00
0.24
0.24
0.32
0.11
0.00
0.68
0.86
0.90
0.86
0.95
0.97
0.98
0.96
0.78
0.48
0.26
0.08
0.11
0.04
0.24
0.01
0.22
0.22
0.39
0.50
0.52
0.52
0.51
0.53
0.53
0.52
0.52
0.52
0.54
0.56
0.56
0.56
0.54
0.53
0.53
0.52
0.51
0.48
0.32
0.18
0.08
0.00
0.01
0.00
0.00
0.00
0.00
0.00
0.01
0.01
0.01
0.00
0.06
0.08
0.03
0.03
0.03
0.00
0.03
0.01
0.03
0.01
0.06
0.01
0.00
0.01
0.03
0.03
0.01
0.06
0.01
0.01
0.00
0.01
0.03
0.01
0.06
0.01
0.06
0.01
0.01
0.00
0.01
0.00
0.01
0.00
0.00
0.01
0.01
0.00
0.00
0.00
0.00
0.00
0.00
0.00
0.00
0.00
0.00
0.00
0.00
0.00
0.00
0.00
0.00
0.00
0.00
0.00
0.03
0.00
0.15
0.22
0.38
0.15
0.06
0.01
0.06
0.06
0.08
0.06
0.08
0.11
0.11
0.18
0.08
0.04
0.74
0.50
0.56
0.52
0.61
0.53
0.47
0.20
0.22
0.08
0.06
0.08
0.06
0.01
0.02
0.01
0.00
0.01
0.01
0.01
0.01
0.01
0.00
0.01
0.01
0.02
0.02
0.01
0.04
0.08
0.06
0.04
0.06
0.08
0.04
0.11
0.18
0.18
0.14
0.20
0.08
0.08
0.08
0.01
0.01
0.01
0.00
0.01
0.00
0.00
0.00
0.02
0.00
0.00
0.01
0.01
0.01
0.00
0.00
0.01
0.01
0.00
0.01
0.01
0.01
0.02
0.02
0.01
0.08
0.02
0.08
0.08
0.08
0.04
0.01
0.04
0.01
0.06
0.01
0.00
0.08
0.26
0.35
0.43
0.47
0.47
0.50
0.50
0.50
0.51
0.48
0.40
0.26
0.54
0.75
0.64
0.63
0.57
0.53
0.51
0.52
0.52
0.50
0.49
0.48
0.47
0.47
0.47
0.43
0.40
0.35
0.35
0.26
0.26
0.18
0.20
0.20
0.14
0.14
0.14
0.18
0.20
0.24
0.20
0.20
0.20
0.18
0.11
0.08
0.08
0.01
0.01
0.00
0.00
0.00
0.00
0.03
0.03
0.03
0.08
0.06
0.06
0.08
0.06
0.08
0.08
0.06
0.03
0.03
0.01
0.08
0.01
0.03
0.03
0.01
0.00
0.03
0.06
0.08
0.06
0.06
0.06
0.03
0.08
0.15
0.22
0.24
0.22
0.52
0.38
0.30
0.18
0.00
0.00
0.00
0.00
0.00
0.01
0.01
0.01
0.08
0.18
0.24
0.80
0.53
0.60
0.56
0.56
0.53
0.01
0.01
0.00
0.00
0.03
0.00
0.03
0.01
0.06
0.13
0.06
0.13
0.08
0.15
0.13
0.15
0.22
0.18
0.15
0.13
0.13
0.08
0.00
0.01
0.00
0.00
0.01
0.00
0.01
0.01
0.00
0.00
0.00
0.13
0.13
0.13
0.15
0.15
0.15
0.08
0.15
0.15
0.18
0.06
0.15
0.08
0.08
0.13
0.13
0.15
0.15
0.22
0.13
0.13
0.15
0.18
0.18
0.15
0.18
0.18
0.15
0.18
0.18
0.13
0.22
0.08
0.18
0.06
0.13
0.08
0.26
0.26
0.26
0.38
0.50
0.48
0.26
0.18
0.00
0.01
0.00
0.00
0.00
0.00
0.01
0.00
0.00
0.15
0.26
0.81
0.53
0.61
0.56
0.58
0.53
0.04
0.00
0.01
0.00
0.01
0.06
0.01
0.01
0.06
0.01
0.06
0.06
0.06
0.06
0.06
0.06
0.06
0.03
0.08
0.01
0.01
0.00
0.00
0.00
0.01
0.04
0.06
0.08
0.08
0.06
0.04
0.00
0.00
0.00
0.01
0.03
0.08
0.06
0.08
0.13
0.13
0.06
0.13
0.03
0.08
0.00
0.08
0.01
0.01
0.01
0.06
0.01
0.06
0.03
0.08
0.03
0.08
0.01
0.03
0.03
0.00
0.03
0.00
0.00
0.00
0.01
0.00
0.01
0.00
0.00
0.03
0.00
0.01
0.22
0.15
0.22
0.15
0.45
0.30
0.13
0.06
0.01
0.01
0.01
0.00
0.00
0.06
0.00
0.02
0.02
0.24
0.24
0.77
0.52
0.60
0.56
0.53
0.53
0.01
0.02
0.01
0.02
0.01
0.00
0.01
0.00
0.00
0.00
0.00
0.01
0.00
0.01
0.00
0.00
0.00
0.00
0.01
0.00
0.01
0.02
0.08
0.06
0.11
0.08
0.18
0.11
0.11
0.08
0.04
0.04
0.04
0.00
0.00
0.00
0.00
0.01
0.00
0.01
0.01
0.00
0.01
0.00
0.01
0.00
0.06
0.00
0.00
0.00
0.01
0.03
0.03
0.00
0.00
0.00
0.00
0.00
0.00
0.00
0.00
0.00
0.02
0.01
0.02
0.01
0.00
0.02
0.00
0.01
0.00
0.08
0.15
0.30
0.18
0.13
0.01
0.08
0.04
0.08
0.08
0.08
0.11
0.08
0.18
0.20
0.00
0.43
0.24
0.58
0.60
0.60
0.53
0.51
0.06
0.11
0.04
0.01
0.02
0.02
0.01
0.02
0.01
0.01
0.00
0.01
0.01
0.00
0.00
0.00
0.00
0.00
0.00
0.00
0.00
0.00
0.01
0.01
0.02
0.06
0.08
0.06
0.08
0.04
0.01
0.01
0.00
0.00
0.00
0.00
0.00
0.03
0.00
0.01
0.01
0.01
0.00
0.00
0.00
0.00
0.00
0.00
0.00
0.00
0.00
0.00
0.01
0.00
0.00
0.00
0.00
0.00
0.01
0.00
0.01
0.00
0.00
0.01
0.02
0.01
0.01
0.00
0.00
0.01
0.01
0.08
0.01
0.15
0.13
0.34
0.18
0.15
0.01
0.06
0.02
0.04
0.02
0.01
0.06
0.02
0.06
0.08
0.24
0.55
0.63
0.56
0.75
0.58
0.54
0.52
0.04
0.04
0.04
0.01
0.01
0.00
0.00
0.00
0.00
0.00
0.00
0.00
0.00
0.00
0.03
0.03
0.03
0.03
0.00
0.01
0.00
0.00
0.01
0.01
0.06
0.11
0.11
0.08
0.11
0.08
0.06
0.06
0.01
0.00
0.00
0.00
0.00
0.00
0.00
0.00
0.01
0.00
0.00
0.00
0.00
0.00
0.00
0.00
0.00
0.00
0.00
0.00
0.00
0.00
0.00
0.00
0.00
0.00
0.00
0.00
0.00
0.00
0.01
0.01
0.01
0.01
0.00
0.00
0.00
0.01
0.00
0.01
0.00
0.01
0.13
0.03
0.24
0.13
0.45
0.15
0.15
0.00
0.08
0.01
0.01
0.01
0.00
0.01
0.02
0.01
0.01
0.24
0.66
0.06
0.56
0.63
0.63
0.53
0.43
0.02
0.01
0.02
0.00
0.00
0.01
0.00
0.01
0.00
0.01
0.00
0.01
0.06
0.01
0.03
0.03
0.01
0.00
0.01
0.00
0.01
0.00
0.02
0.08
0.06
0.08
0.20
0.14
0.18
0.08
0.06
0.04
0.01
0.00
0.00
0.03
0.00
0.01
0.00
0.01
0.00
0.01
0.01
0.00
0.00
0.00
0.00
0.00
0.00
0.00
0.00
0.01
0.00
0.00
0.00
0.00
0.00
0.00
0.01
0.01
0.01
0.01
0.00
0.00
0.01
0.00
0.00
0.01
0.01
0.01
0.00
0.00
0.00
0.08
0.00
0.03
0.06
0.41
0.06
0.06
0.02
0.14
0.08
0.11
0.08
0.08
0.18
0.08
0.14
0.22
0.01
0.45
0.04
0.57
0.58
0.61
0.52
0.52
0.22
0.14
0.18
0.08
0.08
0.04
0.02
0.02
0.02
0.01
0.01
0.01
0.01
0.01
0.01
0.00
0.00
0.02
0.02
0.02
0.02
0.04
0.08
0.11
0.18
0.20
0.22
0.14
0.20
0.11
0.11
0.08
0.04
0.04
0.02
0.02
0.01
0.01
0.02
0.00
0.01
0.00
0.01
0.01
0.01
0.01
0.02
0.02
0.01
0.02
0.01
0.02
0.01
0.02
0.01
0.02
0.01
0.01
0.02
0.01
0.02
0.00
0.04
0.01
0.01
0.01
0.01
0.01
0.01
0.00
0.06
0.00
0.18
0.22
0.26
0.26
0.24
0.01
0.02
0.02
0.01
0.06
0.08
0.08
0.06
0.08
0.18
0.08
0.34
0.65
0.56
0.60
0.57
0.52
0.52
0.04
0.08
0.02
0.01
0.02
0.00
0.00
0.01
0.01
0.00
0.00
0.00
0.00
0.00
0.00
0.00
0.00
0.01
0.00
0.00
0.00
0.00
0.01
0.02
0.04
0.06
0.08
0.08
0.11
0.08
0.02
0.04
0.01
0.00
0.00
0.00
0.00
0.01
0.01
0.01
0.00
0.01
0.01
0.01
0.00
0.01
0.00
0.01
0.00
0.00
0.03
0.00
0.00
0.00
0.00
0.00
0.00
0.00
0.00
0.00
0.00
0.00
0.00
0.00
0.00
0.00
0.00
0.00
0.00
0.00
0.00
0.00
0.00
0.06
0.13
0.18
0.22
0.38
0.38
0.15
0.08
0.01
0.01
0.01
0.00
0.01
0.00
0.01
0.00
0.01
0.01
0.24
0.75
0.26
0.57
0.62
0.63
0.53
0.32
0.01
0.02
0.01
0.00
0.00
0.00
0.00
0.00
0.00
0.00
0.01
0.00
0.00
0.01
0.01
0.01
0.00
0.00
0.01
0.00
0.00
0.00
0.01
0.02
0.08
0.14
0.20
0.18
0.20
0.14
0.08
0.08
0.04
0.01
0.01
0.00
0.00
0.00
0.00
0.01
0.00
0.00
0.03
0.01
0.03
0.01
0.03
0.03
0.01
0.01
0.03
0.03
0.06
0.03
0.08
0.06
0.13
0.08
0.03
0.08
0.08
0.03
0.04
0.32
0.50
0.53
0.53
0.51
0.63
0.94
0.98
0.98
1.00
0.98
0.96
0.94
0.97
0.99
0.98
0.98
0.91
0.58
0.01
0.38
0.49
0.51
0.52
0.51
0.53
0.53
0.53
0.53
0.53
0.54
0.56
0.58
0.67
0.80
0.83
0.87
0.88
0.88
0.88
0.88
0.87
0.82
0.72
0.57
0.53
0.53
0.51
0.43
0.22
0.08
0.04
0.01
0.01
0.01
0.01
0.00
0.00
0.01
0.00
0.00
0.00
0.00
0.00
0.00
0.00
0.00
0.00
0.00
0.00
0.00
0.00
0.00
0.00
0.00
0.00
0.00
0.00
0.00
0.00
0.00
0.00
0.00
0.00
0.00
0.00
0.00
0.00
0.00
0.01
0.00
0.00
0.00
0.01
0.00
0.00
0.00
0.01
0.00
0.00
0.01
0.00
0.00
0.00
0.00
0.01
0.00
0.01
0.01
0.01
0.00
0.13
0.03
0.22
0.15
0.43
0.24
0.18
0.06
0.01
0.02
0.01
0.04
0.08
0.08
0.08
0.08
0.18
0.00
0.50
0.26
0.56
0.56
0.57
0.52
0.52
0.08
0.11
0.08
0.04
0.02
0.00
0.01
0.00
0.00
0.01
0.00
0.00
0.00
0.00
0.00
0.00
0.00
0.01
0.00
0.01
0.01
0.00
0.01
0.04
0.01
0.04
0.02
0.02
0.04
0.08
0.18
0.14
0.11
0.14
0.08
0.06
0.04
0.06
0.02
0.06
0.04
0.01
0.02
0.04
0.02
0.01
0.00
0.01
0.01
0.01
0.00
0.00
0.14
0.03
0.00
0.00
0.26
0.51
0.60
0.53
0.06
0.55
0.82
0.94
0.94
0.98
0.96
0.88
0.08
0.35
0.47
0.06
0.04
0.04
0.08
0.01
0.02
0.08
0.11
0.32
0.48
0.50
0.50
0.51
0.52
0.52
0.53
0.53
0.53
0.53
0.53
0.53
0.53
0.51
0.50
0.47
0.32
0.11
0.04
0.02
0.01
0.00
0.00
0.00
0.00
0.00
0.00
0.00
0.00
0.00
0.00
0.06
0.01
0.06
0.03
0.01
0.03
0.00
0.00
0.00
0.00
0.01
0.00
0.01
0.01
0.01
0.01
0.01
0.01
0.01
0.01
0.01
0.02
0.01
0.01
0.04
0.01
0.04
0.02
0.01
0.02
0.01
0.02
0.01
0.02
0.02
0.01
0.02
0.01
0.01
0.01
0.02
0.01
0.02
0.01
0.02
0.02
0.02
0.02
0.02
0.02
0.04
0.02
0.01
0.04
0.02
0.04
0.01
0.00
0.00
0.01
0.03
0.41
0.13
0.13
0.00
0.08
0.08
0.08
0.06
0.08
0.11
0.08
0.14
0.14
0.00
0.64
0.15
0.56
0.58
0.71
0.52
0.50
0.20
0.18
0.11
0.08
0.06
0.02
0.02
0.01
0.01
0.00
0.00
0.00
0.01
0.01
0.01
0.01
0.01
0.01
0.00
0.00
0.00
0.00
0.00
0.00
0.01
0.01
0.02
0.06
0.08
0.14
0.14
0.14
0.14
0.04
0.08
0.01
0.01
0.00
0.00
0.00
0.00
0.00
0.00
0.00
0.00
0.00
0.00
0.00
0.00
0.00
0.00
0.01
0.00
0.00
0.00
0.00
0.00
0.00
0.00
0.00
0.00
0.00
0.00
0.01
0.01
0.01
0.00
0.00
0.08
0.01
0.15
0.38
0.26
0.22
0.08
0.00
0.04
0.04
0.01
0.01
0.06
0.06
0.06
0.08
0.08
0.00
0.66
0.08
0.56
0.56
0.64
0.52
0.50
0.14
0.18
0.08
0.08
0.06
0.04
0.02
0.02
0.04
0.02
0.02
0.01
0.01
0.01
0.01
0.00
0.00
0.01
0.00
0.04
0.04
0.02
0.08
0.14
0.18
0.20
0.18
0.20
0.18
0.18
0.11
0.04
0.01
0.01
0.00
0.00
0.00
0.00
0.03
0.00
0.00
0.01
0.00
0.02
0.06
0.03
0.43
0.64
0.18
0.57
0.89
0.89
0.87
0.61
0.01
0.88
0.96
0.79
0.57
0.52
0.53
0.52
0.49
0.00
0.00
0.00
0.00
0.13
0.13
0.18
0.15
0.38
0.52
0.38
0.24
0.13
0.00
0.00
0.06
0.03
0.18
0.22
0.41
0.45
0.55
0.56
0.58
0.58
0.55
0.45
0.34
0.18
0.03
0.00
0.00
0.00
0.01
0.00
0.00
0.01
0.00
0.01
0.00
0.00
0.00
0.00
0.00
0.00
0.00
0.00
0.01
0.00
0.00
0.01
0.01
0.01
0.01
0.01
0.01
0.01
0.02
0.01
0.01
0.01
0.01
0.01
0.01
0.01
0.00
0.00
0.01
0.00
0.00
0.01
0.00
0.00
0.00
0.00
0.00
0.00
0.00
0.00
0.00
0.00
0.00
0.00
0.00
0.00
0.00
0.01
0.01
0.00
0.00
0.01
0.00
0.00
0.01
0.00
0.00
0.00
0.01
0.13
0.13
0.24
0.26
0.55
0.34
0.41
0.15
0.00
0.01
0.00
0.00
0.00
0.00
0.00
0.01
0.08
0.08
0.60
0.38
0.53
0.53
0.56
0.53
0.52
0.06
0.06
0.01
0.00
0.00
0.00
0.00
0.00
0.01
0.00
0.01
0.06
0.08
0.03
0.08
0.13
0.13
0.08
0.08
0.08
0.06
0.06
0.06
0.00
0.00
0.00
0.00
0.01
0.04
0.08
0.08
0.11
0.06
0.04
0.02
0.00
0.00
0.00
0.01
0.01
0.03
0.01
0.03
0.06
0.01
0.01
0.06
0.01
0.06
0.06
0.06
0.01
0.03
0.00
0.24
0.02
0.20
0.32
0.00
0.50
0.62
0.80
0.94
0.93
0.93
0.96
0.98
0.98
0.98
0.92
0.74
0.66
0.14
0.18
0.22
0.39
0.40
0.48
0.48
0.50
0.52
0.52
0.52
0.53
0.53
0.53
0.52
0.56
0.57
0.57
0.60
0.60
0.60
0.57
0.56
0.52
0.53
0.51
0.50
0.39
0.20
0.08
0.01
0.00
0.00
0.00
0.00
0.00
0.00
0.00
0.00
0.00
0.01
0.00
0.01
0.01
0.00
0.00
0.00
0.01
0.00
0.00
0.01
0.00
0.00
0.00
0.00
0.00
0.00
0.00
0.00
0.00
0.00
0.00
0.00
0.00
0.00
0.00
0.01
0.01
0.03
0.01
0.00
0.03
0.03
0.00
0.00
0.00
0.00
0.00
0.00
0.00
0.00
0.01
0.03
0.00
0.03
0.18
0.15
0.26
0.45
0.48
0.34
0.18
0.00
0.00
0.00
0.01
0.01
0.04
0.02
0.02
0.08
0.06
0.00
0.77
0.49
0.56
0.53
0.58
0.52
0.40
0.11
0.11
0.08
0.02
0.01
0.01
0.00
0.00
0.00
0.00
0.00
0.01
0.01
0.00
0.00
0.00
0.00
0.00
0.00
0.01
0.00
0.00
0.01
0.00
0.01
0.00
0.04
0.02
0.06
0.08
0.11
0.08
0.06
0.06
0.01
0.02
0.01
0.00
0.00
0.01
0.00
0.00
0.00
0.01
0.00
0.00
0.00
0.00
0.02
0.01
0.01
0.01
0.01
0.02
0.04
0.02
0.06
0.01
0.02
0.01
0.02
0.01
0.01
0.01
0.01
0.00
0.30
0.15
0.15
0.00
0.06
0.06
0.08
0.11
0.11
0.18
0.11
0.18
0.40
0.06
0.03
0.65
0.56
0.62
0.58
0.54
0.52
0.35
0.24
0.18
0.14
0.08
0.08
0.08
0.06
0.04
0.06
0.08
0.04
0.08
0.01
0.04
0.01
0.04
0.01
0.02
0.04
0.02
0.06
0.08
0.11
0.08
0.14
0.22
0.20
0.14
0.14
0.14
0.08
0.04
0.08
0.02
0.06
0.06
0.02
0.02
0.04
0.04
0.02
0.04
0.04
0.04
0.02
0.06
0.04
0.04
0.08
0.06
0.04
0.02
0.04
0.06
0.04
0.02
0.06
0.01
0.02
0.04
0.01
0.01
0.01
0.01
0.00
0.08
0.06
0.34
0.22
0.18
0.03
0.02
0.01
0.06
0.04
0.04
0.06
0.08
0.06
0.20
0.15
0.52
0.63
0.56
0.67
0.62
0.52
0.52
0.06
0.08
0.04
0.01
0.00
0.00
0.00
0.00
0.00
0.00
0.00
0.00
0.00
0.01
0.03
0.01
0.00
0.01
0.00
0.00
0.00
0.00
0.01
0.04
0.06
0.08
0.08
0.11
0.08
0.08
0.06
0.01
0.01
0.00
0.01
0.00
0.00
0.00
0.00
0.00
0.00
0.00
0.00
0.00
0.00
0.00
0.00
0.00
0.00
0.00
0.00
0.01
0.00
0.00
0.00
0.00
0.00
0.01
0.01
0.01
0.02
0.02
0.01
0.02
0.01
0.00
0.00
0.01
0.06
0.22
0.24
0.00
0.00
0.08
0.14
0.08
0.08
0.06
0.08
0.14
0.04
0.08
0.02
0.06
0.76
0.48
0.58
0.69
0.72
0.53
0.47
0.11
0.06
0.02
0.01
0.01
0.00
0.00
0.00
0.00
0.00
0.00
0.00
0.00
0.00
0.00
0.00
0.00
0.00
0.01
0.01
0.02
0.01
0.06
0.08
0.14
0.18
0.22
0.18
0.14
0.11
0.04
0.01
0.01
0.00
0.01
0.01
0.03
0.00
0.01
0.00
0.00
0.01
0.00
0.00
0.00
0.00
0.00
0.00
0.00
0.00
0.00
0.00
0.00
0.00
0.00
0.01
0.00
0.00
0.00
0.00
0.00
0.00
0.01
0.00
0.00
0.00
0.00
0.01
0.00
0.00
0.00
0.01
0.03
0.15
0.01
0.26
0.41
0.50
0.70
0.70
0.58
0.34
0.62
0.79
0.83
0.84
0.87
0.92
0.94
0.86
0.55
0.14
0.48
0.38
0.32
0.40
0.40
0.47
0.47
0.50
0.52
0.51
0.51
0.53
0.53
0.53
0.53
0.52
0.54
0.54
0.56
0.56
0.54
0.52
0.53
0.53
0.53
0.52
0.51
0.48
0.39
0.20
0.08
0.04
0.00
0.00
0.00
0.01
0.00
0.01
0.01
0.00
0.01
0.01
0.01
0.01
0.00
0.00
0.01
0.01
0.00
0.00
0.00
0.00
0.01
0.00
0.00
0.00
0.01
0.00
0.00
0.01
0.00
0.00
0.01
0.00
0.00
0.00
0.01
0.01
0.01
0.01
0.01
0.01
0.02
0.01
0.01
0.01
0.00
0.08
0.06
0.03
0.18
0.22
0.06
0.00
0.04
0.14
0.08
0.08
0.11
0.08
0.14
0.08
0.18
0.00
0.06
0.73
0.53
0.62
0.58
0.56
0.52
0.32
0.14
0.18
0.08
0.06
0.02
0.04
0.02
0.01
0.01
0.01
0.01
0.00
0.01
0.00
0.00
0.01
0.01
0.00
0.00
0.01
0.02
0.01
0.08
0.06
0.06
0.08
0.18
0.06
0.11
0.08
0.06
0.08
0.04
0.01
0.00
0.01
0.01
0.00
0.00
0.01
0.00
0.00
0.00
0.00
0.00
0.00
0.00
0.00
0.00
0.00
0.00
0.00
0.00
0.00
0.00
0.00
0.00
0.00
0.00
0.01
0.00
0.00
0.00
0.00
0.00
0.13
0.15
0.13
0.18
0.30
0.34
0.15
0.18
0.00
0.04
0.01
0.01
0.01
0.02
0.02
0.02
0.02
0.01
0.26
0.69
0.22
0.57
0.63
0.61
0.53
0.50
0.02
0.02
0.01
0.00
0.01
0.01
0.01
0.00
0.01
0.01
0.03
0.01
0.06
0.03
0.06
0.03
0.03
0.08
0.01
0.03
0.03
0.00
0.00
0.01
0.01
0.06
0.06
0.08
0.08
0.04
0.02
0.01
0.00
0.00
0.03
0.01
0.03
0.03
0.03
0.01
0.03
0.03
0.06
0.01
0.06
0.03
0.06
0.08
0.13
0.06
0.13
0.13
0.13
0.08
0.13
0.13
0.08
0.08
0.13
0.03
0.06
0.06
0.00
0.08
0.26
0.13
0.45
0.08
0.14
0.72
0.71
0.53
0.08
0.76
0.94
0.97
0.98
0.98
0.87
0.58
0.35
0.18
0.38
0.02
0.04
0.06
0.08
0.08
0.08
0.11
0.08
0.20
0.22
0.26
0.40
0.47
0.50
0.51
0.52
0.52
0.52
0.51
0.52
0.52
0.47
0.26
0.11
0.02
0.00
0.03
0.08
0.13
0.08
0.15
0.13
0.08
0.08
0.15
0.06
0.08
0.08
0.06
0.03
0.03
0.13
0.06
0.01
0.06
0.03
0.06
0.03
0.03
0.00
0.01
0.00
0.01
0.00
0.00
0.00
0.00
0.00
0.00
0.00
0.00
0.00
0.00
0.00
0.01
0.00
0.00
0.00
0.00
0.01
0.00
0.00
0.00
0.01
0.00
0.01
0.01
0.00
0.03
0.00
0.03
0.01
0.00
0.00
0.01
0.03
0.06
0.22
0.13
0.30
0.18
0.52
0.26
0.22
0.03
0.00
0.01
0.01
0.00
0.01
0.01
0.01
0.06
0.11
0.13
0.41
0.71
0.52
0.57
0.57
0.52
0.52
0.04
0.08
0.06
0.01
0.01
0.01
0.00
0.00
0.00
0.00
0.00
0.00
0.00
0.01
0.01
0.01
0.00
0.00
0.01
0.00
0.00
0.01
0.08
0.08
0.18
0.11
0.18
0.18
0.22
0.24
0.18
0.18
0.08
0.08
0.00
0.01
0.01
0.01
0.00
0.00
0.00
0.00
0.01
0.00
0.00
0.00
0.00
0.00
0.00
0.00
0.02
0.26
0.01
0.02
0.35
0.53
0.57
0.53
0.60
0.76
0.85
0.94
0.95
0.98
0.94
0.83
0.48
0.02
0.03
0.00
0.01
0.00
0.04
0.02
0.20
0.39
0.48
0.48
0.50
0.51
0.51
0.52
0.53
0.53
0.53
0.52
0.53
0.53
0.53
0.53
0.53
0.53
0.51
0.49
0.40
0.24
0.11
0.04
0.02
0.01
0.01
0.01
0.02
0.01
0.01
0.01
0.01
0.00
0.00
0.01
0.00
0.00
0.01
0.01
0.01
0.01
0.01
0.01
0.00
0.01
0.00
0.01
0.01
0.01
0.00
0.01
0.00
0.00
0.01
0.01
0.02
0.01
0.01
0.01
0.01
0.01
0.01
0.01
0.01
0.01
0.02
0.01
0.01
0.01
0.02
0.00
0.00
0.01
0.01
0.01
0.01
0.01
0.01
0.01
0.02
0.02
0.04
0.04
0.01
0.01
0.01
0.01
0.00
0.06
0.01
0.13
0.30
0.30
0.22
0.06
0.00
0.01
0.02
0.04
0.02
0.04
0.08
0.06
0.08
0.04
0.01
0.73
0.24
0.56
0.58
0.63
0.53
0.48
0.18
0.11
0.08
0.02
0.01
0.01
0.00
0.00
0.00
0.00
0.00
0.00
0.00
0.00
0.00
0.00
0.00
0.00
0.00
0.00
0.00
0.00
0.04
0.01
0.06
0.06
0.11
0.11
0.14
0.22
0.18
0.14
0.11
0.08
0.02
0.01
0.00
0.00
0.00
0.00
0.00
0.00
0.00
0.00
0.00
0.00
0.00
0.00
0.00
0.00
0.00
0.00
0.01
0.00
0.01
0.00
0.00
0.00
0.20
0.08
0.08
0.02
0.32
0.39
0.53
0.50
0.57
0.83
0.91
0.93
0.97
0.98
0.98
0.94
0.71
0.01
0.00
0.20
0.22
0.24
0.38
0.38
0.47
0.40
0.48
0.50
0.50
0.51
0.51
0.52
0.53
0.53
0.52
0.54
0.56
0.56
0.56
0.56
0.54
0.53
0.53
0.52
0.52
0.43
0.26
0.11
0.08
0.01
0.01
0.00
0.00
0.00
0.00
0.00
0.00
0.00
0.00
0.00
0.00
0.00
0.00
0.00
0.00
0.00
0.00
0.00
0.00
0.00
0.00
0.00
0.00
0.00
0.00
0.00
0.00
0.01
0.01
0.00
0.00
0.00
0.00
0.00
0.00
0.00
0.00
0.00
0.00
0.00
0.00
0.00
0.00
0.00
0.00
0.00
0.01
0.00
0.00
0.01
0.01
0.00
0.01
0.01
0.00
0.03
0.00
0.13
0.26
0.30
0.24
0.15
0.00
0.01
0.06
0.06
0.06
0.08
0.11
0.11
0.08
0.06
0.00
0.78
0.52
0.56
0.56
0.63
0.52
0.38
0.14
0.18
0.08
0.08
0.02
0.06
0.02
0.01
0.06
0.01
0.00
0.02
0.01
0.02
0.01
0.02
0.01
0.02
0.06
0.06
0.08
0.08
0.14
0.14
0.18
0.18
0.20
0.20
0.26
0.32
0.32
0.24
0.22
0.18
0.08
0.06
0.08
0.01
0.02
0.02
0.06
0.01
0.02
0.01
0.04
0.01
0.01
0.00
0.01
0.01
0.01
0.01
0.00
0.00
0.01
0.08
0.02
0.01
0.01
0.08
0.52
0.57
0.67
0.52
0.18
0.76
0.93
0.96
0.98
0.97
0.92
0.64
0.50
0.52
0.38
0.24
0.39
0.39
0.40
0.47
0.43
0.47
0.48
0.50
0.50
0.52
0.52
0.52
0.53
0.53
0.53
0.53
0.53
0.53
0.53
0.53
0.52
0.50
0.47
0.35
0.14
0.08
0.04
0.01
0.01
0.01
0.02
0.01
0.01
0.02
0.04
0.00
0.01
0.00
0.00
0.00
0.00
0.00
0.01
0.00
0.00
0.00
0.00
0.00
0.00
0.00
0.00
0.00
0.00
0.00
0.00
0.00
0.00
0.00
0.00
0.00
0.00
0.00
0.00
0.00
0.01
0.00
0.00
0.00
0.00
0.00
0.00
0.01
0.00
0.00
0.01
0.01
0.00
0.00
0.01
0.00
0.00
0.03
0.08
0.15
0.13
0.45
0.24
0.22
0.08
0.01
0.02
0.01
0.06
0.02
0.04
0.02
0.06
0.08
0.03
0.24
0.80
0.53
0.62
0.57
0.56
0.53
0.11
0.08
0.08
0.04
0.01
0.00
0.00
0.00
0.01
0.00
0.00
0.01
0.03
0.01
0.00
0.06
0.01
0.01
0.00
0.01
0.00
0.00
0.00
0.00
0.01
0.02
0.01
0.02
0.08
0.08
0.11
0.11
0.08
0.04
0.01
0.01
0.00
0.00
0.00
0.00
0.01
0.00
0.00
0.00
0.00
0.00
0.01
0.00
0.00
0.00
0.00
0.01
0.00
0.00
0.01
0.01
0.00
0.01
0.00
0.00
0.00
0.03
0.00
0.03
0.08
0.01
0.18
0.18
0.41
0.22
0.13
0.00
0.06
0.08
0.04
0.06
0.08
0.08
0.08
0.11
0.18
0.06
0.58
0.50
0.57
0.64
0.64
0.52
0.51
0.08
0.18
0.06
0.08
0.01
0.01
0.01
0.01
0.00
0.00
0.00
0.00
0.01
0.00
0.03
0.01
0.00
0.01
0.00
0.00
0.00
0.01
0.02
0.08
0.08
0.14
0.08
0.08
0.06
0.06
0.00
0.00
0.01
0.00
0.03
0.08
0.08
0.06
0.08
0.03
0.06
0.03
0.01
0.01
0.06
0.03
0.01
0.06
0.00
0.01
0.00
0.03
0.00
0.03
0.01
0.01
0.00
0.00
0.00
0.06
0.00
0.04
0.11
0.13
0.00
0.26
0.06
0.51
0.81
0.81
0.52
0.40
0.76
0.96
0.96
0.98
0.90
0.78
0.14
0.49
0.38
0.38
0.14
0.18
0.20
0.20
0.20
0.14
0.18
0.26
0.32
0.35
0.43
0.49
0.48
0.50
0.52
0.52
0.52
0.52
0.52
0.49
0.47
0.35
0.14
0.06
0.01
0.00
0.00
0.01
0.01
0.06
0.03
0.06
0.01
0.00
0.00
0.01
0.01
0.00
0.00
0.00
0.00
0.01
0.01
0.03
0.00
0.01
0.06
0.00
0.00
0.01
0.00
0.00
0.00
0.00
0.00
0.00
0.00
0.00
0.00
0.00
0.00
0.00
0.00
0.01
0.00
0.00
0.00
0.00
0.02
0.00
0.00
0.02
0.01
0.02
0.01
0.04
0.04
0.02
0.01
0.02
0.00
0.00
0.00
0.01
0.34
0.15
0.06
0.06
0.02
0.08
0.04
0.08
0.08
0.08
0.08
0.11
0.22
0.01
0.06
0.75
0.53
0.57
0.56
0.56
0.53
0.38
0.14
0.18
0.04
0.04
0.06
0.04
0.01
0.04
0.01
0.01
0.01
0.01
0.00
0.00
0.01
0.00
0.01
0.01
0.01
0.01
0.01
0.01
0.04
0.04
0.04
0.08
0.08
0.11
0.14
0.20
0.08
0.08
0.08
0.06
0.02
0.04
0.01
0.01
0.01
0.01
0.01
0.01
0.00
0.02
0.00
0.00
0.01
0.00
0.00
0.00
0.00
0.00
0.00
0.00
0.00
0.06
0.11
0.01
0.02
0.01
0.01
0.50
0.52
0.43
0.65
0.81
0.88
0.96
0.98
0.98
0.96
0.83
0.32
0.00
0.32
0.11
0.26
0.38
0.39
0.43
0.43
0.47
0.49
0.50
0.52
0.52
0.52
0.53
0.53
0.52
0.52
0.53
0.56
0.54
0.54
0.52
0.53
0.53
0.51
0.48
0.35
0.14
0.06
0.01
0.00
0.00
0.00
0.01
0.00
0.01
0.00
0.01
0.01
0.03
0.01
0.03
0.01
0.03
0.06
0.06
0.08
0.06
0.06
0.08
0.06
0.06
0.02
0.38
0.52
0.53
0.47
0.63
0.94
1.00
1.00
1.00
1.00
1.00
0.98
0.96
0.99
0.98
0.98
0.93
0.41
0.38
0.50
0.51
0.53
0.53
0.53
0.53
0.54
0.56
0.57
0.63
0.71
0.80
0.82
0.86
0.88
0.88
0.89
0.89
0.89
0.89
0.89
0.89
0.89
0.88
0.82
0.69
0.56
0.53
0.52
0.48
0.32
0.14
0.08
0.04
0.02
0.02
0.01
0.01
0.00
0.01
0.00
0.57
0.72
0.72
0.04
0.56
0.95
0.83
0.96
0.98
1.00
1.00
0.98
0.87
0.69
0.08
0.02
0.08
0.26
0.35
0.40
0.47
0.50
0.50
0.50
0.51
0.52
0.52
0.53
0.53
0.53
0.53
0.52
0.54
0.56
0.56
0.56
0.56
0.54
0.53
0.53
0.52
0.50
0.43
0.26
0.11
0.08
0.04
0.06
0.02
0.02
0.06
0.04
0.02
0.04
0.06
0.02
0.02
0.04
0.02
0.01
0.04
0.01
0.01
0.00
0.00
0.00
0.06
0.08
0.30
0.15
0.03
0.00
0.08
0.08
0.04
0.08
0.06
0.08
0.08
0.08
0.24
0.00
0.06
0.71
0.52
0.54
0.56
0.53
0.53
0.22
0.22
0.14
0.11
0.08
0.08
0.08
0.04
0.08
0.02
0.06
0.01
0.02
0.01
0.01
0.01
0.04
0.04
0.06
0.04
0.08
0.11
0.14
0.22
0.22
0.26
0.26
0.32
0.22
0.20
0.08
0.11
0.01
0.02
0.01
0.01
0.01
0.01
0.01
0.00
0.01
0.02
0.01
0.01
0.01
0.01
0.01
0.00
0.00
0.00
0.00
0.00
0.01
0.00
0.00
0.00
0.00
0.00
0.00
0.04
0.01
0.00
0.01
0.02
0.01
0.02
0.00
0.03
0.00
0.01
0.26
0.26
0.15
0.03
0.01
0.06
0.14
0.08
0.08
0.14
0.11
0.11
0.20
0.06
0.01
0.62
0.47
0.57
0.54
0.57
0.52
0.52
0.20
0.20
0.20
0.08
0.08
0.02
0.04
0.02
0.02
0.02
0.01
0.01
0.04
0.00
0.00
0.02
0.02
0.01
0.02
0.08
0.08
0.08
0.14
0.24
0.22
0.22
0.26
0.20
0.18
0.08
0.08
0.02
0.01
0.01
0.01
0.00
0.00
0.00
0.00
0.00
0.00
0.00
0.00
0.00
0.00
0.00
0.01
0.01
0.04
0.22
0.00
0.01
0.47
0.53
0.56
0.52
0.65
0.77
0.84
0.94
0.95
0.98
0.94
0.83
0.08
0.01
0.08
0.18
0.11
0.06
0.18
0.06
0.18
0.01
0.32
0.26
0.47
0.51
0.51
0.51
0.52
0.53
0.53
0.53
0.53
0.53
0.53
0.53
0.52
0.51
0.49
0.38
0.22
0.08
0.02
0.01
0.01
0.00
0.00
0.00
0.00
0.00
0.00
0.00
0.00
0.00
0.00
0.00
0.00
0.00
0.00
0.00
0.00
0.00
0.00
0.00
0.00
0.00
0.00
0.00
0.00
0.00
0.00
0.01
0.00
0.00
0.00
0.00
0.00
0.00
0.00
0.00
0.00
0.00
0.00
0.00
0.00
0.00
0.00
0.00
0.00
0.00
0.00
0.00
0.01
0.00
0.01
0.01
0.00
0.00
0.00
0.01
0.00
0.03
0.03
0.00
0.00
0.00
0.00
0.00
0.01
0.00
0.00
0.00
0.15
0.15
0.22
0.24
0.56
0.34
0.41
0.18
0.01
0.00
0.00
0.00
0.00
0.01
0.01
0.01
0.08
0.15
0.45
0.78
0.52
0.57
0.56
0.52
0.51
0.01
0.02
0.01
0.00
0.00
0.00
0.03
0.08
0.06
0.13
0.15
0.15
0.13
0.15
0.18
0.15
0.18
0.15
0.08
0.06
0.06
0.06
0.01
0.00
0.00
0.00
0.01
0.01
0.01
0.06
0.02
0.04
0.02
0.00
0.00
0.01
0.00
0.08
0.03
0.06
0.03
0.08
0.08
0.13
0.13
0.06
0.06
0.06
0.08
0.03
0.06
0.15
0.00
0.04
0.51
0.52
0.71
0.53
0.18
0.79
0.86
0.95
0.96
0.98
0.96
0.82
0.26
0.22
0.18
0.00
0.00
0.00
0.08
0.06
0.01
0.00
0.04
0.20
0.26
0.32
0.39
0.47
0.48
0.50
0.51
0.51
0.52
0.52
0.52
0.52
0.49
0.43
0.38
0.18
0.06
0.01
0.00
0.00
0.00
0.00
0.00
0.00
0.00
0.00
0.00
0.00
0.00
0.00
0.00
0.00
0.00
0.00
0.00
0.00
0.00
0.00
0.00
0.00
0.00
0.00
0.00
0.00
0.00
0.01
0.00
0.00
0.00
0.00
0.00
0.00
0.00
0.00
0.01
0.01
0.00
0.01
0.00
0.00
0.00
0.00
0.00
0.00
0.00
0.00
0.01
0.00
0.00
0.00
0.00
0.00
0.01
0.01
0.01
0.00
0.00
0.01
0.01
0.01
0.04
0.02
0.01
0.02
0.02
0.02
0.01
0.00
0.08
0.18
0.38
0.15
0.03
0.00
0.06
0.08
0.08
0.08
0.11
0.18
0.14
0.18
0.20
0.08
0.63
0.24
0.56
0.53
0.57
0.53
0.50
0.24
0.22
0.20
0.14
0.08
0.08
0.06
0.08
0.08
0.06
0.04
0.06
0.06
0.04
0.06
0.04
0.08
0.06
0.08
0.08
0.11
0.08
0.11
0.14
0.06
0.14
0.11
0.11
0.14
0.22
0.20
0.22
0.20
0.20
0.08
0.08
0.08
0.06
0.02
0.02
0.06
0.04
0.02
0.06
0.04
0.02
0.02
0.04
0.08
0.02
0.01
0.06
0.01
0.04
0.04
0.04
0.02
0.04
0.01
0.02
0.06
0.02
0.06
0.04
0.00
0.00
0.00
0.00
0.24
0.24
0.22
0.03
0.00
0.04
0.08
0.04
0.14
0.08
0.11
0.22
0.11
0.20
0.01
0.56
0.03
0.57
0.57
0.57
0.53
0.53
0.11
0.14
0.11
0.08
0.08
0.02
0.04
0.02
0.01
0.04
0.02
0.01
0.01
0.02
0.00
0.01
0.01
0.02
0.01
0.06
0.04
0.08
0.14
0.20
0.26
0.24
0.22
0.22
0.24
0.18
0.14
0.08
0.06
0.02
0.01
0.00
0.00
0.00
0.01
0.00
0.00
0.01
0.00
0.01
0.00
0.01
0.00
0.01
0.01
0.01
0.00
0.00
0.00
0.00
0.00
0.01
0.01
0.00
0.01
0.00
0.00
0.00
0.01
0.00
0.01
0.00
0.00
0.08
0.01
0.18
0.24
0.43
0.26
0.15
0.06
0.02
0.01
0.01
0.01
0.04
0.04
0.08
0.02
0.11
0.15
0.45
0.76
0.56
0.74
0.57
0.56
0.53
0.08
0.08
0.06
0.06
0.01
0.01
0.01
0.00
0.00
0.01
0.00
0.00
0.00
0.00
0.01
0.00
0.01
0.00
0.00
0.00
0.01
0.02
0.06
0.11
0.14
0.18
0.18
0.22
0.22
0.18
0.08
0.04
0.01
0.00
0.00
0.00
0.00
0.01
0.01
0.00
0.00
0.00
0.00
0.00
0.00
0.00
0.00
0.00
0.00
0.00
0.00
0.00
0.00
0.00
0.00
0.00
0.00
0.00
0.00
0.00
0.00
0.00
0.00
0.00
0.00
0.00
0.00
0.00
0.06
0.03
0.08
0.06
0.41
0.26
0.15
0.08
0.01
0.04
0.02
0.00
0.02
0.02
0.04
0.02
0.02
0.18
0.24
0.81
0.53
0.64
0.58
0.58
0.53
0.06
0.02
0.01
0.00
0.00
0.00
0.01
0.00
0.00
0.00
0.00
0.00
0.00
0.01
0.00
0.00
0.00
0.00
0.00
0.01
0.02
0.08
0.08
0.20
0.18
0.22
0.24
0.22
0.24
0.22
0.08
0.06
0.01
0.01
0.01
0.01
0.00
0.00
0.00
0.00
0.00
0.00
0.00
0.00
0.00
0.01
0.00
0.01
0.00
0.01
0.00
0.00
0.01
0.00
0.00
0.00
0.00
0.00
0.01
0.00
0.00
0.01
0.00
0.00
0.01
0.00
0.02
0.00
0.04
0.01
0.00
0.08
0.00
0.13
0.00
0.24
0.06
0.06
0.00
0.08
0.08
0.11
0.04
0.02
0.06
0.08
0.08
0.06
0.15
0.22
0.76
0.54
0.58
0.56
0.54
0.53
0.06
0.08
0.08
0.04
0.01
0.00
0.01
0.01
0.01
0.00
0.02
0.00
0.01
0.01
0.01
0.00
0.00
0.00
0.01
0.01
0.04
0.08
0.06
0.14
0.14
0.26
0.20
0.14
0.18
0.08
0.08
0.02
0.01
0.00
0.00
0.00
0.00
0.00
0.00
0.01
0.01
0.00
0.00
0.00
0.00
0.00
0.00
0.00
0.00
0.00
0.01
0.02
0.00
0.01
0.01
0.01
0.00
0.01
0.01
0.02
0.00
0.01
0.01
0.01
0.01
0.01
0.01
0.00
0.00
0.02
0.00
0.08
0.03
0.15
0.15
0.24
0.30
0.13
0.08
0.01
0.08
0.06
0.01
0.08
0.04
0.06
0.02
0.08
0.03
0.15
0.75
0.51
0.57
0.58
0.58
0.52
0.35
0.06
0.06
0.00
0.00
0.00
0.00
0.01
0.01
0.00
0.01
0.06
0.06
0.06
0.08
0.03
0.15
0.08
0.06
0.01
0.01
0.00
0.00
0.01
0.00
0.04
0.06
0.06
0.08
0.04
0.01
0.00
0.00
0.01
0.01
0.06
0.08
0.08
0.13
0.06
0.08
0.06
0.08
0.08
0.15
0.13
0.06
0.01
0.06
0.01
0.03
0.01
0.00
0.00
0.01
0.01
0.03
0.03
0.01
0.00
0.00
0.01
0.01
0.01
0.01
0.01
0.00
0.00
0.00
0.00
0.00
0.00
0.00
0.00
0.06
0.18
0.13
0.26
0.22
0.45
0.15
0.08
0.00
0.01
0.01
0.01
0.00
0.00
0.01
0.01
0.00
0.01
0.38
0.70
0.26
0.56
0.66
0.62
0.53
0.48
0.01
0.01
0.00
0.00
0.01
0.01
0.03
0.01
0.03
0.03
0.06
0.06
0.08
0.15
0.06
0.13
0.08
0.08
0.06
0.00
0.00
0.00
0.00
0.06
0.08
0.11
0.18
0.11
0.08
0.06
0.04
0.00
0.00
0.00
0.03
0.03
0.03
0.03
0.06
0.06
0.03
0.03
0.08
0.06
0.03
0.06
0.03
0.01
0.03
0.03
0.03
0.03
0.08
0.06
0.06
0.08
0.06
0.03
0.06
0.03
0.03
0.08
0.06
0.06
0.00
0.08
0.03
0.06
0.01
0.03
0.06
0.00
0.03
0.03
0.03
0.03
0.18
0.18
0.15
0.22
0.26
0.45
0.18
0.08
0.01
0.04
0.01
0.01
0.00
0.01
0.01
0.01
0.02
0.00
0.24
0.71
0.04
0.57
0.61
0.63
0.53
0.38
0.01
0.00
0.00
0.00
0.01
0.01
0.06
0.00
0.01
0.03
0.01
0.01
0.03
0.06
0.06
0.03
0.06
0.03
0.00
0.01
0.00
0.02
0.04
0.06
0.08
0.18
0.18
0.14
0.11
0.06
0.01
0.01
0.00
0.01
0.03
0.08
0.08
0.13
0.06
0.06
0.08
0.03
0.00
0.03
0.03
0.08
0.06
0.06
0.01
0.03
0.01
0.06
0.03
0.06
0.00
0.01
0.08
0.01
0.06
0.00
0.03
0.03
0.01
0.00
0.01
0.00
0.00
0.00
0.00
0.00
0.00
0.00
0.00
0.00
0.00
0.00
0.00
0.00
0.00
0.15
0.06
0.15
0.22
0.38
0.26
0.18
0.08
0.01
0.06
0.01
0.02
0.01
0.01
0.02
0.04
0.04
0.03
0.03
0.75
0.51
0.56
0.56
0.57
0.53
0.32
0.08
0.08
0.04
0.06
0.02
0.04
0.01
0.01
0.00
0.01
0.01
0.01
0.00
0.00
0.00
0.00
0.01
0.02
0.00
0.02
0.04
0.08
0.11
0.18
0.20
0.24
0.24
0.24
0.20
0.14
0.08
0.02
0.01
0.02
0.00
0.00
0.00
0.00
0.00
0.00
0.00
0.00
0.00
0.00
0.00
0.00
0.00
0.00
0.00
0.00
0.00
0.00
0.01
0.00
0.00
0.00
0.00
0.00
0.00
0.01
0.00
0.00
0.00
0.00
0.01
0.00
0.01
0.01
0.02
0.01
0.01
0.01
0.01
0.01
0.02
0.00
0.01
0.01
0.15
0.08
0.38
0.06
0.06
0.01
0.08
0.04
0.04
0.08
0.04
0.08
0.04
0.11
0.02
0.03
0.65
0.04
0.57
0.57
0.61
0.53
0.49
0.08
0.08
0.02
0.04
0.00
0.00
0.01
0.00
0.00
0.00
0.00
0.00
0.00
0.00
0.00
0.00
0.00
0.00
0.00
0.01
0.04
0.01
0.08
0.11
0.14
0.20
0.24
0.26
0.22
0.14
0.08
0.04
0.04
0.00
0.00
0.00
0.00
0.00
0.01
0.00
0.01
0.00
0.01
0.01
0.01
0.00
0.01
0.00
0.00
0.01
0.00
0.00
0.00
0.00
0.00
0.00
0.00
0.00
0.00
0.00
0.01
0.00
0.00
0.00
0.00
0.01
0.01
0.00
0.01
0.01
0.01
0.02
0.04
0.02
0.01
0.00
0.00
0.01
0.01
0.06
0.13
0.00
0.01
0.08
0.22
0.11
0.14
0.08
0.14
0.14
0.08
0.08
0.01
0.13
0.75
0.48
0.57
0.62
0.71
0.53
0.40
0.08
0.08
0.02
0.00
0.00
0.00
0.00
0.00
0.00
0.00
0.03
0.00
0.03
0.03
0.06
0.03
0.06
0.03
0.01
0.01
0.00
0.00
0.01
0.06
0.06
0.11
0.14
0.18
0.08
0.08
0.06
0.01
0.00
0.00
0.00
0.01
0.03
0.06
0.03
0.01
0.06
0.06
0.03
0.03
0.03
0.01
0.06
0.03
0.03
0.03
0.06
0.00
0.03
0.03
0.01
0.06
0.03
0.01
0.01
0.03
0.01
0.01
0.01
0.01
0.01
0.00
0.01
0.01
0.01
0.00
0.03
0.01
0.01
0.01
0.06
0.00
0.01
0.00
0.06
0.18
0.18
0.30
0.22
0.45
0.41
0.22
0.15
0.00
0.00
0.00
0.00
0.00
0.00
0.00
0.00
0.00
0.15
0.15
0.81
0.52
0.57
0.56
0.58
0.53
0.08
0.01
0.01
0.00
0.00
0.00
0.01
0.00
0.01
0.01
0.01
0.03
0.03
0.03
0.01
0.03
0.06
0.00
0.03
0.00
0.00
0.01
0.00
0.04
0.08
0.08
0.20
0.18
0.14
0.08
0.06
0.02
0.01
0.00
0.00
0.01
0.00
0.03
0.00
0.06
0.01
0.03
0.01
0.00
0.01
0.00
0.03
0.01
0.01
0.01
0.03
0.01
0.01
0.03
0.03
0.01
0.06
0.03
0.03
0.06
0.03
0.03
0.03
0.01
0.00
0.00
0.00
0.00
0.00
0.00
0.00
0.00
0.00
0.00
0.00
0.00
0.15
0.00
0.18
0.13
0.43
0.18
0.08
0.00
0.01
0.06
0.08
0.01
0.08
0.04
0.08
0.01
0.14
0.01
0.22
0.75
0.53
0.57
0.56
0.56
0.53
0.08
0.04
0.06
0.06
0.02
0.00
0.01
0.00
0.00
0.01
0.01
0.01
0.01
0.01
0.00
0.00
0.02
0.01
0.01
0.01
0.01
0.02
0.08
0.11
0.14
0.20
0.20
0.22
0.18
0.18
0.14
0.06
0.06
0.06
0.01
0.00
0.01
0.00
0.00
0.00
0.00
0.00
0.00
0.00
0.00
0.00
0.00
0.00
0.01
0.00
0.00
0.00
0.00
0.00
0.00
0.00
0.00
0.00
0.00
0.00
0.00
0.01
0.01
0.00
0.00
0.01
0.00
0.00
0.00
0.01
0.01
0.02
0.01
0.00
0.13
0.01
0.15
0.08
0.34
0.08
0.15
0.00
0.06
0.06
0.02
0.01
0.04
0.06
0.04
0.04
0.08
0.15
0.30
0.76
0.52
0.58
0.56
0.53
0.53
0.04
0.06
0.02
0.01
0.01
0.00
0.00
0.00
0.00
0.00
0.00
0.00
0.00
0.00
0.00
0.01
0.00
0.01
0.00
0.00
0.01
0.00
0.01
0.06
0.08
0.11
0.14
0.11
0.14
0.14
0.08
0.04
0.01
0.00
0.00
0.00
0.00
0.01
0.01
0.03
0.00
0.01
0.00
0.01
0.00
0.01
0.00
0.01
0.01
0.00
0.01
0.01
0.01
0.01
0.03
0.01
0.00
0.00
0.01
0.01
0.03
0.01
0.01
0.01
0.00
0.00
0.00
0.01
0.00
0.00
0.01
0.00
0.01
0.00
0.03
0.00
0.03
0.06
0.22
0.13
0.24
0.24
0.48
0.13
0.15
0.00
0.02
0.00
0.01
0.01
0.01
0.01
0.02
0.01
0.01
0.22
0.63
0.41
0.56
0.63
0.60
0.53
0.50
0.04
0.02
0.01
0.01
0.00
0.00
0.00
0.00
0.03
0.00
0.00
0.00
0.00
0.00
0.00
0.01
0.01
0.00
0.00
0.00
0.00
0.01
0.02
0.08
0.14
0.18
0.18
0.20
0.18
0.18
0.08
0.08
0.01
0.00
0.00
0.00
0.00
0.01
0.01
0.01
0.00
0.00
0.00
0.00
0.00
0.00
0.00
0.00
0.00
0.00
0.00
0.00
0.00
0.00
0.01
0.00
0.00
0.01
0.00
0.00
0.00
0.00
0.00
0.00
0.00
0.00
0.00
0.00
0.00
0.00
0.00
0.00
0.01
0.00
0.00
0.00
0.06
0.06
0.13
0.06
0.26
0.18
0.00
0.00
0.14
0.14
0.08
0.04
0.08
0.08
0.08
0.14
0.11
0.00
0.00
0.79
0.53
0.58
0.58
0.63
0.53
0.26
0.14
0.14
0.08
0.06
0.06
0.04
0.01
0.01
0.01
0.00
0.00
0.00
0.01
0.00
0.01
0.00
0.01
0.00
0.01
0.01
0.08
0.08
0.18
0.24
0.22
0.26
0.32
0.24
0.22
0.20
0.11
0.06
0.01
0.00
0.00
0.00
0.00
0.00
0.00
0.00
0.00
0.00
0.00
0.00
0.00
0.00
0.01
0.01
0.01
0.01
0.00
0.00
0.01
0.00
0.00
0.00
0.00
0.01
0.00
0.00
0.00
0.00
0.00
0.01
0.00
0.01
0.00
0.00
0.01
0.00
0.00
0.00
0.01
0.00
0.01
0.00
0.06
0.00
0.18
0.08
0.38
0.13
0.06
0.00
0.08
0.01
0.06
0.02
0.02
0.08
0.02
0.08
0.08
0.01
0.52
0.01
0.54
0.56
0.57
0.52
0.50
0.08
0.08
0.06
0.04
0.01
0.02
0.01
0.00
0.01
0.01
0.00
0.00
0.01
0.01
0.00
0.00
0.00
0.01
0.01
0.06
0.08
0.08
0.08
0.20
0.26
0.24
0.32
0.35
0.24
0.20
0.22
0.14
0.11
0.04
0.04
0.02
0.01
0.01
0.01
0.01
0.01
0.02
0.00
0.00
0.01
0.01
0.01
0.04
0.01
0.01
0.04
0.02
0.06
0.04
0.04
0.04
0.04
0.06
0.04
0.06
0.04
0.04
0.06
0.04
0.04
0.08
0.04
0.06
0.04
0.04
0.02
0.04
0.00
0.00
0.00
0.03
0.30
0.22
0.06
0.01
0.01
0.08
0.08
0.02
0.08
0.11
0.08
0.04
0.11
0.00
0.01
0.75
0.52
0.57
0.56
0.57
0.53
0.24
0.08
0.11
0.02
0.04
0.01
0.01
0.01
0.01
0.01
0.01
0.00
0.01
0.00
0.00
0.00
0.00
0.00
0.00
0.01
0.01
0.01
0.04
0.08
0.14
0.20
0.20
0.18
0.18
0.14
0.14
0.06
0.04
0.01
0.01
0.00
0.00
0.01
0.01
0.00
0.00
0.00
0.00
0.01
0.00
0.00
0.00
0.00
0.00
0.00
0.00
0.00
0.00
0.00
0.00
0.00
0.00
0.00
0.00
0.00
0.00
0.01
0.01
0.00
0.00
0.00
0.00
0.00
0.00
0.00
0.00
0.00
0.00
0.00
0.15
0.06
0.30
0.13
0.43
0.34
0.18
0.08
0.01
0.01
0.04
0.00
0.01
0.01
0.01
0.01
0.08
0.26
0.22
0.77
0.52
0.62
0.56
0.56
0.53
0.02
0.04
0.02
0.00
0.00
0.00
0.00
0.00
0.00
0.00
0.00
0.00
0.00
0.01
0.00
0.01
0.00
0.00
0.00
0.00
0.01
0.02
0.04
0.14
0.14
0.14
0.20
0.20
0.22
0.18
0.11
0.06
0.01
0.00
0.00
0.00
0.01
0.03
0.01
0.00
0.03
0.01
0.01
0.03
0.01
0.01
0.01
0.01
0.01
0.01
0.03
0.00
0.00
0.00
0.00
0.00
0.01
0.01
0.01
0.00
0.01
0.00
0.01
0.01
0.00
0.00
0.00
0.00
0.00
0.01
0.00
0.00
0.00
0.00
0.00
0.03
0.13
0.03
0.15
0.22
0.38
0.08
0.06
0.02
0.08
0.04
0.06
0.06
0.06
0.08
0.02
0.06
0.00
0.01
0.76
0.50
0.57
0.57
0.64
0.53
0.35
0.08
0.08
0.04
0.04
0.02
0.02
0.02
0.04
0.02
0.01
0.00
0.01
0.00
0.00
0.01
0.00
0.01
0.00
0.04
0.01
0.04
0.08
0.20
0.20
0.26
0.22
0.20
0.22
0.18
0.11
0.06
0.02
0.00
0.00
0.01
0.00
0.03
0.03
0.00
0.00
0.01
0.00
0.00
0.00
0.01
0.01
0.00
0.03
0.00
0.00
0.00
0.00
0.00
0.01
0.00
0.00
0.00
0.00
0.00
0.00
0.00
0.00
0.00
0.01
0.00
0.01
0.00
0.00
0.00
0.01
0.00
0.00
0.08
0.00
0.26
0.13
0.38
0.24
0.13
0.00
0.01
0.04
0.08
0.04
0.08
0.08
0.08
0.08
0.22
0.00
0.15
0.62
0.54
0.57
0.57
0.52
0.53
0.14
0.14
0.06
0.04
0.01
0.01
0.01
0.01
0.00
0.00
0.01
0.01
0.00
0.01
0.00
0.00
0.00
0.00
0.00
0.01
0.00
0.02
0.02
0.04
0.08
0.08
0.02
0.11
0.11
0.06
0.06
0.06
0.02
0.01
0.00
0.00
0.01
0.00
0.00
0.01
0.00
0.00
0.06
0.00
0.01
0.00
0.00
0.00
0.00
0.00
0.00
0.00
0.00
0.00
0.00
0.00
0.00
0.00
0.00
0.00
0.00
0.00
0.00
0.00
0.01
0.00
0.01
0.00
0.00
0.01
0.00
0.00
0.08
0.03
0.22
0.22
0.38
0.30
0.22
0.00
0.01
0.01
0.00
0.01
0.01
0.01
0.02
0.04
0.04
0.18
0.52
0.62
0.54
0.57
0.57
0.53
0.52
0.04
0.06
0.06
0.01
0.01
0.00
0.00
0.00
0.00
0.00
0.00
0.00
0.00
0.00
0.00
0.00
0.00
0.00
0.00
0.00
0.00
0.01
0.02
0.04
0.08
0.11
0.14
0.11
0.11
0.11
0.06
0.04
0.01
0.00
0.00
0.00
0.03
0.03
0.01
0.01
0.01
0.01
0.01
0.03
0.08
0.06
0.06
0.03
0.06
0.06
0.03
0.03
0.01
0.03
0.01
0.03
0.01
0.08
0.03
0.03
0.01
0.00
0.01
0.01
0.00
0.00
0.00
0.00
0.00
0.00
0.00
0.00
0.00
0.13
0.03
0.22
0.06
0.45
0.18
0.08
0.01
0.06
0.04
0.04
0.01
0.00
0.01
0.01
0.01
0.06
0.26
0.45
0.71
0.53
0.63
0.57
0.53
0.50
0.00
0.00
0.00
0.00
0.03
0.01
0.08
0.03
0.03
0.03
0.08
0.03
0.06
0.13
0.06
0.03
0.03
0.13
0.06
0.01
0.00
0.00
0.01
0.02
0.08
0.08
0.08
0.08
0.11
0.06
0.06
0.00
0.00
0.00
0.00
0.01
0.03
0.06
0.03
0.03
0.03
0.03
0.01
0.01
0.00
0.03
0.03
0.01
0.01
0.01
0.01
0.00
0.01
0.01
0.00
0.00
0.00
0.00
0.00
0.00
0.00
0.00
0.00
0.00
0.00
0.00
0.00
0.00
0.00
0.00
0.00
0.00
0.00
0.00
0.00
0.06
0.15
0.13
0.22
0.30
0.48
0.13
0.15
0.00
0.06
0.01
0.01
0.01
0.01
0.02
0.02
0.01
0.02
0.08
0.66
0.02
0.56
0.57
0.62
0.52
0.48
0.08
0.11
0.04
0.01
0.01
0.02
0.02
0.01
0.01
0.00
0.00
0.00
0.00
0.00
0.00
0.00
0.01
0.00
0.02
0.02
0.06
0.06
0.08
0.14
0.24
0.24
0.24
0.24
0.22
0.18
0.11
0.06
0.04
0.04
0.00
0.01
0.00
0.01
0.00
0.01
0.01
0.02
0.01
0.04
0.02
0.01
0.02
0.06
0.06
0.02
0.08
0.02
0.02
0.04
0.04
0.02
0.01
0.04
0.04
0.06
0.02
0.01
0.02
0.06
0.01
0.06
0.02
0.06
0.04
0.02
0.06
0.01
0.03
0.00
0.08
0.18
0.24
0.18
0.03
0.01
0.06
0.06
0.08
0.08
0.11
0.08
0.08
0.18
0.01
0.00
0.66
0.52
0.57
0.56
0.57
0.52
0.39
0.14
0.11
0.11
0.02
0.06
0.06
0.01
0.02
0.01
0.02
0.02
0.01
0.00
0.01
0.00
0.00
0.01
0.01
0.01
0.01
0.01
0.02
0.04
0.08
0.08
0.08
0.18
0.08
0.11
0.06
0.02
0.01
0.01
0.01
0.00
0.00
0.00
0.00
0.00
0.00
0.00
0.01
0.00
0.00
0.00
0.01
0.01
0.01
0.00
0.00
0.01
0.00
0.00
0.01
0.00
0.00
0.00
0.00
0.00
0.00
0.00
0.00
0.00
0.00
0.01
0.00
0.00
0.01
0.01
0.01
0.01
0.01
0.01
0.00
0.08
0.00
0.22
0.08
0.38
0.08
0.13
0.00
0.06
0.04
0.04
0.01
0.04
0.08
0.01
0.08
0.08
0.15
0.24
0.71
0.53
0.64
0.58
0.54
0.53
0.08
0.08
0.04
0.02
0.01
0.01
0.00
0.00
0.00
0.00
0.00
0.00
0.00
0.00
0.00
0.01
0.01
0.00
0.01
0.00
0.00
0.01
0.01
0.02
0.06
0.11
0.08
0.11
0.14
0.08
0.06
0.02
0.01
0.00
0.00
0.00
0.03
0.03
0.01
0.03
0.03
0.00
0.01
0.01
0.03
0.01
0.03
0.01
0.00
0.00
0.06
0.03
0.00
0.00
0.00
0.01
0.01
0.01
0.00
0.01
0.00
0.00
0.01
0.00
0.00
0.00
0.00
0.00
0.01
0.01
0.00
0.00
0.01
0.00
0.13
0.18
0.15
0.22
0.26
0.45
0.13
0.18
0.00
0.01
0.01
0.00
0.00
0.01
0.02
0.00
0.01
0.04
0.22
0.60
0.45
0.54
0.62
0.58
0.52
0.51
0.08
0.06
0.02
0.01
0.01
0.01
0.00
0.01
0.00
0.00
0.00
0.00
0.00
0.00
0.00
0.01
0.03
0.03
0.00
0.00
0.00
0.00
0.01
0.02
0.04
0.11
0.11
0.11
0.08
0.08
0.04
0.02
0.00
0.00
0.03
0.06
0.08
0.08
0.13
0.18
0.08
0.15
0.15
0.13
0.15
0.15
0.08
0.13
0.08
0.08
0.06
0.06
0.08
0.03
0.06
0.13
0.03
0.00
0.01
0.01
0.00
0.00
0.00
0.00
0.00
0.00
0.00
0.00
0.01
0.01
0.00
0.00
0.00
0.00
0.00
0.03
0.22
0.08
0.24
0.15
0.48
0.13
0.18
0.00
0.06
0.04
0.04
0.01
0.01
0.06
0.02
0.04
0.11
0.08
0.38
0.55
0.54
0.56
0.58
0.53
0.51
0.04
0.08
0.02
0.01
0.00
0.01
0.00
0.00
0.01
0.00
0.00
0.00
0.00
0.01
0.00
0.00
0.00
0.00
0.00
0.00
0.00
0.01
0.02
0.04
0.11
0.14
0.14
0.11
0.14
0.08
0.02
0.01
0.01
0.00
0.00
0.03
0.00
0.03
0.00
0.06
0.00
0.00
0.00
0.00
0.01
0.03
0.00
0.01
0.00
0.00
0.00
0.00
0.00
0.00
0.00
0.00
0.00
0.01
0.00
0.00
0.00
0.00
0.00
0.00
0.01
0.00
0.00
0.01
0.00
0.01
0.00
0.00
0.06
0.03
0.13
0.34
0.38
0.26
0.18
0.00
0.01
0.02
0.01
0.04
0.04
0.04
0.04
0.08
0.00
0.01
0.70
0.52
0.58
0.56
0.56
0.53
0.35
0.08
0.06
0.04
0.01
0.00
0.02
0.00
0.01
0.00
0.00
0.00
0.00
0.00
0.00
0.00
0.00
0.00
0.00
0.00
0.01
0.01
0.01
0.06
0.08
0.11
0.11
0.18
0.11
0.08
0.06
0.04
0.00
0.00
0.00
0.03
0.00
0.08
0.06
0.08
0.08
0.08
0.08
0.08
0.08
0.06
0.08
0.08
0.06
0.06
0.08
0.03
0.03
0.00
0.00
0.03
0.01
0.03
0.00
0.01
0.01
0.01
0.00
0.01
0.00
0.01
0.01
0.00
0.03
0.01
0.01
0.01
0.00
0.01
0.15
0.18
0.15
0.24
0.34
0.38
0.18
0.13
0.00
0.02
0.02
0.01
0.01
0.01
0.01
0.01
0.04
0.00
0.15
0.72
0.11
0.56
0.58
0.64
0.53
0.38
0.01
0.04
0.00
0.00
0.00
0.00
0.00
0.00
0.03
0.01
0.01
0.01
0.03
0.01
0.00
0.06
0.03
0.06
0.03
0.03
0.00
0.00
0.00
0.01
0.04
0.04
0.06
0.08
0.08
0.04
0.02
0.01
0.00
0.00
0.01
0.03
0.03
0.03
0.06
0.03
0.01
0.06
0.01
0.03
0.00
0.00
0.00
0.00
0.00
0.00
0.00
0.00
0.00
0.00
0.00
0.00
0.00
0.00
0.00
0.01
0.00
0.01
0.01
0.01
0.02
0.00
0.01
0.01
0.01
0.01
0.02
0.00
0.00
0.00
0.00
0.01
0.03
0.08
0.01
0.18
0.13
0.43
0.08
0.03
0.00
0.08
0.08
0.06
0.02
0.06
0.06
0.11
0.08
0.04
0.08
0.62
0.01
0.56
0.61
0.62
0.52
0.50
0.08
0.08
0.06
0.04
0.01
0.01
0.00
0.01
0.01
0.01
0.00
0.00
0.00
0.01
0.00
0.00
0.01
0.00
0.00
0.00
0.00
0.02
0.04
0.06
0.14
0.11
0.18
0.20
0.18
0.08
0.08
0.06
0.01
0.01
0.00
0.00
0.01
0.00
0.00
0.00
0.00
0.00
0.00
0.01
0.00
0.01
0.00
0.00
0.00
0.00
0.00
0.00
0.01
0.00
0.00
0.00
0.00
0.00
0.00
0.00
0.00
0.00
0.01
0.00
0.00
0.01
0.00
0.00
0.01
0.01
0.01
0.01
0.00
0.03
0.00
0.08
0.01
0.34
0.15
0.01
0.00
0.11
0.14
0.18
0.08
0.11
0.20
0.14
0.11
0.24
0.00
0.01
0.70
0.52
0.57
0.56
0.53
0.53
0.18
0.11
0.08
0.08
0.04
0.06
0.04
0.04
0.02
0.06
0.01
0.01
0.02
0.02
0.01
0.01
0.04
0.06
0.04
0.04
0.04
0.06
0.08
0.11
0.18
0.22
0.20
0.20
0.18
0.14
0.06
0.01
0.02
0.01
0.01
0.00
0.00
0.00
0.00
0.00
0.00
0.01
0.01
0.01
0.01
0.00
0.01
0.01
0.01
0.02
0.04
0.02
0.01
0.06
0.04
0.04
0.04
0.02
0.04
0.02
0.01
0.02
0.04
0.04
0.02
0.06
0.04
0.04
0.06
0.02
0.01
0.00
0.00
0.00
0.03
0.15
0.24
0.06
0.06
0.04
0.11
0.08
0.11
0.08
0.14
0.11
0.14
0.18
0.02
0.01
0.69
0.53
0.61
0.57
0.57
0.52
0.47
0.11
0.11
0.14
0.06
0.02
0.02
0.04
0.01
0.01
0.01
0.01
0.00
0.00
0.00
0.00
0.00
0.00
0.00
0.00
0.00
0.00
0.00
0.01
0.06
0.06
0.08
0.08
0.11
0.08
0.06
0.04
0.02
0.01
0.00
0.01
0.00
0.00
0.00
0.01
0.00
0.00
0.00
0.00
0.01
0.00
0.00
0.00
0.01
0.00
0.00
0.00
0.01
0.00
0.00
0.00
0.00
0.00
0.00
0.00
0.00
0.00
0.00
0.00
0.00
0.00
0.00
0.01
0.00
0.00
0.01
0.00
0.01
0.00
0.01
0.15
0.06
0.26
0.08
0.48
0.22
0.18
0.03
0.02
0.04
0.00
0.00
0.02
0.01
0.01
0.02
0.08
0.24
0.15
0.79
0.52
0.66
0.56
0.56
0.53
0.01
0.01
0.01
0.00
0.00
0.01
0.01
0.06
0.00
0.06
0.01
0.03
0.06
0.06
0.03
0.06
0.06
0.13
0.03
0.03
0.03
0.00
0.00
0.00
0.02
0.06
0.06
0.06
0.06
0.08
0.02
0.02
0.00
0.00
0.03
0.03
0.06
0.13
0.08
0.08
0.08
0.03
0.01
0.06
0.03
0.03
0.06
0.03
0.08
0.01
0.03
0.06
0.06
0.03
0.08
0.08
0.03
0.03
0.08
0.03
0.03
0.03
0.06
0.01
0.01
0.06
0.01
0.06
0.01
0.03
0.01
0.01
0.06
0.08
0.24
0.22
0.34
0.22
0.55
0.41
0.30
0.13
0.00
0.00
0.00
0.01
0.00
0.00
0.00
0.00
0.01
0.34
0.34
0.75
0.52
0.61
0.56
0.54
0.52
0.01
0.01
0.00
0.00
0.00
0.00
0.03
0.01
0.01
0.00
0.03
0.03
0.01
0.13
0.08
0.08
0.06
0.06
0.01
0.01
0.00
0.00
0.01
0.02
0.06
0.06
0.11
0.08
0.06
0.06
0.04
0.00
0.00
0.03
0.03
0.08
0.15
0.08
0.13
0.15
0.08
0.13
0.08
0.13
0.15
0.08
0.13
0.06
0.06
0.08
0.08
0.03
0.13
0.06
0.03
0.06
0.03
0.06
0.08
0.06
0.08
0.03
0.00
0.06
0.01
0.01
0.01
0.00
0.01
0.00
0.01
0.00
0.06
0.01
0.15
0.15
0.24
0.18
0.45
0.38
0.22
0.18
0.00
0.04
0.01
0.00
0.01
0.01
0.02
0.01
0.02
0.06
0.03
0.73
0.51
0.56
0.52
0.56
0.53
0.24
0.02
0.06
0.02
0.01
0.00
0.00
0.00
0.00
0.00
0.00
0.01
0.00
0.00
0.00
0.00
0.00
0.01
0.00
0.01
0.01
0.04
0.04
0.06
0.18
0.14
0.20
0.20
0.22
0.08
0.11
0.02
0.02
0.00
0.00
0.00
0.00
0.03
0.00
0.00
0.03
0.01
0.00
0.01
0.03
0.00
0.01
0.00
0.00
0.00
0.00
0.00
0.00
0.00
0.00
0.00
0.00
0.00
0.00
0.00
0.01
0.00
0.01
0.00
0.01
0.00
0.01
0.00
0.01
0.01
0.00
0.00
0.15
0.03
0.24
0.13
0.43
0.22
0.18
0.01
0.02
0.02
0.02
0.04
0.02
0.04
0.06
0.04
0.18
0.13
0.24
0.71
0.52
0.57
0.57
0.52
0.53
0.06
0.08
0.01
0.01
0.01
0.00
0.00
0.00
0.00
0.00
0.00
0.00
0.01
0.01
0.03
0.06
0.06
0.03
0.03
0.03
0.01
0.00
0.00
0.01
0.01
0.06
0.06
0.08
0.08
0.06
0.06
0.00
0.00
0.00
0.00
0.01
0.01
0.03
0.00
0.03
0.03
0.03
0.03
0.00
0.03
0.00
0.01
0.01
0.01
0.01
0.03
0.01
0.03
0.00
0.03
0.03
0.00
0.03
0.03
0.01
0.01
0.03
0.01
0.03
0.06
0.03
0.03
0.03
0.03
0.01
0.03
0.03
0.03
0.03
0.22
0.24
0.15
0.22
0.30
0.52
0.18
0.18
0.01
0.01
0.00
0.00
0.00
0.00
0.00
0.00
0.00
0.01
0.30
0.77
0.43
0.58
0.57
0.63
0.53
0.18
0.00
0.01
0.00
0.00
0.03
0.01
0.06
0.01
0.00
0.01
0.03
0.01
0.01
0.01
0.01
0.01
0.03
0.01
0.01
0.00
0.00
0.01
0.02
0.06
0.08
0.11
0.11
0.08
0.08
0.08
0.04
0.01
0.01
0.00
0.01
0.01
0.00
0.03
0.03
0.00
0.03
0.06
0.01
0.01
0.03
0.00
0.03
0.01
0.03
0.00
0.01
0.08
0.03
0.00
0.03
0.01
0.01
0.01
0.01
0.00
0.00
0.00
0.00
0.00
0.01
0.00
0.01
0.00
0.00
0.00
0.00
0.01
0.03
0.15
0.08
0.26
0.18
0.48
0.24
0.22
0.08
0.04
0.02
0.01
0.00
0.01
0.01
0.01
0.01
0.02
0.18
0.22
0.79
0.53
0.58
0.56
0.57
0.53
0.02
0.02
0.01
0.01
0.00
0.00
0.00
0.00
0.03
0.00
0.00
0.00
0.00
0.00
0.00
0.00
0.00
0.00
0.00
0.00
0.01
0.02
0.06
0.11
0.18
0.18
0.22
0.24
0.24
0.22
0.11
0.08
0.02
0.01
0.00
0.00
0.00
0.00
0.00
0.00
0.00
0.00
0.00
0.00
0.01
0.01
0.01
0.01
0.01
0.04
0.01
0.01
0.01
0.01
0.01
0.01
0.01
0.02
0.00
0.01
0.00
0.01
0.01
0.01
0.01
0.01
0.01
0.01
0.01
0.02
0.01
0.01
0.00
0.06
0.03
0.15
0.08
0.30
0.24
0.15
0.01
0.02
0.02
0.04
0.06
0.04
0.11
0.08
0.08
0.24
0.00
0.03
0.69
0.52
0.57
0.56
0.56
0.53
0.24
0.20
0.14
0.14
0.08
0.08
0.06
0.06
0.06
0.02
0.06
0.02
0.02
0.04
0.08
0.02
0.06
0.04
0.01
0.04
0.08
0.06
0.11
0.14
0.22
0.22
0.20
0.32
0.24
0.22
0.14
0.08
0.08
0.06
0.04
0.04
0.02
0.02
0.01
0.00
0.06
0.01
0.04
0.01
0.02
0.02
0.02
0.04
0.04
0.04
0.06
0.06
0.06
0.04
0.02
0.08
0.08
0.06
0.08
0.08
0.08
0.08
0.08
0.06
0.08
0.08
0.08
0.06
0.08
0.08
0.06
0.06
0.06
0.06
0.00
0.00
0.03
0.00
0.22
0.15
0.06
0.00
0.06
0.18
0.08
0.08
0.08
0.11
0.14
0.18
0.22
0.00
0.00
0.72
0.53
0.60
0.56
0.57
0.52
0.22
0.20
0.14
0.11
0.08
0.06
0.02
0.04
0.06
0.01
0.01
0.02
0.02
0.01
0.01
0.01
0.01
0.00
0.01
0.01
0.01
0.01
0.06
0.06
0.08
0.18
0.20
0.14
0.20
0.20
0.11
0.08
0.08
0.02
0.01
0.01
0.00
0.00
0.00
0.00
0.00
0.00
0.00
0.00
0.00
0.00
0.00
0.00
0.00
0.00
0.00
0.00
0.00
0.00
0.00
0.00
0.00
0.00
0.00
0.00
0.00
0.01
0.00
0.00
0.00
0.00
0.00
0.00
0.00
0.01
0.00
0.00
0.00
0.00
0.00
0.00
0.01
0.15
0.03
0.26
0.15
0.43
0.15
0.15
0.00
0.04
0.01
0.01
0.01
0.01
0.02
0.01
0.01
0.06
0.22
0.38
0.71
0.52
0.64
0.56
0.54
0.53
0.06
0.02
0.04
0.01
0.01
0.00
0.01
0.01
0.00
0.01
0.00
0.00
0.00
0.00
0.00
0.00
0.01
0.00
0.00
0.00
0.00
0.01
0.01
0.04
0.08
0.11
0.18
0.20
0.22
0.18
0.11
0.06
0.08
0.01
0.01
0.00
0.00
0.00
0.00
0.00
0.00
0.00
0.00
0.00
0.00
0.01
0.01
0.00
0.01
0.00
0.00
0.01
0.01
0.01
0.01
0.00
0.00
0.00
0.00
0.00
0.01
0.00
0.01
0.00
0.00
0.00
0.01
0.01
0.00
0.02
0.01
0.01
0.01
0.01
0.00
0.00
0.08
0.00
0.13
0.24
0.38
0.15
0.08
0.00
0.08
0.02
0.04
0.01
0.06
0.04
0.04
0.06
0.08
0.08
0.45
0.55
0.53
0.58
0.57
0.52
0.52
0.08
0.04
0.02
0.02
0.04
0.01
0.00
0.01
0.00
0.01
0.00
0.00
0.00
0.00
0.00
0.00
0.01
0.00
0.01
0.02
0.04
0.04
0.11
0.11
0.20
0.22
0.22
0.20
0.18
0.20
0.08
0.06
0.01
0.01
0.00
0.00
0.00
0.00
0.00
0.01
0.00
0.00
0.00
0.00
0.00
0.00
0.00
0.01
0.00
0.00
0.00
0.01
0.00
0.01
0.00
0.00
0.01
0.01
0.00
0.00
0.02
0.01
0.01
0.04
0.01
0.01
0.00
0.01
0.01
0.01
0.02
0.01
0.01
0.02
0.01
0.00
0.08
0.01
0.13
0.08
0.34
0.26
0.13
0.00
0.02
0.04
0.08
0.04
0.06
0.14
0.08
0.14
0.22
0.00
0.00
0.69
0.53
0.58
0.56
0.56
0.52
0.32
0.22
0.18
0.18
0.14
0.06
0.08
0.04
0.06
0.04
0.01
0.02
0.01
0.01
0.01
0.00
0.00
0.00
0.00
0.00
0.00
0.00
0.01
0.01
0.01
0.04
0.02
0.02
0.04
0.01
0.02
0.00
0.00
0.00
0.00
0.00
0.03
0.00
0.03
0.03
0.01
0.01
0.06
0.03
0.00
0.01
0.01
0.00
0.00
0.00
0.00
0.00
0.00
0.00
0.00
0.00
0.00
0.00
0.00
0.00
0.00
0.00
0.00
0.00
0.00
0.00
0.00
0.00
0.00
0.00
0.00
0.00
0.00
0.00
0.06
0.15
0.15
0.18
0.45
0.34
0.24
0.18
0.00
0.01
0.02
0.00
0.01
0.02
0.08
0.01
0.04
0.01
0.15
0.76
0.52
0.57
0.56
0.57
0.53
0.11
0.02
0.01
0.00
0.00
0.00
0.00
0.00
0.01
0.00
0.03
0.01
0.06
0.01
0.13
0.06
0.06
0.08
0.08
0.03
0.06
0.06
0.00
0.00
0.01
0.01
0.04
0.04
0.06
0.08
0.06
0.01
0.00
0.00
0.00
0.01
0.06
0.06
0.08
0.06
0.08
0.06
0.08
0.06
0.08
0.06
0.08
0.06
0.06
0.03
0.06
0.03
0.08
0.06
0.03
0.06
0.03
0.03
0.03
0.03
0.03
0.00
0.01
0.01
0.00
0.00
0.01
0.00
0.01
0.00
0.00
0.01
0.00
0.03
0.01
0.01
0.03
0.06
0.26
0.08
0.38
0.18
0.50
0.30
0.22
0.01
0.04
0.01
0.01
0.01
0.00
0.01
0.01
0.01
0.08
0.26
0.26
0.75
0.52
0.63
0.56
0.54
0.52
0.08
0.04
0.02
0.01
0.00
0.00
0.00
0.00
0.00
0.00
0.00
0.00
0.00
0.00
0.00
0.00
0.00
0.01
0.00
0.00
0.00
0.01
0.01
0.06
0.08
0.11
0.20
0.11
0.20
0.14
0.08
0.06
0.02
0.01
0.00
0.00
0.03
0.01
0.06
0.01
0.01
0.06
0.00
0.03
0.00
0.00
0.01
0.00
0.03
0.00
0.00
0.00
0.00
0.00
0.00
0.00
0.00
0.00
0.00
0.00
0.00
0.00
0.00
0.00
0.01
0.00
0.01
0.01
0.01
0.00
0.01
0.01
0.00
0.02
0.00
0.01
0.01
0.06
0.03
0.38
0.08
0.15
0.00
0.06
0.08
0.08
0.06
0.08
0.18
0.11
0.18
0.20
0.00
0.00
0.74
0.52
0.58
0.56
0.56
0.53
0.18
0.22
0.14
0.14
0.11
0.04
0.08
0.08
0.06
0.08
0.06
0.08
0.06
0.01
0.08
0.02
0.04
0.01
0.08
0.08
0.08
0.11
0.14
0.20
0.24
0.22
0.22
0.26
0.22
0.18
0.11
0.08
0.04
0.02
0.00
0.01
0.00
0.00
0.01
0.00
0.00
0.00
0.01
0.01
0.00
0.00
0.01
0.01
0.01
0.01
0.01
0.01
0.01
0.01
0.02
0.01
0.02
0.01
0.01
0.02
0.04
0.04
0.02
0.08
0.04
0.02
0.06
0.06
0.02
0.11
0.04
0.08
0.08
0.02
0.00
0.00
0.00
0.26
0.08
0.06
0.00
0.11
0.14
0.11
0.11
0.18
0.18
0.18
0.22
0.32
0.01
0.00
0.68
0.54
0.66
0.57
0.56
0.53
0.24
0.20
0.11
0.14
0.06
0.02
0.06
0.01
0.02
0.01
0.01
0.00
0.00
0.00
0.00
0.00
0.00
0.00
0.00
0.00
0.00
0.00
0.02
0.02
0.08
0.08
0.08
0.18
0.14
0.14
0.11
0.11
0.08
0.06
0.06
0.02
0.02
0.01
0.01
0.00
0.00
0.01
0.00
0.01
0.00
0.00
0.00
0.01
0.01
0.00
0.01
0.01
0.00
0.00
0.01
0.01
0.01
0.01
0.00
0.01
0.00
0.00
0.01
0.00
0.00
0.00
0.00
0.00
0.00
0.01
0.00
0.00
0.00
0.00
0.00
0.00
0.13
0.13
0.24
0.18
0.43
0.26
0.22
0.13
0.00
0.01
0.01
0.00
0.00
0.01
0.01
0.00
0.02
0.22
0.26
0.76
0.53
0.61
0.56
0.54
0.53
0.00
0.00
0.00
0.01
0.03
0.01
0.06
0.06
0.01
0.03
0.08
0.06
0.06
0.08
0.13
0.08
0.13
0.03
0.13
0.13
0.06
0.01
0.00
0.00
0.01
0.02
0.02
0.06
0.02
0.06
0.04
0.01
0.00
0.00
0.01
0.03
0.06
0.06
0.13
0.03
0.03
0.03
0.08
0.06
0.03
0.03
0.13
0.08
0.08
0.13
0.08
0.08
0.08
0.13
0.06
0.15
0.08
0.13
0.13
0.08
0.15
0.13
0.13
0.15
0.08
0.08
0.13
0.08
0.06
0.06
0.08
0.13
0.13
0.13
0.15
0.34
0.22
0.38
0.43
0.55
0.26
0.26
0.03
0.00
0.00
0.00
0.00
0.00
0.00
0.00
0.00
0.00
0.22
0.71
0.00
0.56
0.58
0.62
0.53
0.38
0.01
0.01
0.00
0.00
0.03
0.01
0.03
0.06
0.03
0.08
0.03
0.08
0.08
0.06
0.08
0.08
0.08
0.13
0.03
0.01
0.00
0.00
0.01
0.04
0.06
0.08
0.08
0.11
0.08
0.08
0.04
0.02
0.00
0.00
0.00
0.03
0.06
0.00
0.08
0.03
0.06
0.01
0.03
0.03
0.00
0.03
0.01
0.01
0.03
0.00
0.03
0.00
0.00
0.03
0.00
0.00
0.01
0.00
0.00
0.00
0.00
0.00
0.00
0.00
0.00
0.00
0.00
0.01
0.00
0.00
0.01
0.00
0.01
0.00
0.00
0.13
0.00
0.26
0.22
0.38
0.18
0.13
0.01
0.02
0.02
0.06
0.02
0.04
0.02
0.06
0.08
0.04
0.00
0.66
0.38
0.56
0.56
0.63
0.53
0.48
0.11
0.11
0.08
0.08
0.04
0.04
0.08
0.04
0.04
0.01
0.04
0.01
0.04
0.06
0.00
0.01
0.01
0.01
0.02
0.04
0.08
0.08
0.11
0.20
0.20
0.22
0.20
0.20
0.14
0.14
0.08
0.04
0.02
0.01
0.00
0.00
0.00
0.00
0.00
0.00
0.00
0.00
0.00
0.00
0.01
0.00
0.01
0.01
0.01
0.00
0.00
0.01
0.00
0.00
0.01
0.01
0.00
0.01
0.02
0.01
0.01
0.02
0.02
0.04
0.04
0.01
0.01
0.01
0.04
0.06
0.01
0.04
0.01
0.01
0.00
0.15
0.03
0.24
0.22
0.08
0.00
0.08
0.11
0.14
0.11
0.14
0.14
0.14
0.18
0.32
0.00
0.06
0.65
0.56
0.62
0.57
0.53
0.53
0.14
0.14
0.11
0.06
0.02
0.02
0.04
0.01
0.01
0.01
0.01
0.01
0.01
0.00
0.00
0.00
0.00
0.00
0.00
0.01
0.00
0.01
0.02
0.04
0.04
0.08
0.11
0.14
0.08
0.11
0.08
0.06
0.04
0.04
0.01
0.00
0.00
0.00
0.00
0.00
0.01
0.00
0.00
0.00
0.01
0.00
0.00
0.01
0.00
0.01
0.00
0.01
0.00
0.00
0.00
0.00
0.00
0.00
0.00
0.00
0.00
0.00
0.00
0.00
0.00
0.00
0.00
0.00
0.00
0.00
0.00
0.00
0.00
0.00
0.03
0.18
0.13
0.24
0.22
0.45
0.30
0.24
0.03
0.01
0.01
0.02
0.01
0.01
0.01
0.02
0.02
0.06
0.15
0.34
0.69
0.52
0.69
0.58
0.56
0.52
0.08
0.08
0.06
0.06
0.02
0.02
0.02
0.01
0.01
0.01
0.01
0.00
0.00
0.01
0.00
0.00
0.00
0.00
0.00
0.00
0.01
0.01
0.01
0.06
0.08
0.14
0.11
0.18
0.14
0.18
0.14
0.06
0.02
0.01
0.01
0.00
0.00
0.00
0.00
0.00
0.01
0.01
0.01
0.00
0.00
0.00
0.01
0.01
0.01
0.00
0.03
0.00
0.00
0.03
0.00
0.01
0.00
0.00
0.00
0.01
0.00
0.00
0.00
0.00
0.00
0.00
0.00
0.00
0.00
0.00
0.00
0.00
0.00
0.00
0.01
0.00
0.00
0.03
0.15
0.03
0.24
0.22
0.43
0.08
0.15
0.00
0.04
0.01
0.01
0.00
0.01
0.01
0.01
0.02
0.01
0.18
0.69
0.02
0.56
0.57
0.62
0.53
0.43
0.06
0.04
0.02
0.01
0.00
0.00
0.00
0.00
0.00
0.00
0.00
0.00
0.00
0.00
0.00
0.00
0.00
0.00
0.00
0.00
0.01
0.04
0.04
0.08
0.14
0.18
0.22
0.22
0.20
0.14
0.08
0.06
0.04
0.01
0.00
0.00
0.00
0.00
0.00
0.01
0.06
0.00
0.00
0.01
0.00
0.00
0.00
0.00
0.00
0.00
0.00
0.00
0.01
0.00
0.01
0.00
0.04
0.01
0.01
0.02
0.04
0.04
0.01
0.04
0.04
0.01
0.02
0.04
0.04
0.01
0.01
0.08
0.02
0.02
0.00
0.00
0.08
0.03
0.30
0.26
0.08
0.13
0.02
0.02
0.08
0.04
0.06
0.06
0.08
0.02
0.08
0.00
0.00
0.73
0.51
0.56
0.54
0.56
0.53
0.26
0.08
0.02
0.01
0.02
0.02
0.00
0.01
0.01
0.01
0.01
0.01
0.00
0.01
0.00
0.01
0.01
0.00
0.00
0.02
0.02
0.06
0.04
0.08
0.11
0.11
0.20
0.18
0.18
0.11
0.11
0.11
0.04
0.01
0.01
0.00
0.00
0.01
0.01
0.00
0.00
0.00
0.00
0.00
0.00
0.00
0.00
0.00
0.00
0.01
0.00
0.01
0.01
0.00
0.01
0.00
0.00
0.01
0.01
0.01
0.01
0.00
0.00
0.00
0.01
0.01
0.00
0.01
0.01
0.01
0.01
0.02
0.01
0.00
0.00
0.06
0.08
0.13
0.38
0.30
0.18
0.15
0.01
0.04
0.06
0.04
0.08
0.08
0.08
0.14
0.14
0.00
0.00
0.71
0.53
0.58
0.56
0.57
0.53
0.38
0.08
0.08
0.06
0.02
0.02
0.01
0.01
0.00
0.00
0.00
0.00
0.00
0.00
0.00
0.00
0.00
0.00
0.00
0.01
0.00
0.00
0.00
0.00
0.04
0.06
0.06
0.08
0.08
0.08
0.06
0.02
0.01
0.01
0.00
0.00
0.00
0.00
0.01
0.01
0.01
0.03
0.03
0.06
0.03
0.03
0.03
0.03
0.06
0.01
0.03
0.00
0.00
0.00
0.00
0.00
0.00
0.00
0.00
0.00
0.00
0.00
0.00
0.00
0.00
0.00
0.00
0.00
0.00
0.00
0.00
0.00
0.00
0.00
0.00
0.08
0.18
0.06
0.18
0.41
0.38
0.24
0.13
0.00
0.04
0.01
0.00
0.01
0.00
0.01
0.01
0.01
0.03
0.22
0.76
0.48
0.58
0.57
0.64
0.53
0.22
0.02
0.00
0.00
0.00
0.01
0.06
0.01
0.00
0.06
0.03
0.08
0.06
0.15
0.08
0.18
0.18
0.15
0.18
0.18
0.18
0.15
0.08
0.03
0.03
0.00
0.00
0.01
0.01
0.01
0.00
0.00
0.01
0.03
0.08
0.15
0.13
0.15
0.18
0.18
0.15
0.15
0.06
0.08
0.08
0.08
0.06
0.13
0.06
0.06
0.06
0.06
0.06
0.03
0.06
0.03
0.03
0.03
0.08
0.03
0.06
0.03
0.01
0.03
0.00
0.01
0.00
0.00
0.00
0.00
0.00
0.00
0.00
0.00
0.00
0.00
0.00
0.06
0.08
0.15
0.22
0.30
0.45
0.13
0.15
0.00
0.08
0.01
0.02
0.01
0.01
0.04
0.01
0.01
0.01
0.22
0.65
0.13
0.54
0.58
0.58
0.52
0.48
0.01
0.01
0.01
0.00
0.00
0.01
0.00
0.00
0.01
0.01
0.03
0.00
0.06
0.06
0.13
0.08
0.06
0.06
0.06
0.00
0.00
0.00
0.00
0.06
0.04
0.11
0.11
0.18
0.08
0.08
0.06
0.01
0.01
0.00
0.00
0.03
0.01
0.03
0.01
0.06
0.01
0.03
0.06
0.03
0.03
0.00
0.06
0.01
0.03
0.06
0.01
0.01
0.03
0.08
0.08
0.03
0.08
0.06
0.06
0.03
0.03
0.08
0.01
0.08
0.06
0.01
0.01
0.03
0.01
0.06
0.01
0.00
0.00
0.03
0.01
0.08
0.06
0.22
0.18
0.30
0.22
0.48
0.24
0.15
0.08
0.01
0.02
0.01
0.00
0.01
0.01
0.01
0.01
0.11
0.06
0.08
0.76
0.53
0.56
0.53
0.53
0.53
0.08
0.08
0.04
0.06
0.01
0.02
0.00
0.01
0.01
0.01
0.00
0.00
0.00
0.00
0.00
0.00
0.00
0.00
0.01
0.01
0.00
0.02
0.06
0.06
0.14
0.14
0.14
0.14
0.14
0.18
0.06
0.04
0.01
0.00
0.01
0.00
0.01
0.01
0.01
0.00
0.03
0.01
0.00
0.00
0.00
0.00
0.00
0.01
0.00
0.00
0.00
0.00
0.00
0.00
0.00
0.00
0.00
0.00
0.00
0.00
0.00
0.00
0.00
0.01
0.00
0.00
0.00
0.00
0.00
0.00
0.01
0.01
0.00
0.00
0.06
0.00
0.18
0.08
0.30
0.13
0.08
0.00
0.08
0.04
0.06
0.06
0.08
0.08
0.08
0.08
0.08
0.00
0.55
0.01
0.56
0.57
0.57
0.53
0.52
0.02
0.04
0.06
0.02
0.01
0.01
0.00
0.01
0.01
0.01
0.01
0.01
0.01
0.01
0.00
0.01
0.00
0.01
0.01
0.01
0.02
0.02
0.06
0.08
0.14
0.11
0.14
0.20
0.18
0.14
0.08
0.08
0.02
0.01
0.01
0.00
0.00
0.00
0.00
0.00
0.00
0.00
0.01
0.01
0.03
0.00
0.03
0.03
0.00
0.03
0.00
0.03
0.01
0.01
0.01
0.01
0.01
0.00
0.01
0.01
0.01
0.03
0.00
0.03
0.01
0.03
0.01
0.03
0.01
0.01
0.01
0.03
0.00
0.03
0.03
0.06
0.22
0.22
0.34
0.15
0.55
0.24
0.18
0.06
0.01
0.01
0.02
0.00
0.00
0.01
0.01
0.01
0.04
0.24
0.34
0.76
0.52
0.63
0.56
0.54
0.52
0.01
0.01
0.00
0.00
0.01
0.00
0.00
0.01
0.03
0.01
0.03
0.03
0.08
0.03
0.06
0.08
0.15
0.06
0.13
0.08
0.08
0.01
0.01
0.00
0.01
0.02
0.04
0.06
0.08
0.02
0.04
0.01
0.00
0.00
0.00
0.01
0.06
0.06
0.06
0.06
0.08
0.03
0.06
0.06
0.03
0.01
0.08
0.03
0.03
0.03
0.03
0.03
0.03
0.06
0.01
0.00
0.03
0.03
0.01
0.00
0.00
0.01
0.00
0.01
0.00
0.00
0.00
0.00
0.00
0.00
0.00
0.00
0.00
0.00
0.00
0.00
0.00
0.00
0.00
0.00
0.06
0.18
0.06
0.22
0.18
0.45
0.08
0.18
0.00
0.02
0.04
0.00
0.00
0.01
0.01
0.01
0.01
0.00
0.13
0.71
0.20
0.56
0.56
0.63
0.53
0.35
0.04
0.04
0.00
0.00
0.00
0.00
0.00
0.00
0.00
0.00
0.00
0.01
0.00
0.03
0.00
0.00
0.00
0.00
0.00
0.00
0.01
0.04
0.08
0.08
0.14
0.24
0.20
0.18
0.18
0.14
0.08
0.04
0.02
0.00
0.01
0.00
0.00
0.00
0.00
0.00
0.00
0.03
0.00
0.00
0.00
0.00
0.00
0.00
0.00
0.00
0.01
0.00
0.00
0.00
0.03
0.00
0.00
0.00
0.00
0.00
0.00
0.00
0.00
0.00
0.00
0.00
0.00
0.00
0.00
0.00
0.01
0.00
0.00
0.00
0.00
0.13
0.01
0.15
0.08
0.41
0.08
0.06
0.01
0.06
0.06
0.04
0.06
0.08
0.08
0.08
0.08
0.06
0.00
0.58
0.18
0.56
0.54
0.57
0.52
0.49
0.06
0.11
0.06
0.04
0.04
0.04
0.02
0.01
0.02
0.01
0.00
0.02
0.01
0.00
0.00
0.00
0.00
0.00
0.00
0.01
0.01
0.04
0.04
0.04
0.08
0.08
0.11
0.14
0.08
0.06
0.06
0.04
0.01
0.01
0.01
0.00
0.00
0.01
0.00
0.01
0.00
0.00
0.01
0.01
0.01
0.00
0.01
0.00
0.01
0.01
0.01
0.01
0.01
0.02
0.00
0.01
0.01
0.01
0.00
0.00
0.01
0.00
0.00
0.01
0.00
0.00
0.00
0.00
0.00
0.00
0.00
0.00
0.00
0.00
0.13
0.15
0.18
0.18
0.26
0.48
0.18
0.18
0.00
0.02
0.01
0.00
0.01
0.01
0.01
0.02
0.02
0.00
0.13
0.71
0.39
0.56
0.56
0.57
0.53
0.39
0.02
0.04
0.02
0.01
0.01
0.02
0.00
0.00
0.00
0.00
0.00
0.00
0.00
0.00
0.00
0.00
0.01
0.00
0.01
0.00
0.00
0.00
0.01
0.02
0.04
0.04
0.08
0.08
0.08
0.11
0.08
0.02
0.01
0.01
0.00
0.00
0.00
0.00
0.00
0.01
0.00
0.01
0.03
0.00
0.03
0.01
0.03
0.00
0.01
0.00
0.01
0.00
0.01
0.00
0.00
0.00
0.00
0.00
0.00
0.00
0.00
0.00
0.00
0.00
0.00
0.00
0.00
0.00
0.00
0.00
0.00
0.00
0.00
0.01
0.01
0.18
0.15
0.26
0.13
0.43
0.30
0.13
0.03
0.02
0.06
0.01
0.01
0.01
0.02
0.01
0.01
0.04
0.13
0.13
0.79
0.53
0.60
0.56
0.57
0.53
0.04
0.02
0.04
0.00
0.00
0.00
0.00
0.00
0.00
0.00
0.00
0.01
0.00
0.00
0.01
0.01
0.00
0.00
0.01
0.00
0.01
0.00
0.04
0.04
0.11
0.14
0.20
0.18
0.22
0.22
0.14
0.08
0.02
0.02
0.00
0.00
0.00
0.00
0.00
0.01
0.00
0.00
0.00
0.00
0.00
0.00
0.00
0.00
0.00
0.00
0.00
0.01
0.01
0.01
0.00
0.03
0.01
0.03
0.00
0.01
0.00
0.00
0.00
0.00
0.00
0.00
0.00
0.01
0.00
0.00
0.00
0.00
0.00
0.01
0.00
0.06
0.00
0.15
0.03
0.38
0.13
0.08
0.00
0.08
0.08
0.14
0.04
0.08
0.04
0.11
0.08
0.11
0.03
0.26
0.57
0.54
0.60
0.57
0.52
0.52
0.14
0.11
0.06
0.04
0.01
0.01
0.01
0.01
0.01
0.00
0.00
0.00
0.00
0.01
0.00
0.00
0.00
0.01
0.02
0.01
0.08
0.08
0.11
0.18
0.22
0.22
0.24
0.26
0.22
0.20
0.14
0.08
0.06
0.04
0.01
0.01
0.01
0.00
0.00
0.00
0.01
0.00
0.00
0.01
0.00
0.00
0.00
0.00
0.00
0.00
0.00
0.00
0.00
0.00
0.00
0.00
0.00
0.00
0.01
0.00
0.00
0.01
0.00
0.01
0.01
0.04
0.01
0.04
0.04
0.02
0.04
0.06
0.06
0.02
0.00
0.00
0.00
0.06
0.08
0.22
0.00
0.08
0.02
0.08
0.08
0.08
0.08
0.08
0.14
0.08
0.14
0.11
0.00
0.48
0.11
0.56
0.56
0.58
0.53
0.50
0.14
0.11
0.11
0.06
0.06
0.04
0.06
0.02
0.02
0.02
0.08
0.01
0.02
0.01
0.06
0.00
0.01
0.04
0.04
0.04
0.04
0.06
0.08
0.08
0.18
0.18
0.14
0.18
0.11
0.11
0.08
0.06
0.04
0.01
0.01
0.01
0.00
0.00
0.00
0.00
0.00
0.01
0.01
0.00
0.00
0.00
0.00
0.01
0.01
0.01
0.00
0.02
0.01
0.02
0.01
0.02
0.04
0.02
0.04
0.02
0.06
0.01
0.02
0.04
0.04
0.02
0.04
0.01
0.01
0.02
0.02
0.01
0.01
0.02
0.00
0.03
0.00
0.18
0.13
0.41
0.06
0.13
0.00
0.08
0.06
0.01
0.02
0.04
0.06
0.06
0.08
0.08
0.03
0.55
0.26
0.54
0.58
0.57
0.52
0.51
0.06
0.08
0.04
0.04
0.01
0.01
0.00
0.00
0.01
0.01
0.00
0.00
0.00
0.01
0.01
0.01
0.01
0.01
0.00
0.00
0.00
0.00
0.01
0.01
0.04
0.06
0.06
0.08
0.11
0.08
0.08
0.04
0.01
0.00
0.00
0.00
0.00
0.00
0.00
0.00
0.00
0.00
0.00
0.01
0.00
0.00
0.00
0.00
0.00
0.00
0.00
0.00
0.00
0.00
0.00
0.00
0.00
0.00
0.00
0.00
0.00
0.00
0.00
0.00
0.01
0.00
0.01
0.00
0.00
0.00
0.00
0.00
0.00
0.00
0.00
0.03
0.15
0.01
0.18
0.13
0.45
0.03
0.08
0.00
0.08
0.02
0.04
0.02
0.01
0.04
0.02
0.04
0.04
0.15
0.62
0.26
0.56
0.58
0.61
0.53
0.47
0.01
0.04
0.01
0.00
0.00
0.00
0.00
0.00
0.00
0.00
0.00
0.01
0.03
0.00
0.00
0.00
0.00
0.00
0.00
0.00
0.01
0.01
0.04
0.06
0.08
0.08
0.20
0.14
0.20
0.18
0.11
0.06
0.02
0.01
0.00
0.00
0.00
0.01
0.01
0.00
0.00
0.00
0.01
0.00
0.00
0.01
0.00
0.00
0.01
0.01
0.00
0.01
0.01
0.01
0.00
0.01
0.00
0.01
0.00
0.00
0.00
0.00
0.00
0.00
0.00
0.00
0.00
0.00
0.00
0.01
0.00
0.00
0.00
0.00
0.00
0.00
0.00
0.01
0.00
0.00
0.00
0.01
0.18
0.08
0.22
0.08
0.43
0.15
0.06
0.00
0.06
0.06
0.04
0.01
0.02
0.06
0.04
0.06
0.14
0.13
0.01
0.75
0.53
0.57
0.54
0.56
0.53
0.08
0.08
0.04
0.02
0.01
0.01
0.01
0.01
0.00
0.00
0.01
0.00
0.00
0.00
0.00
0.00
0.00
0.01
0.01
0.04
0.02
0.08
0.08
0.18
0.20
0.22
0.35
0.35
0.35
0.26
0.22
0.11
0.11
0.08
0.04
0.01
0.00
0.00
0.00
0.00
0.00
0.01
0.01
0.00
0.00
0.01
0.00
0.00
0.02
0.01
0.01
0.01
0.01
0.02
0.01
0.01
0.00
0.00
0.02
0.01
0.01
0.01
0.01
0.01
0.01
0.04
0.01
0.04
0.02
0.01
0.04
0.04
0.02
0.01
0.01
0.00
0.06
0.01
0.15
0.18
0.00
0.00
0.08
0.14
0.08
0.06
0.08
0.14
0.06
0.11
0.22
0.00
0.00
0.71
0.53
0.57
0.56
0.56
0.52
0.24
0.11
0.08
0.08
0.01
0.01
0.01
0.01
0.01
0.00
0.00
0.01
0.02
0.00
0.00
0.00
0.00
0.00
0.01
0.00
0.01
0.00
0.04
0.01
0.08
0.06
0.11
0.11
0.08
0.11
0.06
0.02
0.02
0.01
0.00
0.00
0.01
0.01
0.00
0.00
0.00
0.00
0.01
0.01
0.00
0.00
0.00
0.00
0.00
0.00
0.00
0.00
0.00
0.00
0.00
0.00
0.00
0.00
0.00
0.00
0.00
0.00
0.00
0.00
0.00
0.00
0.00
0.00
0.00
0.01
0.01
0.01
0.01
0.01
0.01
0.08
0.01
0.18
0.15
0.41
0.06
0.13
0.01
0.04
0.04
0.02
0.04
0.04
0.06
0.06
0.08
0.11
0.01
0.50
0.24
0.53
0.57
0.57
0.53
0.52
0.04
0.04
0.02
0.01
0.00
0.00
0.00
0.00
0.00
0.00
0.00
0.00
0.00
0.00
0.00
0.01
0.00
0.01
0.00
0.00
0.00
0.00
0.01
0.02
0.08
0.08
0.08
0.14
0.11
0.08
0.08
0.06
0.01
0.00
0.00
0.00
0.00
0.01
0.01
0.03
0.03
0.06
0.03
0.06
0.06
0.03
0.03
0.03
0.06
0.03
0.08
0.06
0.03
0.03
0.03
0.01
0.01
0.01
0.00
0.03
0.00
0.06
0.01
0.03
0.00
0.01
0.00
0.03
0.01
0.00
0.00
0.01
0.00
0.01
0.00
0.00
0.00
0.01
0.15
0.13
0.26
0.15
0.50
0.18
0.15
0.06
0.02
0.01
0.01
0.00
0.00
0.02
0.01
0.01
0.08
0.26
0.24
0.77
0.53
0.58
0.54
0.56
0.52
0.01
0.01
0.00
0.00
0.01
0.01
0.01
0.03
0.03
0.03
0.13
0.06
0.06
0.08
0.13
0.08
0.15
0.13
0.08
0.06
0.06
0.00
0.00
0.00
0.01
0.04
0.04
0.06
0.06
0.04
0.04
0.01
0.00
0.00
0.01
0.13
0.06
0.08
0.08
0.13
0.06
0.06
0.06
0.03
0.03
0.01
0.06
0.00
0.06
0.03
0.03
0.03
0.03
0.01
0.00
0.03
0.00
0.03
0.01
0.03
0.01
0.01
0.06
0.03
0.01
0.01
0.03
0.01
0.01
0.01
0.00
0.01
0.03
0.01
0.01
0.00
0.06
0.00
0.06
0.22
0.15
0.34
0.15
0.52
0.30
0.15
0.08
0.01
0.01
0.00
0.00
0.00
0.01
0.00
0.00
0.01
0.26
0.13
0.79
0.53
0.57
0.53
0.54
0.53
0.00
0.01
0.02
0.00
0.00
0.00
0.00
0.00
0.00
0.00
0.01
0.00
0.00
0.00
0.00
0.00
0.00
0.00
0.00
0.00
0.02
0.04
0.08
0.20
0.18
0.26
0.32
0.26
0.26
0.26
0.18
0.14
0.08
0.06
0.06
0.04
0.01
0.01
0.01
0.01
0.02
0.01
0.01
0.01
0.02
0.01
0.01
0.01
0.01
0.01
0.01
0.01
0.00
0.01
0.01
0.01
0.01
0.01
0.01
0.01
0.01
0.01
0.00
0.01
0.01
0.02
0.01
0.01
0.01
0.01
0.02
0.01
0.02
0.02
0.01
0.03
0.00
0.13
0.00
0.34
0.03
0.00
0.01
0.11
0.11
0.11
0.11
0.11
0.14
0.20
0.20
0.38
0.01
0.03
0.52
0.53
0.56
0.58
0.53
0.53
0.20
0.18
0.18
0.11
0.08
0.04
0.08
0.04
0.06
0.04
0.06
0.06
0.04
0.08
0.04
0.04
0.01
0.04
0.02
0.06
0.06
0.08
0.08
0.14
0.20
0.26
0.24
0.22
0.20
0.08
0.11
0.11
0.04
0.02
0.01
0.01
0.01
0.00
0.01
0.00
0.00
0.00
0.00
0.00
0.00
0.01
0.00
0.00
0.00
0.01
0.00
0.01
0.01
0.01
0.01
0.04
0.02
0.04
0.02
0.08
0.02
0.04
0.06
0.02
0.08
0.06
0.08
0.08
0.11
0.08
0.11
0.08
0.08
0.04
0.00
0.00
0.03
0.08
0.22
0.08
0.03
0.01
0.06
0.08
0.08
0.08
0.11
0.14
0.08
0.14
0.24
0.00
0.26
0.41
0.54
0.58
0.57
0.52
0.52
0.14
0.14
0.08
0.06
0.04
0.04
0.04
0.01
0.02
0.01
0.01
0.01
0.01
0.00
0.00
0.00
0.00
0.00
0.00
0.01
0.01
0.01
0.02
0.04
0.06
0.08
0.14
0.11
0.11
0.11
0.08
0.04
0.01
0.00
0.00
0.03
0.00
0.03
0.00
0.08
0.01
0.06
0.03
0.01
0.03
0.01
0.01
0.01
0.06
0.01
0.00
0.01
0.00
0.00
0.00
0.00
0.00
0.00
0.00
0.00
0.00
0.00
0.00
0.00
0.00
0.00
0.01
0.00
0.00
0.00
0.00
0.00
0.00
0.00
0.00
0.01
0.15
0.01
0.22
0.13
0.43
0.08
0.15
0.01
0.06
0.04
0.02
0.02
0.02
0.04
0.02
0.06
0.01
0.08
0.70
0.20
0.56
0.57
0.66
0.53
0.40
0.06
0.08
0.01
0.02
0.01
0.01
0.01
0.00
0.00
0.00
0.00
0.00
0.00
0.00
0.00
0.00
0.00
0.00
0.00
0.00
0.01
0.02
0.08
0.11
0.18
0.20
0.22
0.22
0.22
0.18
0.14
0.08
0.02
0.02
0.00
0.00
0.00
0.00
0.00
0.00
0.00
0.00
0.00
0.00
0.00
0.00
0.01
0.01
0.00
0.00
0.00
0.00
0.01
0.01
0.01
0.01
0.00
0.03
0.00
0.01
0.01
0.01
0.00
0.00
0.01
0.00
0.00
0.00
0.00
0.00
0.00
0.00
0.00
0.00
0.01
0.08
0.01
0.18
0.08
0.45
0.15
0.13
0.03
0.04
0.02
0.01
0.00
0.00
0.00
0.00
0.01
0.02
0.26
0.22
0.75
0.53
0.57
0.56
0.52
0.52
0.01
0.02
0.01
0.01
0.00
0.00
0.00
0.00
0.00
0.01
0.00
0.00
0.03
0.00
0.00
0.03
0.01
0.00
0.00
0.00
0.01
0.01
0.06
0.08
0.11
0.20
0.22
0.24
0.20
0.20
0.14
0.08
0.02
0.00
0.00
0.00
0.01
0.01
0.03
0.01
0.03
0.00
0.00
0.01
0.01
0.01
0.00
0.01
0.00
0.00
0.01
0.00
0.01
0.01
0.00
0.01
0.00
0.00
0.00
0.00
0.00
0.01
0.01
0.00
0.01
0.00
0.00
0.00
0.00
0.00
0.00
0.00
0.00
0.01
0.15
0.06
0.24
0.08
0.48
0.26
0.22
0.08
0.02
0.01
0.01
0.00
0.02
0.02
0.08
0.02
0.14
0.00
0.00
0.72
0.53
0.56
0.53
0.52
0.53
0.14
0.08
0.06
0.06
0.01
0.01
0.01
0.01
0.01
0.01
0.01
0.02
0.00
0.01
0.00
0.01
0.01
0.00
0.01
0.01
0.04
0.04
0.11
0.14
0.18
0.22
0.22
0.24
0.22
0.18
0.18
0.04
0.02
0.02
0.01
0.00
0.01
0.00
0.00
0.00
0.00
0.00
0.00
0.01
0.01
0.00
0.00
0.01
0.01
0.01
0.02
0.01
0.01
0.01
0.01
0.01
0.01
0.01
0.01
0.01
0.01
0.02
0.01
0.02
0.01
0.01
0.01
0.01
0.02
0.01
0.01
0.04
0.01
0.00
0.08
0.01
0.22
0.13
0.43
0.22
0.13
0.01
0.06
0.02
0.02
0.01
0.04
0.06
0.06
0.08
0.20
0.01
0.18
0.64
0.53
0.58
0.56
0.53
0.51
0.08
0.06
0.02
0.01
0.01
0.00
0.00
0.00
0.00
0.00
0.00
0.00
0.00
0.00
0.01
0.00
0.03
0.00
0.03
0.00
0.00
0.00
0.00
0.01
0.06
0.06
0.08
0.06
0.08
0.04
0.04
0.01
0.00
0.00
0.00
0.01
0.01
0.03
0.01
0.08
0.06
0.01
0.00
0.03
0.00
0.03
0.03
0.01
0.00
0.01
0.01
0.01
0.00
0.00
0.00
0.00
0.00
0.00
0.00
0.00
0.00
0.00
0.00
0.00
0.00
0.00
0.00
0.00
0.00
0.00
0.00
0.00
0.01
0.06
0.22
0.08
0.22
0.30
0.38
0.18
0.15
0.00
0.04
0.01
0.00
0.01
0.01
0.01
0.01
0.04
0.00
0.13
0.72
0.32
0.56
0.58
0.63
0.53
0.35
0.04
0.06
0.01
0.01
0.01
0.01
0.00
0.00
0.01
0.00
0.00
0.00
0.00
0.00
0.00
0.00
0.00
0.00
0.00
0.00
0.01
0.01
0.04
0.08
0.08
0.11
0.11
0.14
0.11
0.11
0.01
0.01
0.00
0.00
0.03
0.06
0.08
0.13
0.13
0.08
0.13
0.06
0.03
0.13
0.03
0.06
0.01
0.03
0.01
0.01
0.00
0.01
0.01
0.00
0.01
0.01
0.00
0.03
0.01
0.01
0.01
0.00
0.03
0.00
0.01
0.00
0.01
0.01
0.00
0.01
0.00
0.01
0.00
0.01
0.00
0.01
0.01
0.13
0.18
0.08
0.24
0.22
0.52
0.15
0.13
0.00
0.04
0.01
0.02
0.00
0.01
0.01
0.00
0.02
0.00
0.18
0.69
0.04
0.56
0.57
0.61
0.53
0.35
0.01
0.08
0.01
0.01
0.00
0.00
0.00
0.00
0.00
0.00
0.00
0.00
0.00
0.00
0.00
0.00
0.00
0.00
0.00
0.00
0.00
0.01
0.02
0.08
0.14
0.18
0.18
0.20
0.14
0.14
0.08
0.01
0.01
0.00
0.00
0.00
0.00
0.03
0.00
0.03
0.01
0.00
0.00
0.00
0.00
0.00
0.00
0.00
0.00
0.00
0.00
0.00
0.01
0.00
0.00
0.00
0.00
0.00
0.00
0.00
0.01
0.00
0.00
0.01
0.01
0.01
0.00
0.00
0.01
0.00
0.00
0.00
0.00
0.00
0.00
0.08
0.01
0.18
0.22
0.41
0.13
0.06
0.02
0.08
0.02
0.06
0.06
0.08
0.08
0.08
0.08
0.11
0.00
0.41
0.00
0.54
0.56
0.57
0.53
0.50
0.14
0.11
0.11
0.06
0.04
0.04
0.02
0.02
0.02
0.01
0.02
0.01
0.01
0.02
0.01
0.01
0.01
0.01
0.01
0.02
0.06
0.08
0.08
0.14
0.18
0.18
0.18
0.20
0.20
0.11
0.14
0.06
0.04
0.01
0.01
0.00
0.00
0.00
0.00
0.00
0.00
0.00
0.00
0.00
0.00
0.00
0.00
0.01
0.01
0.00
0.01
0.01
0.00
0.01
0.01
0.01
0.00
0.01
0.01
0.01
0.01
0.01
0.02
0.01
0.04
0.02
0.01
0.04
0.01
0.02
0.01
0.02
0.01
0.00
0.01
0.03
0.06
0.26
0.26
0.08
0.06
0.02
0.08
0.04
0.01
0.02
0.04
0.04
0.06
0.06
0.03
0.06
0.76
0.52
0.56
0.54
0.56
0.53
0.14
0.08
0.04
0.01
0.00
0.00
0.00
0.00
0.00
0.00
0.00
0.00
0.00
0.00
0.01
0.00
0.00
0.01
0.00
0.00
0.00
0.00
0.00
0.02
0.04
0.04
0.08
0.08
0.06
0.06
0.06
0.01
0.00
0.00
0.01
0.01
0.06
0.06
0.06
0.06
0.08
0.06
0.06
0.06
0.03
0.13
0.03
0.06
0.08
0.08
0.06
0.08
0.08
0.08
0.01
0.03
0.06
0.03
0.00
0.00
0.01
0.01
0.01
0.01
0.03
0.00
0.00
0.01
0.01
0.01
0.03
0.06
0.00
0.03
0.03
0.03
0.22
0.18
0.34
0.18
0.52
0.30
0.24
0.13
0.01
0.00
0.00
0.01
0.00
0.01
0.00
0.00
0.01
0.34
0.24
0.80
0.53
0.58
0.54
0.56
0.53
0.00
0.00
0.00
0.01
0.06
0.03
0.06
0.08
0.08
0.13
0.13
0.13
0.13
0.13
0.15
0.13
0.15
0.13
0.08
0.15
0.03
0.08
0.01
0.00
0.00
0.01
0.02
0.06
0.06
0.04
0.02
0.01
0.00
0.00
0.00
0.03
0.03
0.08
0.13
0.15
0.08
0.06
0.03
0.08
0.01
0.08
0.00
0.08
0.08
0.08
0.06
0.03
0.01
0.08
0.06
0.06
0.06
0.01
0.03
0.00
0.01
0.03
0.01
0.06
0.01
0.00
0.03
0.03
0.00
0.00
0.03
0.03
0.01
0.08
0.01
0.03
0.13
0.22
0.15
0.26
0.24
0.55
0.30
0.22
0.18
0.01
0.01
0.00
0.01
0.00
0.01
0.00
0.00
0.06
0.15
0.08
0.79
0.53
0.57
0.54
0.56
0.53
0.08
0.08
0.08
0.04
0.02
0.01
0.00
0.00
0.01
0.01
0.00
0.01
0.01
0.01
0.00
0.01
0.01
0.00
0.02
0.00
0.04
0.06
0.08
0.11
0.18
0.20
0.22
0.20
0.20
0.18
0.08
0.08
0.02
0.01
0.00
0.00
0.01
0.00
0.01
0.01
0.00
0.01
0.00
0.00
0.00
0.00
0.00
0.00
0.00
0.00
0.00
0.00
0.00
0.00
0.00
0.01
0.00
0.00
0.00
0.01
0.01
0.00
0.00
0.00
0.00
0.00
0.00
0.00
0.00
0.00
0.00
0.01
0.00
0.00
0.03
0.13
0.03
0.22
0.24
0.41
0.08
0.15
0.01
0.06
0.01
0.02
0.02
0.01
0.04
0.04
0.04
0.08
0.08
0.60
0.06
0.56
0.58
0.60
0.52
0.51
0.08
0.11
0.08
0.02
0.01
0.01
0.04
0.01
0.01
0.01
0.01
0.01
0.00
0.02
0.01
0.00
0.00
0.00
0.00
0.00
0.00
0.01
0.06
0.14
0.08
0.18
0.20
0.20
0.20
0.14
0.11
0.04
0.04
0.00
0.00
0.00
0.00
0.00
0.00
0.01
0.00
0.01
0.00
0.00
0.01
0.01
0.00
0.00
0.03
0.00
0.00
0.00
0.01
0.00
0.00
0.00
0.00
0.00
0.00
0.00
0.00
0.00
0.00
0.01
0.00
0.01
0.00
0.01
0.00
0.01
0.00
0.03
0.00
0.03
0.15
0.01
0.26
0.22
0.45
0.22
0.22
0.00
0.06
0.04
0.02
0.02
0.01
0.06
0.02
0.06
0.08
0.18
0.38
0.68
0.54
0.63
0.57
0.54
0.53
0.04
0.06
0.04
0.01
0.01
0.00
0.00
0.00
0.00
0.00
0.00
0.00
0.01
0.00
0.00
0.01
0.01
0.01
0.00
0.01
0.00
0.01
0.04
0.06
0.06
0.18
0.08
0.18
0.20
0.11
0.08
0.06
0.01
0.00
0.00
0.00
0.03
0.01
0.06
0.01
0.03
0.01
0.03
0.00
0.01
0.06
0.00
0.00
0.00
0.00
0.00
0.00
0.00
0.00
0.00
0.00
0.00
0.00
0.00
0.00
0.00
0.00
0.00
0.00
0.00
0.00
0.00
0.00
0.00
0.00
0.00
0.01
0.00
0.01
0.08
0.22
0.08
0.26
0.38
0.45
0.18
0.13
0.00
0.02
0.02
0.01
0.01
0.01
0.04
0.02
0.04
0.00
0.01
0.72
0.50
0.57
0.58
0.66
0.53
0.39
0.14
0.08
0.08
0.06
0.02
0.01
0.00
0.02
0.01
0.01
0.02
0.01
0.01
0.01
0.01
0.02
0.00
0.02
0.01
0.08
0.08
0.08
0.20
0.22
0.26
0.22
0.39
0.32
0.35
0.22
0.20
0.11
0.06
0.01
0.04
0.01
0.00
0.00
0.00
0.00
0.00
0.00
0.00
0.01
0.01
0.00
0.00
0.00
0.00
0.00
0.01
0.01
0.01
0.00
0.02
0.00
0.00
0.00
0.01
0.00
0.01
0.01
0.00
0.00
0.01
0.00
0.01
0.02
0.01
0.01
0.01
0.01
0.02
0.02
0.00
0.01
0.01
0.03
0.22
0.26
0.08
0.01
0.02
0.08
0.06
0.04
0.08
0.08
0.11
0.08
0.22
0.01
0.01
0.70
0.53
0.57
0.54
0.57
0.53
0.38
0.18
0.11
0.06
0.02
0.01
0.06
0.04
0.02
0.00
0.01
0.01
0.00
0.01
0.00
0.00
0.02
0.01
0.02
0.01
0.02
0.04
0.06
0.11
0.11
0.14
0.11
0.18
0.11
0.11
0.08
0.04
0.02
0.02
0.01
0.00
0.00
0.00
0.00
0.00
0.00
0.00
0.00
0.00
0.00
0.00
0.00
0.00
0.00
0.00
0.00
0.01
0.00
0.00
0.00
0.00
0.00
0.00
0.00
0.00
0.00
0.00
0.00
0.00
0.00
0.00
0.00
0.00
0.00
0.00
0.00
0.06
0.06
0.18
0.06
0.45
0.24
0.18
0.08
0.02
0.02
0.04
0.04
0.04
0.04
0.04
0.06
0.14
0.03
0.00
0.76
0.53
0.57
0.56
0.56
0.53
0.20
0.06
0.08
0.06
0.01
0.00
0.01
0.00
0.00
0.01
0.00
0.00
0.00
0.00
0.01
0.00
0.01
0.01
0.00
0.00
0.00
0.00
0.01
0.04
0.04
0.08
0.08
0.14
0.18
0.14
0.11
0.08
0.04
0.02
0.04
0.00
0.00
0.00
0.00
0.01
0.00
0.00
0.00
0.00
0.00
0.00
0.01
0.06
0.00
0.00
0.01
0.03
0.03
0.03
0.00
0.00
0.01
0.00
0.01
0.00
0.00
0.01
0.00
0.00
0.00
0.01
0.00
0.00
0.00
0.00
0.00
0.00
0.00
0.00
0.00
0.08
0.13
0.18
0.13
0.38
0.34
0.13
0.08
0.01
0.04
0.01
0.01
0.02
0.02
0.04
0.01
0.02
0.06
0.06
0.79
0.52
0.57
0.56
0.63
0.53
0.11
0.02
0.00
0.00
0.00
0.03
0.01
0.01
0.00
0.01
0.01
0.00
0.06
0.08
0.06
0.03
0.06
0.03
0.03
0.01
0.00
0.00
0.01
0.02
0.08
0.11
0.18
0.18
0.18
0.14
0.08
0.06
0.02
0.01
0.00
0.00
0.03
0.01
0.06
0.00
0.01
0.01
0.01
0.00
0.01
0.01
0.01
0.03
0.00
0.01
0.01
0.00
0.01
0.00
0.00
0.01
0.00
0.03
0.00
0.01
0.00
0.01
0.00
0.00
0.00
0.00
0.00
0.00
0.00
0.00
0.00
0.00
0.00
0.00
0.08
0.08
0.13
0.13
0.41
0.26
0.13
0.06
0.00
0.02
0.04
0.01
0.04
0.04
0.04
0.04
0.08
0.01
0.00
0.78
0.53
0.57
0.56
0.58
0.52
0.20
0.18
0.14
0.08
0.08
0.04
0.02
0.01
0.04
0.04
0.02
0.01
0.02
0.01
0.04
0.02
0.04
0.01
0.04
0.08
0.08
0.11
0.11
0.20
0.22
0.32
0.32
0.32
0.26
0.26
0.24
0.11
0.06
0.08
0.04
0.01
0.01
0.01
0.01
0.00
0.02
0.01
0.01
0.04
0.01
0.01
0.01
0.01
0.01
0.01
0.01
0.01
0.00
0.02
0.01
0.01
0.01
0.01
0.02
0.01
0.02
0.01
0.04
0.01
0.02
0.01
0.02
0.04
0.06
0.06
0.06
0.04
0.00
0.00
0.06
0.03
0.34
0.15
0.06
0.01
0.06
0.08
0.08
0.06
0.08
0.14
0.11
0.18
0.24
0.01
0.03
0.68
0.56
0.63
0.58
0.54
0.53
0.14
0.22
0.11
0.08
0.08
0.08
0.06
0.06
0.06
0.04
0.02
0.04
0.06
0.02
0.02
0.02
0.02
0.02
0.01
0.02
0.06
0.06
0.11
0.14
0.20
0.18
0.22
0.20
0.20
0.20
0.11
0.11
0.08
0.08
0.08
0.04
0.04
0.02
0.01
0.01
0.01
0.01
0.01
0.01
0.00
0.01
0.00
0.01
0.00
0.01
0.01
0.01
0.01
0.01
0.01
0.01
0.01
0.01
0.01
0.01
0.01
0.02
0.01
0.02
0.04
0.04
0.02
0.01
0.04
0.02
0.00
0.00
0.00
0.01
0.26
0.15
0.15
0.01
0.02
0.06
0.08
0.06
0.06
0.06
0.08
0.08
0.11
0.00
0.00
0.75
0.53
0.58
0.57
0.61
0.52
0.39
0.11
0.08
0.06
0.06
0.02
0.04
0.04
0.01
0.02
0.00
0.01
0.00
0.00
0.00
0.00
0.00
0.00
0.00
0.00
0.00
0.00
0.00
0.01
0.02
0.08
0.08
0.08
0.11
0.11
0.08
0.08
0.04
0.01
0.00
0.00
0.00
0.00
0.01
0.00
0.00
0.00
0.00
0.00
0.00
0.00
0.00
0.00
0.00
0.00
0.00
0.00
0.00
0.01
0.00
0.00
0.00
0.00
0.00
0.00
0.01
0.00
0.00
0.00
0.00
0.00
0.00
0.00
0.00
0.00
0.00
0.00
0.00
0.06
0.22
0.06
0.24
0.15
0.43
0.15
0.18
0.00
0.04
0.01
0.01
0.01
0.01
0.01
0.01
0.00
0.00
0.15
0.71
0.22
0.56
0.57
0.64
0.53
0.40
0.04
0.02
0.01
0.00
0.00
0.00
0.01
0.00
0.00
0.00
0.00
0.01
0.00
0.01
0.00
0.00
0.00
0.00
0.00
0.00
