0.43
0.45
0.50
0.52
0.57
0.60
0.66
0.72
0.75
0.77
0.78
0.78
0.77
0.73
0.62
0.52
0.45
0.34
0.11
0.02
0.00
0.00
0.00
0.01
0.01
0.01
0.00
0.01
0.00
0.01
0.01
0.00
0.00
0.00
0.00
0.00
0.00
0.00
0.00
0.00
0.00
0.00
0.00
0.01
0.00
0.00
0.01
0.00
0.00
0.01
0.01
0.01
0.01
0.01
0.01
0.01
0.01
0.01
0.01
0.01
0.01
0.01
0.01
0.01
0.02
0.02
0.01
0.01
0.01
0.01
0.01
0.02
0.02
0.02
0.01
0.01
0.03
0.02
0.02
0.01
0.01
0.01
0.03
0.01
0.01
0.01
0.00
0.00
0.00
0.01
0.13
0.13
0.00
0.01
0.03
0.05
0.05
0.06
0.03
0.03
0.03
0.03
0.05
0.00
0.55
0.78
0.71
0.89
0.81
0.75
0.45
0.18
0.07
0.03
0.03
0.01
0.01
0.01
0.00
0.00
0.01
0.01
0.00
0.01
0.00
0.00
0.07
0.04
0.07
0.10
0.15
0.19
0.23
0.31
0.33
0.33
0.37
0.28
0.28
0.13
0.00
0.01
0.01
0.04
0.03
0.04
0.03
0.03
0.01
0.03
0.01
0.01
0.01
0.01
0.01
0.01
0.01
0.01
0.00
0.01
0.01
0.01
0.03
0.25
0.44
0.51
0.44
0.39
0.95
1.00
1.00
1.00
1.00
1.00
0.98
0.99
1.00
0.99
0.95
0.87
0.04
0.28
0.45
0.51
0.60
0.62
0.69
0.73
0.77
0.78
0.81
0.83
0.85
0.89
0.91
0.94
0.94
0.95
0.95
0.95
0.95
0.95
0.95
0.94
0.89
0.83
0.74
0.54
0.45
0.40
0.27
0.20
0.18
0.14
0.11
0.14
0.11
0.13
0.11
0.11
0.08
0.08
0.08
0.06
0.08
0.05
0.06
0.06
0.05
0.03
0.05
0.03
0.03
0.03
0.03
0.03
0.04
0.03
0.04
0.03
0.04
0.04
0.03
0.04
0.03
0.04
0.03
0.04
0.03
0.04
0.04
0.04
0.04
0.04
0.03
0.04
0.03
0.03
0.04
0.03
0.04
0.04
0.04
0.03
0.03
0.00
0.01
0.01
0.00
0.13
0.00
0.01
0.02
0.08
0.11
0.08
0.07
0.06
0.08
0.06
0.08
0.06
0.43
0.70
0.25
0.94
0.94
0.83
0.57
0.34
0.04
0.03
0.01
0.00
0.00
0.01
0.04
0.10
0.13
0.18
0.28
0.31
0.39
0.42
0.48
0.53
0.55
0.60
0.62
0.65
0.67
0.70
0.70
0.71
0.71
0.71
0.67
0.60
0.48
0.23
0.04
0.00
0.00
0.01
0.01
0.01
0.01
0.01
0.01
0.01
0.01
0.01
0.01
0.01
0.00
0.00
0.00
0.00
0.00
0.00
0.00
0.01
0.00
0.01
0.01
0.01
0.01
0.01
0.01
0.01
0.01
0.00
0.00
0.01
0.03
0.19
0.15
0.00
0.00
0.05
0.06
0.07
0.03
0.03
0.03
0.03
0.04
0.05
0.13
0.60
0.79
0.84
0.94
0.84
0.80
0.45
0.03
0.03
0.01
0.01
0.00
0.01
0.01
0.01
0.00
0.03
0.07
0.10
0.10
0.15
0.19
0.19
0.28
0.31
0.42
0.40
0.40
0.40
0.37
0.37
0.28
0.23
0.13
0.01
0.00
0.00
0.01
0.01
0.01
0.01
0.01
0.01
0.01
0.01
0.01
0.01
0.01
0.01
0.01
0.01
0.01
0.01
0.01
0.01
0.01
0.01
0.01
0.01
0.01
0.01
0.02
0.03
0.02
0.02
0.03
0.03
0.04
0.02
0.01
0.01
0.01
0.00
0.07
0.00
0.01
0.03
0.18
0.18
0.14
0.09
0.11
0.11
0.09
0.11
0.18
0.28
0.63
0.65
0.92
0.94
0.82
0.69
0.46
0.07
0.08
0.03
0.03
0.03
0.02
0.01
0.03
0.01
0.01
0.01
0.00
0.00
0.00
0.00
0.00
0.00
0.01
0.01
0.03
0.03
0.01
0.01
0.00
0.00
0.01
0.03
0.04
0.04
0.04
0.03
0.03
0.03
0.03
0.03
0.03
0.04
0.03
0.05
0.03
0.07
0.07
0.06
0.03
0.03
0.05
0.05
0.07
0.03
0.03
0.05
0.03
0.07
0.05
0.07
0.05
0.07
0.08
0.08
0.06
0.06
0.03
0.08
0.02
0.03
0.01
0.01
0.03
0.07
0.22
0.22
0.22
0.20
0.19
0.20
0.19
0.20
0.31
0.01
0.65
0.46
0.88
0.88
0.82
0.61
0.46
0.18
0.14
0.11
0.07
0.06
0.04
0.03
0.03
0.03
0.02
0.02
0.03
0.02
0.01
0.01
0.01
0.01
0.01
0.00
0.00
0.00
0.01
0.01
0.01
0.01
0.01
0.01
0.03
0.02
0.03
0.03
0.03
0.03
0.02
0.03
0.02
0.03
0.01
0.02
0.01
0.01
0.01
0.01
0.01
0.01
0.01
0.01
0.01
0.01
0.01
0.01
0.02
0.02
0.03
0.03
0.03
0.03
0.04
0.04
0.03
0.04
0.01
0.01
0.02
0.00
0.01
0.00
0.01
0.03
0.06
0.18
0.14
0.14
0.13
0.14
0.14
0.11
0.18
0.04
0.39
0.74
0.59
0.94
0.89
0.83
0.53
0.27
0.03
0.03
0.02
0.01
0.00
0.00
0.00
0.03
0.10
0.10
0.18
0.19
0.33
0.39
0.40
0.48
0.53
0.54
0.55
0.59
0.60
0.59
0.57
0.54
0.48
0.40
0.28
0.15
0.04
0.01
0.00
0.00
0.00
0.00
0.00
0.00
0.00
0.00
0.00
0.00
0.00
0.01
0.00
0.00
0.00
0.00
0.01
0.00
0.00
0.00
0.00
0.01
0.00
0.01
0.00
0.00
0.01
0.01
0.01
0.01
0.01
0.00
0.00
0.00
0.03
0.03
0.23
0.01
0.00
0.03
0.07
0.06
0.07
0.05
0.03
0.05
0.03
0.05
0.07
0.53
0.70
0.64
0.91
0.93
0.82
0.60
0.42
0.01
0.01
0.01
0.00
0.01
0.01
0.03
0.04
0.07
0.07
0.07
0.15
0.15
0.19
0.23
0.28
0.37
0.37
0.40
0.40
0.40
0.37
0.37
0.31
0.23
0.10
0.04
0.01
0.01
0.00
0.01
0.01
0.00
0.01
0.00
0.00
0.00
0.01
0.00
0.01
0.01
0.01
0.00
0.00
0.00
0.00
0.00
0.00
0.00
0.00
0.01
0.01
0.00
0.01
0.00
0.01
0.00
0.01
0.01
0.01
0.01
0.01
0.01
0.01
0.01
0.01
0.00
0.01
0.00
0.07
0.10
0.01
0.01
0.05
0.13
0.08
0.06
0.06
0.07
0.08
0.06
0.08
0.00
0.60
0.76
0.82
0.94
0.87
0.82
0.45
0.14
0.05
0.03
0.03
0.02
0.01
0.01
0.00
0.00
0.00
0.01
0.01
0.01
0.03
0.07
0.13
0.13
0.18
0.19
0.28
0.28
0.19
0.15
0.13
0.07
0.00
0.00
0.00
0.01
0.01
0.01
0.02
0.01
0.02
0.01
0.01
0.02
0.03
0.03
0.02
0.01
0.03
0.03
0.01
0.01
0.02
0.02
0.01
0.03
0.03
0.03
0.03
0.03
0.03
0.04
0.03
0.03
0.03
0.05
0.07
0.05
0.07
0.07
0.06
0.08
0.08
0.06
0.08
0.05
0.03
0.07
0.02
0.01
0.01
0.03
0.03
0.19
0.22
0.22
0.18
0.19
0.19
0.19
0.19
0.22
0.04
0.39
0.68
0.59
0.90
0.84
0.80
0.56
0.36
0.14
0.11
0.11
0.06
0.05
0.05
0.03
0.03
0.03
0.03
0.03
0.02
0.01
0.01
0.01
0.01
0.01
0.00
0.01
0.01
0.01
0.01
0.01
0.03
0.03
0.04
0.04
0.05
0.03
0.07
0.03
0.03
0.04
0.03
0.04
0.04
0.04
0.04
0.03
0.03
0.03
0.03
0.03
0.02
0.03
0.02
0.02
0.01
0.03
0.03
0.03
0.03
0.02
0.04
0.04
0.03
0.03
0.03
0.03
0.03
0.05
0.07
0.07
0.06
0.07
0.06
0.03
0.03
0.03
0.01
0.00
0.00
0.01
0.03
0.06
0.18
0.18
0.18
0.14
0.14
0.13
0.14
0.14
0.05
0.40
0.69
0.45
0.92
0.90
0.82
0.57
0.40
0.05
0.03
0.03
0.02
0.01
0.00
0.00
0.00
0.00
0.01
0.01
0.07
0.07
0.18
0.23
0.33
0.39
0.46
0.53
0.54
0.54
0.54
0.54
0.51
0.43
0.37
0.19
0.07
0.01
0.00
0.00
0.01
0.01
0.01
0.01
0.01
0.01
0.01
0.01
0.01
0.01
0.00
0.00
0.00
0.00
0.01
0.01
0.00
0.01
0.00
0.00
0.00
0.00
0.00
0.01
0.00
0.00
0.00
0.00
0.01
0.01
0.01
0.01
0.01
0.01
0.01
0.01
0.01
0.01
0.01
0.00
0.01
0.03
0.00
0.19
0.04
0.00
0.01
0.06
0.08
0.06
0.05
0.03
0.07
0.03
0.07
0.03
0.54
0.67
0.04
0.94
0.94
0.83
0.62
0.40
0.01
0.01
0.00
0.00
0.00
0.04
0.07
0.13
0.13
0.18
0.23
0.31
0.31
0.40
0.40
0.46
0.51
0.54
0.54
0.57
0.57
0.55
0.53
0.48
0.42
0.31
0.15
0.03
0.01
0.00
0.00
0.01
0.00
0.00
0.00
0.00
0.00
0.00
0.01
0.01
0.00
0.00
0.00
0.00
0.00
0.00
0.01
0.03
0.03
0.07
0.03
0.04
0.04
0.07
0.01
0.01
0.01
0.00
0.00
0.00
0.00
0.00
0.00
0.01
0.00
0.00
0.01
0.01
0.00
0.01
0.01
0.00
0.00
0.00
0.00
0.04
0.18
0.15
0.00
0.00
0.03
0.07
0.07
0.03
0.03
0.04
0.03
0.03
0.04
0.19
0.65
0.77
0.84
0.94
0.85
0.81
0.45
0.03
0.02
0.01
0.00
0.00
0.01
0.03
0.07
0.10
0.13
0.18
0.18
0.19
0.28
0.37
0.40
0.42
0.43
0.48
0.53
0.53
0.53
0.51
0.43
0.40
0.33
0.19
0.13
0.03
0.01
0.01
0.00
0.00
0.00
0.00
0.00
0.01
0.00
0.01
0.00
0.00
0.00
0.01
0.01
0.01
0.01
0.01
0.03
0.03
0.04
0.04
0.07
0.01
0.04
0.01
0.03
0.01
0.01
0.01
0.01
0.00
0.00
0.00
0.01
0.01
0.01
0.00
0.01
0.01
0.01
0.01
0.01
0.01
0.01
0.01
0.01
0.00
0.00
0.00
0.03
0.19
0.07
0.00
0.00
0.05
0.05
0.05
0.03
0.03
0.03
0.03
0.05
0.05
0.13
0.65
0.77
0.82
0.90
0.82
0.77
0.45
0.05
0.03
0.03
0.01
0.01
0.00
0.00
0.00
0.00
0.01
0.01
0.03
0.07
0.10
0.07
0.07
0.07
0.13
0.15
0.18
0.13
0.13
0.10
0.04
0.00
0.01
0.00
0.00
0.01
0.01
0.01
0.01
0.01
0.01
0.01
0.01
0.00
0.01
0.00
0.00
0.01
0.00
0.00
0.00
0.00
0.00
0.00
0.00
0.00
0.00
0.00
0.00
0.00
0.01
0.01
0.00
0.01
0.00
0.01
0.01
0.01
0.02
0.03
0.01
0.02
0.03
0.03
0.03
0.03
0.03
0.04
0.02
0.01
0.02
0.00
0.01
0.01
0.00
0.01
0.03
0.11
0.08
0.11
0.11
0.06
0.09
0.13
0.09
0.07
0.33
0.69
0.25
0.89
0.87
0.81
0.57
0.40
0.04
0.03
0.02
0.01
0.01
0.01
0.00
0.00
0.01
0.00
0.01
0.01
0.03
0.10
0.18
0.19
0.28
0.33
0.39
0.40
0.42
0.43
0.43
0.37
0.31
0.19
0.10
0.04
0.01
0.01
0.00
0.00
0.00
0.00
0.00
0.00
0.01
0.00
0.01
0.01
0.01
0.01
0.01
0.01
0.01
0.00
0.01
0.01
0.00
0.01
0.00
0.00
0.00
0.00
0.00
0.00
0.01
0.00
0.01
0.01
0.00
0.01
0.00
0.01
0.01
0.01
0.01
0.01
0.01
0.01
0.01
0.01
0.00
0.01
0.00
0.07
0.04
0.23
0.03
0.00
0.02
0.06
0.06
0.06
0.06
0.03
0.06
0.07
0.06
0.03
0.48
0.70
0.50
0.94
0.94
0.84
0.52
0.22
0.03
0.03
0.01
0.01
0.00
0.00
0.01
0.03
0.07
0.07
0.13
0.18
0.23
0.31
0.40
0.40
0.43
0.51
0.54
0.57
0.57
0.57
0.55
0.54
0.46
0.37
0.23
0.07
0.00
0.00
0.01
0.01
0.01
0.01
0.00
0.00
0.01
0.01
0.01
0.01
0.01
0.01
0.01
0.01
0.01
0.01
0.00
0.00
0.00
0.00
0.00
0.00
0.00
0.00
0.00
0.00
0.00
0.01
0.00
0.01
0.01
0.01
0.01
0.01
0.01
0.02
0.01
0.02
0.02
0.03
0.02
0.02
0.03
0.03
0.03
0.03
0.02
0.01
0.00
0.01
0.00
0.10
0.03
0.01
0.01
0.06
0.11
0.11
0.08
0.07
0.07
0.08
0.07
0.05
0.07
0.60
0.79
0.84
0.94
0.86
0.82
0.45
0.06
0.03
0.03
0.01
0.00
0.00
0.00
0.01
0.01
0.01
0.04
0.10
0.15
0.15
0.23
0.28
0.37
0.37
0.40
0.46
0.48
0.48
0.43
0.43
0.33
0.28
0.15
0.03
0.00
0.01
0.01
0.01
0.02
0.01
0.01
0.01
0.01
0.01
0.01
0.01
0.01
0.01
0.01
0.01
0.01
0.01
0.01
0.01
0.00
0.00
0.00
0.01
0.01
0.01
0.01
0.01
0.02
0.03
0.03
0.03
0.03
0.03
0.04
0.04
0.05
0.03
0.05
0.05
0.03
0.03
0.03
0.03
0.03
0.07
0.05
0.04
0.01
0.03
0.01
0.00
0.00
0.01
0.03
0.08
0.19
0.18
0.19
0.14
0.18
0.19
0.14
0.19
0.03
0.43
0.73
0.75
0.91
0.88
0.82
0.53
0.34
0.19
0.09
0.09
0.05
0.05
0.03
0.03
0.03
0.02
0.03
0.02
0.01
0.01
0.01
0.00
0.01
0.00
0.00
0.00
0.00
0.01
0.01
0.01
0.03
0.04
0.04
0.05
0.08
0.09
0.09
0.11
0.11
0.13
0.06
0.07
0.08
0.07
0.05
0.06
0.06
0.05
0.05
0.07
0.05
0.05
0.07
0.05
0.08
0.07
0.07
0.06
0.08
0.06
0.08
0.06
0.08
0.08
0.08
0.06
0.09
0.09
0.08
0.09
0.09
0.09
0.08
0.13
0.09
0.09
0.08
0.09
0.08
0.03
0.05
0.03
0.04
0.00
0.01
0.04
0.05
0.18
0.22
0.22
0.20
0.20
0.20
0.20
0.22
0.27
0.00
0.55
0.65
0.83
0.89
0.82
0.69
0.50
0.19
0.19
0.09
0.05
0.03
0.03
0.04
0.03
0.03
0.02
0.02
0.01
0.01
0.00
0.00
0.01
0.00
0.01
0.07
0.10
0.18
0.13
0.18
0.13
0.13
0.04
0.00
0.00
0.01
0.02
0.03
0.03
0.03
0.03
0.03
0.02
0.02
0.01
0.01
0.01
0.01
0.01
0.01
0.00
0.01
0.00
0.00
0.00
0.00
0.00
0.00
0.01
0.00
0.01
0.00
0.01
0.01
0.01
0.01
0.01
0.01
0.01
0.01
0.01
0.01
0.01
0.01
0.01
0.01
0.01
0.01
0.01
0.01
0.01
0.00
0.07
0.03
0.18
0.03
0.00
0.01
0.07
0.07
0.08
0.07
0.05
0.05
0.07
0.06
0.04
0.53
0.70
0.45
0.94
0.94
0.83
0.53
0.27
0.01
0.01
0.00
0.01
0.01
0.04
0.07
0.15
0.19
0.19
0.28
0.31
0.39
0.40
0.46
0.51
0.54
0.57
0.60
0.63
0.64
0.63
0.62
0.61
0.59
0.53
0.42
0.28
0.10
0.03
0.01
0.01
0.01
0.00
0.00
0.00
0.01
0.00
0.01
0.00
0.01
0.00
0.00
0.01
0.00
0.00
0.03
0.03
0.03
0.01
0.07
0.03
0.03
0.00
0.01
0.00
0.00
0.00
0.00
0.00
0.00
0.00
0.00
0.00
0.00
0.01
0.00
0.00
0.00
0.01
0.00
0.01
0.01
0.01
0.00
0.01
0.00
0.01
0.07
0.28
0.18
0.00
0.01
0.04
0.03
0.03
0.03
0.03
0.04
0.03
0.03
0.04
0.43
0.68
0.62
0.91
0.94
0.81
0.60
0.40
0.01
0.01
0.00
0.01
0.01
0.04
0.07
0.10
0.13
0.13
0.23
0.19
0.23
0.37
0.39
0.40
0.43
0.43
0.53
0.53
0.54
0.53
0.51
0.46
0.42
0.39
0.23
0.10
0.01
0.01
0.00
0.01
0.00
0.00
0.00
0.00
0.00
0.00
0.00
0.00
0.00
0.00
0.00
0.00
0.01
0.01
0.00
0.00
0.01
0.01
0.01
0.00
0.00
0.01
0.00
0.00
0.00
0.00
0.00
0.00
0.01
0.00
0.01
0.01
0.01
0.01
0.01
0.01
0.01
0.01
0.02
0.02
0.01
0.01
0.00
0.00
0.00
0.01
0.15
0.04
0.00
0.01
0.06
0.09
0.07
0.03
0.03
0.05
0.05
0.07
0.09
0.33
0.65
0.73
0.89
0.91
0.80
0.67
0.45
0.04
0.03
0.04
0.02
0.01
0.01
0.01
0.01
0.00
0.00
0.00
0.01
0.01
0.00
0.00
0.01
0.03
0.03
0.03
0.07
0.04
0.00
0.01
0.00
0.01
0.00
0.01
0.02
0.03
0.03
0.04
0.03
0.04
0.03
0.01
0.02
0.01
0.01
0.02
0.01
0.01
0.01
0.01
0.01
0.01
0.01
0.01
0.01
0.01
0.02
0.02
0.01
0.01
0.01
0.04
0.03
0.03
0.03
0.03
0.04
0.04
0.03
0.03
0.03
0.03
0.03
0.03
0.03
0.03
0.02
0.01
0.03
0.00
0.01
0.01
0.00
0.01
0.03
0.13
0.06
0.06
0.09
0.06
0.11
0.09
0.09
0.03
0.37
0.71
0.44
0.88
0.83
0.77
0.53
0.36
0.04
0.03
0.03
0.01
0.01
0.00
0.00
0.00
0.00
0.00
0.00
0.00
0.03
0.03
0.04
0.10
0.15
0.18
0.15
0.19
0.23
0.19
0.15
0.15
0.10
0.01
0.01
0.00
0.01
0.01
0.01
0.02
0.01
0.01
0.01
0.01
0.01
0.01
0.00
0.01
0.00
0.01
0.00
0.00
0.00
0.00
0.00
0.00
0.00
0.00
0.00
0.00
0.01
0.00
0.00
0.01
0.00
0.01
0.01
0.01
0.01
0.01
0.01
0.01
0.01
0.01
0.01
0.01
0.00
0.00
0.00
0.04
0.03
0.19
0.04
0.00
0.01
0.07
0.06
0.07
0.03
0.03
0.03
0.03
0.03
0.03
0.54
0.71
0.45
0.94
0.94
0.83
0.52
0.22
0.01
0.00
0.00
0.01
0.03
0.07
0.10
0.18
0.19
0.28
0.31
0.39
0.42
0.51
0.51
0.55
0.60
0.62
0.63
0.65
0.67
0.67
0.65
0.64
0.62
0.57
0.46
0.37
0.19
0.04
0.03
0.01
0.00
0.00
0.01
0.01
0.01
0.01
0.00
0.00
0.00
0.00
0.00
0.01
0.01
0.01
0.01
0.03
0.03
0.01
0.01
0.03
0.01
0.00
0.01
0.00
0.00
0.00
0.00
0.00
0.00
0.00
0.00
0.01
0.00
0.01
0.01
0.01
0.01
0.02
0.01
0.00
0.00
0.01
0.04
0.07
0.15
0.01
0.00
0.03
0.07
0.05
0.03
0.04
0.03
0.03
0.04
0.04
0.07
0.57
0.79
0.82
0.94
0.87
0.82
0.45
0.04
0.03
0.01
0.01
0.00
0.00
0.01
0.01
0.03
0.03
0.10
0.10
0.15
0.15
0.28
0.28
0.33
0.40
0.42
0.43
0.48
0.46
0.46
0.42
0.37
0.28
0.19
0.03
0.00
0.01
0.01
0.02
0.01
0.02
0.02
0.02
0.02
0.02
0.02
0.03
0.03
0.03
0.03
0.02
0.03
0.02
0.01
0.01
0.02
0.01
0.01
0.01
0.01
0.01
0.03
0.03
0.03
0.03
0.03
0.04
0.03
0.03
0.03
0.05
0.07
0.05
0.07
0.07
0.07
0.07
0.07
0.05
0.03
0.05
0.02
0.03
0.00
0.01
0.04
0.05
0.22
0.20
0.19
0.18
0.14
0.18
0.14
0.18
0.19
0.13
0.62
0.67
0.90
0.94
0.82
0.70
0.45
0.07
0.09
0.07
0.03
0.03
0.03
0.02
0.01
0.01
0.01
0.01
0.00
0.00
0.00
0.00
0.01
0.00
0.03
0.01
0.04
0.03
0.03
0.01
0.00
0.00
0.01
0.01
0.03
0.04
0.04
0.03
0.03
0.04
0.03
0.03
0.03
0.03
0.03
0.03
0.04
0.03
0.03
0.03
0.03
0.02
0.01
0.04
0.01
0.02
0.03
0.03
0.04
0.03
0.03
0.03
0.03
0.04
0.04
0.03
0.03
0.05
0.07
0.05
0.03
0.03
0.05
0.07
0.03
0.07
0.07
0.03
0.02
0.03
0.01
0.01
0.00
0.00
0.03
0.06
0.14
0.11
0.13
0.11
0.11
0.09
0.09
0.13
0.03
0.40
0.70
0.45
0.89
0.82
0.77
0.56
0.31
0.06
0.08
0.03
0.04
0.04
0.02
0.01
0.01
0.01
0.01
0.01
0.00
0.00
0.01
0.01
0.03
0.07
0.13
0.18
0.19
0.28
0.18
0.18
0.18
0.15
0.07
0.07
0.01
0.00
0.00
0.01
0.01
0.01
0.01
0.01
0.01
0.00
0.00
0.00
0.00
0.00
0.00
0.00
0.00
0.01
0.00
0.01
0.00
0.00
0.00
0.00
0.00
0.00
0.01
0.00
0.01
0.01
0.01
0.01
0.00
0.01
0.01
0.01
0.01
0.01
0.01
0.01
0.01
0.00
0.00
0.03
0.03
0.19
0.07
0.00
0.01
0.07
0.07
0.05
0.03
0.03
0.03
0.03
0.03
0.02
0.57
0.72
0.22
0.94
0.94
0.83
0.52
0.28
0.00
0.00
0.00
0.03
0.13
0.15
0.19
0.19
0.28
0.33
0.37
0.40
0.48
0.48
0.54
0.57
0.60
0.62
0.64
0.67
0.67
0.67
0.65
0.64
0.62
0.54
0.48
0.37
0.18
0.10
0.03
0.03
0.01
0.01
0.01
0.03
0.01
0.00
0.00
0.01
0.00
0.01
0.00
0.01
0.03
0.04
0.01
0.04
0.03
0.03
0.04
0.07
0.01
0.03
0.00
0.00
0.00
0.01
0.00
0.00
0.00
0.00
0.00
0.01
0.00
0.00
0.01
0.01
0.01
0.01
0.01
0.00
0.01
0.01
0.04
0.07
0.18
0.00
0.00
0.02
0.08
0.06
0.06
0.03
0.04
0.07
0.03
0.03
0.01
0.54
0.76
0.67
0.94
0.90
0.83
0.45
0.18
0.03
0.02
0.01
0.01
0.00
0.01
0.01
0.00
0.00
0.03
0.07
0.07
0.10
0.18
0.23
0.28
0.37
0.40
0.40
0.43
0.42
0.43
0.42
0.37
0.33
0.23
0.13
0.01
0.01
0.01
0.02
0.01
0.02
0.02
0.01
0.01
0.02
0.02
0.01
0.01
0.03
0.01
0.01
0.01
0.01
0.01
0.01
0.01
0.01
0.01
0.01
0.01
0.01
0.01
0.03
0.03
0.04
0.04
0.03
0.03
0.03
0.05
0.05
0.07
0.07
0.05
0.07
0.07
0.06
0.08
0.06
0.03
0.04
0.04
0.02
0.00
0.01
0.03
0.05
0.19
0.22
0.20
0.20
0.19
0.19
0.19
0.18
0.20
0.00
0.59
0.74
0.89
0.94
0.83
0.77
0.46
0.11
0.14
0.06
0.06
0.03
0.03
0.03
0.03
0.01
0.01
0.01
0.00
0.01
0.01
0.00
0.01
0.00
0.01
0.00
0.01
0.03
0.03
0.01
0.00
0.00
0.01
0.01
0.02
0.02
0.03
0.07
0.05
0.05
0.03
0.03
0.05
0.03
0.04
0.03
0.04
0.05
0.04
0.03
0.03
0.03
0.04
0.04
0.04
0.04
0.04
0.04
0.03
0.03
0.04
0.03
0.03
0.03
0.07
0.07
0.05
0.03
0.07
0.08
0.05
0.07
0.07
0.08
0.07
0.05
0.03
0.04
0.03
0.03
0.01
0.00
0.00
0.02
0.03
0.18
0.13
0.14
0.13
0.09
0.11
0.09
0.09
0.20
0.13
0.65
0.69
0.83
0.87
0.80
0.62
0.46
0.05
0.11
0.05
0.04
0.03
0.01
0.01
0.01
0.01
0.01
0.01
0.00
0.01
0.01
0.01
0.01
0.03
0.07
0.10
0.07
0.10
0.07
0.07
0.04
0.07
0.01
0.01
0.00
0.01
0.01
0.01
0.03
0.01
0.01
0.01
0.01
0.01
0.01
0.00
0.01
0.00
0.00
0.00
0.00
0.00
0.00
0.00
0.00
0.00
0.00
0.00
0.00
0.00
0.00
0.01
0.00
0.01
0.01
0.01
0.01
0.01
0.01
0.01
0.01
0.01
0.01
0.03
0.02
0.00
0.00
0.00
0.00
0.13
0.03
0.01
0.01
0.07
0.09
0.09
0.07
0.07
0.07
0.06
0.03
0.05
0.13
0.62
0.77
0.89
0.94
0.88
0.82
0.46
0.03
0.01
0.01
0.00
0.00
0.03
0.07
0.13
0.13
0.23
0.23
0.33
0.33
0.40
0.46
0.53
0.54
0.60
0.63
0.63
0.65
0.65
0.67
0.65
0.63
0.61
0.57
0.48
0.31
0.23
0.10
0.07
0.01
0.03
0.01
0.03
0.03
0.01
0.01
0.01
0.00
0.01
0.01
0.01
0.04
0.00
0.04
0.03
0.03
0.03
0.04
0.03
0.01
0.03
0.00
0.00
0.00
0.00
0.00
0.00
0.00
0.00
0.00
0.01
0.01
0.01
0.01
0.01
0.01
0.01
0.01
0.01
0.01
0.00
0.01
0.01
0.23
0.13
0.00
0.00
0.03
0.05
0.05
0.03
0.03
0.03
0.03
0.04
0.03
0.43
0.63
0.76
0.91
0.94
0.82
0.75
0.44
0.01
0.01
0.00
0.01
0.01
0.04
0.04
0.13
0.13
0.15
0.19
0.19
0.31
0.31
0.39
0.40
0.43
0.48
0.53
0.54
0.55
0.54
0.54
0.51
0.48
0.42
0.37
0.19
0.04
0.01
0.01
0.00
0.00
0.00
0.01
0.00
0.01
0.00
0.00
0.01
0.01
0.01
0.00
0.01
0.00
0.00
0.00
0.00
0.00
0.00
0.00
0.00
0.01
0.01
0.01
0.01
0.01
0.01
0.02
0.03
0.03
0.03
0.03
0.03
0.04
0.04
0.04
0.04
0.04
0.03
0.03
0.03
0.02
0.01
0.01
0.00
0.03
0.04
0.00
0.01
0.05
0.09
0.08
0.07
0.07
0.03
0.05
0.05
0.07
0.01
0.57
0.80
0.83
0.94
0.83
0.79
0.45
0.03
0.03
0.03
0.02
0.01
0.00
0.00
0.01
0.01
0.01
0.01
0.04
0.07
0.10
0.15
0.15
0.19
0.19
0.23
0.23
0.31
0.23
0.23
0.10
0.15
0.10
0.01
0.00
0.01
0.01
0.01
0.02
0.01
0.01
0.01
0.01
0.01
0.02
0.01
0.01
0.01
0.01
0.01
0.02
0.01
0.01
0.01
0.01
0.02
0.02
0.03
0.03
0.03
0.04
0.04
0.03
0.04
0.05
0.03
0.03
0.03
0.05
0.05
0.07
0.07
0.05
0.07
0.07
0.03
0.03
0.04
0.03
0.01
0.01
0.00
0.01
0.03
0.09
0.19
0.19
0.19
0.19
0.19
0.18
0.18
0.22
0.04
0.31
0.73
0.66
0.89
0.82
0.75
0.53
0.20
0.19
0.09
0.09
0.07
0.03
0.03
0.03
0.03
0.03
0.03
0.01
0.01
0.01
0.01
0.00
0.00
0.01
0.00
0.00
0.01
0.01
0.00
0.01
0.01
0.00
0.01
0.01
0.02
0.03
0.03
0.04
0.04
0.04
0.03
0.03
0.03
0.04
0.04
0.03
0.04
0.03
0.04
0.03
0.03
0.03
0.04
0.03
0.03
0.03
0.04
0.03
0.03
0.04
0.04
0.03
0.03
0.03
0.04
0.03
0.03
0.03
0.04
0.03
0.03
0.07
0.03
0.03
0.04
0.01
0.03
0.00
0.01
0.04
0.00
0.01
0.03
0.13
0.13
0.08
0.07
0.06
0.07
0.07
0.08
0.07
0.48
0.70
0.31
0.94
0.94
0.83
0.57
0.36
0.01
0.01
0.01
0.00
0.00
0.01
0.04
0.04
0.10
0.18
0.15
0.23
0.31
0.33
0.40
0.43
0.48
0.54
0.55
0.60
0.61
0.61
0.61
0.60
0.59
0.51
0.40
0.28
0.13
0.03
0.01
0.00
0.00
0.00
0.00
0.00
0.01
0.00
0.00
0.01
0.00
0.00
0.00
0.00
0.01
0.01
0.01
0.01
0.00
0.00
0.00
0.00
0.00
0.00
0.00
0.00
0.00
0.01
0.01
0.01
0.01
0.01
0.01
0.01
0.01
0.01
0.01
0.01
0.01
0.01
0.00
0.00
0.00
0.03
0.19
0.13
0.01
0.01
0.03
0.05
0.05
0.03
0.03
0.03
0.03
0.03
0.03
0.43
0.63
0.70
0.92
0.94
0.82
0.66
0.40
0.01
0.01
0.00
0.01
0.00
0.00
0.04
0.04
0.13
0.13
0.23
0.28
0.31
0.33
0.40
0.42
0.46
0.51
0.54
0.55
0.57
0.55
0.55
0.54
0.51
0.48
0.37
0.23
0.13
0.03
0.01
0.00
0.00
0.01
0.01
0.00
0.00
0.01
0.00
0.00
0.00
0.00
0.00
0.00
0.00
0.00
0.01
0.00
0.00
0.01
0.01
0.01
0.01
0.01
0.00
0.00
0.00
0.00
0.00
0.00
0.01
0.00
0.01
0.01
0.07
0.37
0.43
0.59
0.15
0.19
0.03
0.25
0.48
0.73
0.84
0.89
0.50
0.10
0.19
0.44
0.43
0.25
0.22
0.03
0.01
0.01
0.01
0.00
0.00
0.00
0.00
0.00
0.01
0.01
0.01
0.01
0.01
0.01
0.00
0.00
0.13
0.37
0.54
0.64
0.72
0.74
0.75
0.75
0.72
0.67
0.61
0.51
0.33
0.13
0.03
0.00
0.00
0.00
0.00
0.00
0.00
0.01
0.01
0.01
0.01
0.01
0.00
0.00
0.00
0.00
0.01
0.01
0.01
0.01
0.02
0.03
0.03
0.03
0.03
0.03
0.03
0.03
0.03
0.03
0.03
0.03
0.03
0.05
0.05
0.05
0.07
0.07
0.08
0.07
0.06
0.07
0.06
0.09
0.07
0.07
0.08
0.06
0.07
0.06
0.07
0.03
0.06
0.03
0.03
0.00
0.01
0.03
0.07
0.19
0.19
0.19
0.18
0.14
0.18
0.18
0.19
0.22
0.03
0.60
0.05
0.87
0.83
0.80
0.57
0.44
0.13
0.09
0.06
0.03
0.04
0.03
0.01
0.01
0.01
0.02
0.01
0.01
0.00
0.01
0.01
0.01
0.00
0.00
0.03
0.07
0.04
0.10
0.15
0.13
0.13
0.15
0.07
0.04
0.00
0.01
0.02
0.03
0.03
0.03
0.03
0.03
0.03
0.03
0.03
0.03
0.03
0.03
0.03
0.02
0.02
0.03
0.02
0.03
0.03
0.03
0.03
0.03
0.03
0.02
0.02
0.03
0.03
0.03
0.02
0.03
0.03
0.02
0.03
0.03
0.01
0.01
0.01
0.00
0.01
0.13
0.01
0.01
0.03
0.11
0.09
0.08
0.09
0.07
0.08
0.06
0.11
0.03
0.43
0.73
0.46
0.94
0.91
0.83
0.53
0.28
0.03
0.03
0.01
0.01
0.00
0.00
0.01
0.01
0.07
0.07
0.15
0.19
0.33
0.37
0.40
0.46
0.53
0.55
0.60
0.64
0.64
0.63
0.65
0.64
0.62
0.57
0.48
0.37
0.18
0.04
0.04
0.00
0.00
0.00
0.01
0.01
0.00
0.01
0.03
0.01
0.01
0.01
0.01
0.01
0.03
0.03
0.04
0.03
0.00
0.01
0.00
0.01
0.00
0.01
0.00
0.00
0.00
0.01
0.01
0.01
0.01
0.01
0.01
0.02
0.01
0.01
0.00
0.00
0.00
0.01
0.07
0.13
0.00
0.01
0.03
0.08
0.05
0.03
0.03
0.03
0.05
0.03
0.05
0.10
0.60
0.79
0.90
0.94
0.87
0.82
0.45
0.03
0.02
0.01
0.00
0.00
0.00
0.01
0.03
0.04
0.07
0.07
0.15
0.19
0.28
0.28
0.39
0.40
0.43
0.51
0.54
0.54
0.55
0.54
0.51
0.48
0.42
0.37
0.18
0.07
0.00
0.00
0.00
0.00
0.00
0.01
0.00
0.00
0.00
0.00
0.00
0.00
0.00
0.00
0.00
0.01
0.00
0.00
0.00
0.00
0.00
0.00
0.01
0.01
0.01
0.00
0.00
0.00
0.00
0.07
0.37
0.48
0.59
0.28
0.37
0.03
0.01
0.45
0.71
0.86
0.91
0.77
0.03
0.10
0.06
0.31
0.06
0.04
0.01
0.00
0.01
0.01
0.00
0.00
0.01
0.01
0.00
0.00
0.03
0.03
0.00
0.04
0.07
0.15
0.28
0.40
0.54
0.64
0.71
0.74
0.77
0.77
0.76
0.75
0.71
0.63
0.54
0.37
0.19
0.07
0.03
0.01
0.01
0.01
0.00
0.01
0.01
0.00
0.00
0.00
0.01
0.00
0.01
0.00
0.00
0.00
0.00
0.01
0.00
0.01
0.01
0.01
0.01
0.01
0.01
0.02
0.02
0.02
0.03
0.02
0.03
0.02
0.03
0.03
0.03
0.03
0.03
0.03
0.03
0.03
0.03
0.03
0.03
0.04
0.03
0.03
0.03
0.03
0.03
0.03
0.04
0.03
0.03
0.03
0.03
0.03
0.03
0.03
0.04
0.04
0.03
0.01
0.01
0.03
0.05
0.19
0.19
0.19
0.19
0.18
0.18
0.19
0.18
0.25
0.03
0.60
0.70
0.88
0.90
0.81
0.61
0.46
0.11
0.14
0.08
0.07
0.04
0.03
0.02
0.01
0.01
0.01
0.00
0.00
0.00
0.00
0.01
0.00
0.03
0.01
0.03
0.04
0.13
0.15
0.18
0.18
0.18
0.18
0.13
0.10
0.00
0.01
0.02
0.03
0.03
0.03
0.03
0.03
0.03
0.03
0.03
0.03
0.03
0.03
0.03
0.03
0.03
0.03
0.02
0.03
0.02
0.03
0.02
0.03
0.04
0.27
0.44
0.52
0.46
0.00
0.90
0.99
1.00
1.00
1.00
1.00
0.98
0.98
1.00
1.00
0.97
0.85
0.40
0.31
0.45
0.51
0.59
0.64
0.67
0.73
0.75
0.78
0.80
0.82
0.84
0.89
0.90
0.93
0.94
0.95
0.95
0.95
0.95
0.95
0.95
0.94
0.91
0.85
0.77
0.61
0.45
0.43
0.29
0.22
0.19
0.18
0.13
0.13
0.13
0.13
0.09
0.11
0.09
0.08
0.09
0.09
0.08
0.08
0.06
0.07
0.07
0.05
0.05
0.05
0.05
0.03
0.03
0.05
0.05
0.05
0.05
0.03
0.05
0.05
0.05
0.06
0.06
0.07
0.07
0.06
0.07
0.06
0.06
0.06
0.08
0.07
0.07
0.06
0.08
0.07
0.06
0.06
0.07
0.07
0.06
0.05
0.06
0.03
0.03
0.02
0.01
0.01
0.01
0.00
0.02
0.03
0.09
0.19
0.13
0.13
0.09
0.13
0.09
0.09
0.09
0.37
0.64
0.23
0.94
0.94
0.83
0.69
0.42
0.02
0.02
0.00
0.00
0.01
0.01
0.04
0.07
0.15
0.23
0.28
0.33
0.39
0.43
0.51
0.54
0.55
0.61
0.63
0.67
0.69
0.71
0.71
0.72
0.73
0.71
0.67
0.62
0.53
0.33
0.13
0.01
0.00
0.00
0.00
0.01
0.01
0.01
0.01
0.01
0.01
0.02
0.02
0.02
0.02
0.01
0.03
0.01
0.01
0.01
0.01
0.01
0.01
0.01
0.01
0.01
0.01
0.01
0.01
0.01
0.01
0.01
0.01
0.00
0.00
0.01
0.03
0.19
0.10
0.00
0.01
0.03
0.05
0.03
0.04
0.03
0.04
0.04
0.04
0.04
0.18
0.61
0.80
0.87
0.94
0.84
0.80
0.45
0.04
0.03
0.01
0.00
0.00
0.01
0.00
0.03
0.03
0.07
0.03
0.07
0.13
0.15
0.18
0.28
0.31
0.39
0.40
0.46
0.43
0.46
0.43
0.43
0.39
0.33
0.23
0.07
0.00
0.00
0.01
0.01
0.01
0.01
0.01
0.01
0.01
0.01
0.01
0.01
0.02
0.01
0.01
0.01
0.01
0.01
0.01
0.00
0.00
0.00
0.00
0.00
0.00
0.00
0.00
0.01
0.00
0.01
0.01
0.01
0.01
0.01
0.01
0.01
0.01
0.01
0.01
0.00
0.01
0.01
0.00
0.15
0.07
0.01
0.02
0.09
0.11
0.13
0.08
0.09
0.09
0.11
0.11
0.19
0.33
0.61
0.54
0.94
0.94
0.83
0.62
0.44
0.08
0.09
0.06
0.03
0.03
0.03
0.03
0.03
0.03
0.03
0.01
0.01
0.01
0.00
0.00
0.00
0.01
0.00
0.03
0.04
0.03
0.01
0.01
0.00
0.00
0.00
0.01
0.04
0.05
0.06
0.09
0.08
0.13
0.08
0.11
0.08
0.11
0.09
0.11
0.11
0.13
0.13
0.11
0.13
0.09
0.09
0.08
0.11
0.13
0.11
0.09
0.13
0.13
0.13
0.18
0.19
0.20
0.19
0.20
0.22
0.20
0.22
0.22
0.22
0.18
0.18
0.19
0.11
0.05
0.05
0.13
0.18
0.29
0.36
0.36
0.36
0.31
0.36
0.36
0.36
0.36
0.14
0.10
0.68
0.75
0.90
0.83
0.79
0.60
0.38
0.36
0.27
0.25
0.19
0.19
0.20
0.14
0.14
0.18
0.13
0.11
0.09
0.11
0.06
0.08
0.08
0.06
0.06
0.05
0.06
0.08
0.07
0.08
0.09
0.08
0.09
0.13
0.14
0.18
0.14
0.19
0.18
0.19
0.13
0.18
0.14
0.19
0.11
0.11
0.18
0.11
0.11
0.11
0.14
0.11
0.13
0.09
0.14
0.13
0.13
0.13
0.18
0.14
0.14
0.14
0.19
0.18
0.18
0.18
0.19
0.18
0.19
0.13
0.08
0.11
0.03
0.07
0.01
0.02
0.06
0.08
0.22
0.25
0.22
0.20
0.20
0.19
0.19
0.19
0.22
0.10
0.60
0.71
0.89
0.91
0.83
0.70
0.45
0.09
0.09
0.07
0.04
0.03
0.02
0.02
0.01
0.00
0.00
0.00
0.00
0.01
0.04
0.07
0.19
0.31
0.31
0.42
0.43
0.48
0.48
0.46
0.43
0.40
0.33
0.18
0.03
0.00
0.01
0.01
0.02
0.02
0.03
0.03
0.02
0.02
0.01
0.02
0.01
0.01
0.01
0.01
0.00
0.00
0.00
0.00
0.00
0.00
0.01
0.00
0.00
0.00
0.01
0.00
0.00
0.00
0.00
0.00
0.01
0.01
0.01
0.01
0.01
0.01
0.01
0.00
0.00
0.01
0.04
0.23
0.04
0.00
0.01
0.03
0.05
0.03
0.03
0.03
0.04
0.03
0.03
0.01
0.60
0.75
0.45
0.94
0.94
0.83
0.50
0.19
0.00
0.00
0.00
0.03
0.07
0.07
0.15
0.15
0.19
0.28
0.33
0.39
0.40
0.43
0.48
0.54
0.57
0.59
0.60
0.62
0.62
0.61
0.60
0.60
0.57
0.54
0.43
0.33
0.23
0.13
0.13
0.10
0.10
0.07
0.07
0.10
0.10
0.07
0.07
0.07
0.07
0.07
0.13
0.15
0.13
0.15
0.15
0.18
0.18
0.19
0.19
0.19
0.18
0.18
0.19
0.13
0.13
0.13
0.13
0.03
0.04
0.03
0.04
0.03
0.03
0.03
0.01
0.01
0.04
0.15
0.07
0.23
0.23
0.37
0.23
0.07
0.00
0.03
0.01
0.01
0.01
0.01
0.01
0.01
0.01
0.23
0.64
0.82
0.82
0.94
0.84
0.80
0.45
0.01
0.01
0.00
0.10
0.10
0.15
0.18
0.28
0.28
0.33
0.37
0.40
0.42
0.43
0.46
0.53
0.54
0.55
0.60
0.60
0.60
0.60
0.59
0.55
0.54
0.51
0.40
0.33
0.19
0.15
0.13
0.13
0.04
0.10
0.10
0.13
0.07
0.10
0.04
0.10
0.07
0.07
0.10
0.07
0.07
0.13
0.15
0.15
0.15
0.15
0.18
0.10
0.13
0.13
0.13
0.07
0.07
0.04
0.03
0.01
0.00
0.01
0.00
0.00
0.00
0.00
0.00
0.00
0.00
0.00
0.00
0.00
0.01
0.01
0.03
0.28
0.13
0.01
0.00
0.04
0.07
0.03
0.03
0.03
0.03
0.04
0.03
0.03
0.46
0.67
0.77
0.89
0.91
0.78
0.60
0.43
0.01
0.01
0.01
0.00
0.00
0.01
0.00
0.01
0.03
0.10
0.07
0.04
0.13
0.15
0.15
0.18
0.19
0.18
0.28
0.31
0.19
0.19
0.19
0.10
0.13
0.07
0.03
0.01
0.01
0.00
0.00
0.00
0.00
0.01
0.01
0.01
0.01
0.00
0.00
0.00
0.01
0.00
0.01
0.01
0.01
0.01
0.00
0.01
0.00
0.00
0.00
0.01
0.00
0.00
0.00
0.00
0.01
0.01
0.01
0.01
0.01
0.01
0.03
0.01
0.02
0.03
0.02
0.01
0.04
0.03
0.03
0.01
0.01
0.02
0.01
0.07
0.07
0.00
0.01
0.04
0.08
0.06
0.05
0.06
0.05
0.06
0.05
0.08
0.00
0.55
0.74
0.65
0.89
0.81
0.73
0.50
0.13
0.03
0.02
0.01
0.00
0.00
0.00
0.00
0.01
0.04
0.03
0.04
0.10
0.13
0.23
0.28
0.28
0.33
0.40
0.43
0.46
0.48
0.48
0.46
0.40
0.40
0.33
0.19
0.10
0.03
0.01
0.00
0.00
0.00
0.00
0.00
0.00
0.00
0.00
0.00
0.01
0.00
0.01
0.01
0.01
0.00
0.03
0.01
0.01
0.00
0.01
0.00
0.01
0.00
0.00
0.00
0.01
0.01
0.01
0.01
0.01
0.01
0.01
0.01
0.01
0.01
0.01
0.01
0.01
0.01
0.00
0.01
0.00
0.07
0.10
0.19
0.01
0.00
0.04
0.05
0.05
0.03
0.05
0.03
0.05
0.04
0.05
0.01
0.60
0.77
0.81
0.94
0.91
0.83
0.46
0.05
0.01
0.01
0.00
0.00
0.01
0.03
0.07
0.13
0.18
0.18
0.28
0.28
0.37
0.37
0.42
0.48
0.54
0.55
0.59
0.60
0.60
0.60
0.57
0.54
0.46
0.40
0.23
0.10
0.01
0.00
0.00
0.01
0.01
0.00
0.00
0.01
0.00
0.01
0.01
0.01
0.00
0.00
0.00
0.00
0.00
0.00
0.00
0.01
0.00
0.00
0.00
0.01
0.00
0.00
0.00
0.00
0.01
0.01
0.01
0.01
0.02
0.02
0.02
0.03
0.04
0.04
0.03
0.04
0.04
0.03
0.01
0.01
0.01
0.00
0.03
0.00
0.01
0.02
0.13
0.20
0.19
0.14
0.13
0.13
0.18
0.13
0.14
0.03
0.53
0.77
0.90
0.94
0.84
0.80
0.46
0.05
0.03
0.04
0.03
0.01
0.01
0.00
0.00
0.01
0.01
0.01
0.04
0.07
0.15
0.15
0.19
0.31
0.33
0.39
0.42
0.42
0.40
0.39
0.31
0.23
0.18
0.07
0.01
0.01
0.01
0.02
0.03
0.03
0.03
0.04
0.03
0.03
0.03
0.03
0.03
0.03
0.03
0.02
0.03
0.02
0.02
0.01
0.01
0.01
0.01
0.01
0.01
0.01
0.01
0.02
0.02
0.02
0.03
0.03
0.02
0.03
0.04
0.03
0.03
0.03
0.03
0.07
0.05
0.05
0.03
0.06
0.05
0.03
0.04
0.03
0.03
0.01
0.00
0.00
0.03
0.03
0.14
0.22
0.19
0.14
0.14
0.18
0.18
0.18
0.19
0.01
0.48
0.75
0.86
0.94
0.84
0.80
0.48
0.13
0.13
0.09
0.07
0.03
0.03
0.03
0.04
0.02
0.03
0.01
0.01
0.00
0.00
0.00
0.00
0.01
0.01
0.01
0.01
0.01
0.01
0.00
0.01
0.01
0.00
0.01
0.01
0.03
0.03
0.04
0.03
0.03
0.04
0.03
0.03
0.02
0.02
0.03
0.03
0.02
0.04
0.04
0.03
0.01
0.03
0.03
0.02
0.01
0.01
0.01
0.02
0.13
0.01
0.01
0.10
0.11
0.45
0.44
0.81
0.91
0.95
0.97
0.98
0.98
0.98
0.94
0.81
0.00
0.01
0.09
0.22
0.20
0.36
0.22
0.36
0.42
0.45
0.45
0.52
0.54
0.59
0.61
0.67
0.74
0.77
0.78
0.81
0.81
0.81
0.80
0.76
0.70
0.59
0.45
0.44
0.31
0.19
0.09
0.06
0.06
0.08
0.06
0.08
0.08
0.07
0.08
0.07
0.07
0.06
0.05
0.07
0.06
0.05
0.07
0.07
0.06
0.06
0.07
0.05
0.06
0.07
0.07
0.06
0.05
0.05
0.05
0.07
0.07
0.06
0.07
0.06
0.07
0.07
0.07
0.06
0.07
0.07
0.07
0.07
0.05
0.07
0.05
0.05
0.05
0.03
0.03
0.06
0.05
0.03
0.03
0.05
0.03
0.03
0.03
0.05
0.03
0.04
0.03
0.03
0.03
0.03
0.03
0.03
0.04
0.03
0.01
0.03
0.00
0.00
0.04
0.00
0.01
0.03
0.13
0.11
0.09
0.06
0.08
0.08
0.08
0.09
0.01
0.57
0.77
0.83
0.94
0.87
0.81
0.45
0.08
0.03
0.02
0.02
0.01
0.00
0.00
0.03
0.07
0.15
0.13
0.19
0.28
0.40
0.42
0.46
0.51
0.55
0.60
0.64
0.67
0.68
0.71
0.70
0.71
0.71
0.70
0.63
0.59
0.42
0.18
0.03
0.00
0.00
0.00
0.00
0.00
0.00
0.00
0.00
0.00
0.00
0.00
0.00
0.01
0.01
0.04
0.03
0.04
0.04
0.10
0.01
0.01
0.23
0.18
0.55
0.65
0.75
0.94
0.98
0.98
0.98
0.98
0.99
1.00
0.98
0.93
0.59
0.42
0.09
0.22
0.22
0.36
0.40
0.43
0.40
0.45
0.46
0.50
0.60
0.65
0.74
0.75
0.78
0.81
0.83
0.83
0.84
0.85
0.84
0.83
0.80
0.75
0.62
0.50
0.45
0.36
0.22
0.14
0.09
0.09
0.08
0.09
0.06
0.07
0.07
0.05
0.05
0.05
0.05
0.03
0.03
0.03
0.07
0.03
0.03
0.07
0.05
0.03
0.03
0.03
0.03
0.03
0.03
0.03
0.03
0.03
0.03
0.03
0.05
0.03
0.03
0.03
0.05
0.03
0.03
0.07
0.05
0.03
0.05
0.03
0.07
0.05
0.07
0.07
0.05
0.07
0.07
0.06
0.05
0.07
0.07
0.08
0.07
0.06
0.07
0.06
0.07
0.07
0.07
0.07
0.07
0.05
0.07
0.07
0.05
0.03
0.04
0.03
0.03
0.01
0.00
0.01
0.02
0.04
0.13
0.19
0.19
0.19
0.14
0.14
0.13
0.13
0.13
0.01
0.54
0.78
0.84
0.92
0.83
0.77
0.45
0.09
0.08
0.03
0.04
0.01
0.01
0.01
0.01
0.00
0.00
0.01
0.01
0.07
0.13
0.10
0.19
0.23
0.31
0.33
0.37
0.43
0.48
0.51
0.54
0.59
0.57
0.55
0.48
0.37
0.07
0.00
0.01
0.03
0.04
0.03
0.04
0.02
0.03
0.03
0.03
0.03
0.02
0.01
0.01
0.02
0.01
0.01
0.01
0.01
0.01
0.01
0.01
0.01
0.01
0.01
0.02
0.03
0.03
0.03
0.03
0.03
0.03
0.04
0.03
0.03
0.01
0.03
0.01
0.01
0.01
0.00
0.03
0.03
0.19
0.19
0.19
0.13
0.14
0.13
0.09
0.09
0.20
0.13
0.67
0.73
0.88
0.90
0.80
0.62
0.45
0.03
0.06
0.03
0.04
0.02
0.01
0.01
0.00
0.00
0.01
0.00
0.01
0.03
0.07
0.07
0.13
0.18
0.19
0.28
0.33
0.37
0.37
0.33
0.31
0.31
0.23
0.15
0.03
0.00
0.00
0.00
0.01
0.01
0.01
0.00
0.00
0.00
0.01
0.01
0.00
0.00
0.00
0.01
0.01
0.01
0.01
0.01
0.01
0.00
0.01
0.01
0.00
0.00
0.00
0.01
0.00
0.00
0.00
0.00
0.00
0.00
0.00
0.00
0.00
0.01
0.03
0.01
0.18
0.23
0.23
0.07
0.00
0.02
0.03
0.03
0.03
0.03
0.03
0.03
0.01
0.03
0.01
0.59
0.77
0.46
0.92
0.89
0.81
0.45
0.08
0.01
0.00
0.01
0.01
0.03
0.07
0.04
0.10
0.15
0.18
0.18
0.28
0.31
0.33
0.40
0.42
0.46
0.51
0.53
0.55
0.55
0.54
0.54
0.54
0.48
0.42
0.33
0.18
0.10
0.01
0.01
0.01
0.00
0.00
0.03
0.03
0.03
0.01
0.01
0.00
0.03
0.03
0.03
0.03
0.03
0.03
0.04
0.04
0.04
0.00
0.03
0.00
0.03
0.01
0.01
0.00
0.00
0.00
0.00
0.00
0.00
0.01
0.00
0.00
0.00
0.07
0.01
0.15
0.18
0.28
0.04
0.00
0.02
0.03
0.04
0.04
0.04
0.03
0.03
0.04
0.03
0.03
0.54
0.74
0.18
0.91
0.91
0.81
0.50
0.20
0.01
0.01
0.00
0.00
0.03
0.03
0.04
0.07
0.13
0.18
0.18
0.19
0.28
0.23
0.31
0.37
0.40
0.42
0.43
0.46
0.48
0.43
0.43
0.43
0.39
0.33
0.18
0.10
0.03
0.00
0.00
0.01
0.00
0.00
0.00
0.01
0.00
0.01
0.00
0.00
0.00
0.00
0.03
0.01
0.03
0.01
0.03
0.03
0.03
0.01
0.01
0.01
0.00
0.00
0.00
0.00
0.00
0.00
0.01
0.00
0.01
0.01
0.01
0.01
0.00
0.00
0.00
0.01
0.13
0.15
0.01
0.01
0.03
0.08
0.03
0.03
0.03
0.03
0.03
0.03
0.05
0.04
0.57
0.79
0.83
0.92
0.82
0.76
0.45
0.04
0.04
0.03
0.01
0.01
0.01
0.00
0.00
0.00
0.01
0.00
0.00
0.01
0.03
0.01
0.07
0.10
0.15
0.13
0.23
0.19
0.19
0.15
0.18
0.13
0.07
0.01
0.00
0.01
0.02
0.03
0.03
0.03
0.03
0.03
0.04
0.03
0.03
0.03
0.04
0.04
0.03
0.03
0.03
0.04
0.04
0.03
0.04
0.03
0.03
0.05
0.03
0.07
0.06
0.06
0.06
0.08
0.11
0.09
0.09
0.13
0.11
0.13
0.14
0.13
0.08
0.06
0.08
0.05
0.01
0.03
0.08
0.14
0.28
0.34
0.31
0.29
0.27
0.28
0.28
0.29
0.34
0.01
0.28
0.73
0.89
0.94
0.84
0.80
0.53
0.27
0.29
0.22
0.22
0.20
0.20
0.19
0.18
0.14
0.19
0.13
0.13
0.13
0.11
0.06
0.03
0.08
0.07
0.05
0.03
0.07
0.06
0.06
0.09
0.11
0.14
0.18
0.20
0.22
0.22
0.22
0.22
0.22
0.22
0.20
0.22
0.19
0.19
0.18
0.18
0.19
0.19
0.18
0.19
0.20
0.20
0.18
0.18
0.19
0.18
0.19
0.20
0.20
0.19
0.19
0.19
0.22
0.22
0.22
0.20
0.20
0.20
0.19
0.20
0.14
0.09
0.03
0.03
0.11
0.19
0.27
0.36
0.34
0.31
0.34
0.31
0.31
0.28
0.36
0.14
0.04
0.63
0.56
0.90
0.83
0.77
0.60
0.43
0.22
0.20
0.20
0.19
0.18
0.08
0.11
0.11
0.08
0.09
0.06
0.06
0.05
0.05
0.07
0.05
0.05
0.04
0.05
0.03
0.07
0.07
0.08
0.08
0.08
0.09
0.11
0.11
0.18
0.13
0.19
0.13
0.08
0.09
0.06
0.08
0.05
0.06
0.08
0.07
0.05
0.08
0.08
0.08
0.07
0.05
0.06
0.09
0.09
0.06
0.07
0.06
0.06
0.08
0.09
0.06
0.08
0.06
0.08
0.09
0.09
0.07
0.03
0.03
0.04
0.03
0.00
0.00
0.03
0.03
0.09
0.19
0.19
0.09
0.14
0.18
0.11
0.13
0.22
0.13
0.65
0.68
0.82
0.87
0.82
0.61
0.45
0.07
0.07
0.03
0.02
0.01
0.00
0.00
0.00
0.00
0.00
0.01
0.04
0.07
0.15
0.18
0.19
0.31
0.33
0.39
0.40
0.43
0.46
0.48
0.46
0.42
0.33
0.28
0.18
0.13
0.03
0.04
0.01
0.01
0.00
0.03
0.03
0.04
0.07
0.07
0.07
0.10
0.10
0.13
0.15
0.13
0.18
0.18
0.18
0.15
0.19
0.18
0.15
0.13
0.10
0.13
0.07
0.07
0.04
0.07
0.03
0.04
0.18
0.28
0.18
0.39
0.39
0.48
0.33
0.18
0.01
0.01
0.01
0.01
0.00
0.00
0.01
0.00
0.01
0.15
0.67
0.80
0.79
0.95
0.94
0.84
0.46
0.02
0.15
0.23
0.33
0.37
0.40
0.43
0.48
0.53
0.54
0.57
0.59
0.60
0.63
0.67
0.67
0.70
0.73
0.74
0.76
0.77
0.78
0.79
0.77
0.76
0.75
0.73
0.67
0.60
0.54
0.46
0.39
0.28
0.28
0.23
0.23
0.19
0.18
0.19
0.19
0.18
0.23
0.18
0.18
0.19
0.19
0.23
0.28
0.23
0.23
0.23
0.28
0.19
0.23
0.18
0.13
0.15
0.15
0.10
0.07
0.07
0.10
0.18
0.18
0.18
0.33
0.33
0.46
0.37
0.13
0.00
0.01
0.01
0.01
0.01
0.01
0.01
0.01
0.02
0.00
0.62
0.79
0.67
0.94
0.94
0.84
0.45
0.03
0.03
0.03
0.07
0.15
0.19
0.23
0.28
0.31
0.33
0.37
0.43
0.46
0.54
0.54
0.55
0.60
0.63
0.63
0.65
0.67
0.67
0.65
0.64
0.63
0.57
0.54
0.40
0.28
0.18
0.03
0.03
0.03
0.00
0.01
0.00
0.00
0.00
0.00
0.01
0.00
0.00
0.00
0.01
0.00
0.00
0.01
0.03
0.01
0.01
0.03
0.01
0.01
0.01
0.01
0.00
0.00
0.01
0.01
0.00
0.00
0.00
0.10
0.07
0.33
0.13
0.00
0.01
0.08
0.08
0.06
0.03
0.03
0.05
0.03
0.03
0.09
0.48
0.67
0.31
0.94
0.94
0.83
0.61
0.40
0.02
0.01
0.01
0.00
0.00
0.03
0.03
0.03
0.10
0.13
0.15
0.15
0.19
0.28
0.33
0.33
0.40
0.42
0.42
0.43
0.48
0.40
0.40
0.31
0.28
0.18
0.07
0.00
0.01
0.00
0.01
0.00
0.01
0.00
0.01
0.01
0.01
0.01
0.01
0.01
0.01
0.01
0.01
0.01
0.00
0.01
0.01
0.01
0.01
0.01
0.01
0.01
0.01
0.01
0.02
0.01
0.03
0.02
0.01
0.01
0.00
0.00
0.13
0.00
0.02
0.03
0.19
0.19
0.18
0.18
0.13
0.14
0.13
0.19
0.18
0.15
0.55
0.63
0.94
0.95
0.83
0.73
0.45
0.03
0.06
0.03
0.03
0.02
0.02
0.01
0.01
0.01
0.01
0.00
0.00
0.01
0.00
0.03
0.04
0.10
0.10
0.13
0.13
0.10
0.04
0.01
0.00
0.00
0.01
0.02
0.02
0.03
0.03
0.03
0.03
0.03
0.03
0.04
0.04
0.03
0.04
0.04
0.04
0.03
0.03
0.02
0.03
0.03
0.03
0.03
0.02
0.03
0.02
0.03
0.03
0.05
0.04
0.04
0.03
0.05
0.03
0.03
0.03
0.03
0.03
0.01
0.01
0.00
0.03
0.04
0.14
0.22
0.19
0.18
0.18
0.14
0.13
0.13
0.18
0.09
0.40
0.69
0.53
0.94
0.94
0.84
0.52
0.29
0.05
0.07
0.04
0.03
0.01
0.01
0.01
0.00
0.00
0.01
0.01
0.01
0.01
0.04
0.10
0.15
0.18
0.28
0.23
0.28
0.19
0.19
0.15
0.13
0.03
0.00
0.01
0.00
0.01
0.01
0.01
0.01
0.01
0.02
0.01
0.01
0.01
0.02
0.01
0.01
0.01
0.01
0.01
0.01
0.01
0.01
0.00
0.00
0.00
0.01
0.00
0.01
0.01
0.01
0.01
0.01
0.01
0.01
0.01
0.01
0.01
0.01
0.00
0.00
0.00
0.00
0.18
0.07
0.01
0.02
0.08
0.11
0.11
0.05
0.07
0.07
0.06
0.07
0.07
0.18
0.61
0.79
0.87
0.94
0.85
0.78
0.45
0.03
0.03
0.01
0.00
0.00
0.00
0.00
0.03
0.03
0.03
0.04
0.13
0.13
0.13
0.19
0.19
0.28
0.23
0.33
0.33
0.39
0.33
0.28
0.19
0.13
0.13
0.03
0.00
0.00
0.01
0.00
0.00
0.01
0.00
0.00
0.00
0.00
0.00
0.00
0.00
0.00
0.00
0.01
0.00
0.03
0.07
0.10
0.07
0.03
0.07
0.01
0.01
0.00
0.01
0.01
0.00
0.00
0.00
0.00
0.00
0.01
0.00
0.01
0.01
0.00
0.00
0.07
0.10
0.28
0.03
0.00
0.03
0.07
0.06
0.03
0.03
0.04
0.03
0.03
0.03
0.03
0.60
0.74
0.22
0.94
0.89
0.82
0.48
0.19
0.04
0.03
0.01
0.01
0.00
0.00
0.00
0.00
0.01
0.01
0.01
0.04
0.04
0.07
0.10
0.10
0.13
0.13
0.15
0.10
0.07
0.07
0.07
0.03
0.01
0.00
0.01
0.01
0.00
0.00
0.00
0.00
0.00
0.00
0.01
0.00
0.01
0.01
0.01
0.00
0.00
0.01
0.01
0.04
0.01
0.03
0.04
0.03
0.01
0.07
0.01
0.01
0.01
0.00
0.00
0.00
0.00
0.01
0.01
0.01
0.01
0.01
0.01
0.00
0.00
0.00
0.00
0.23
0.13
0.01
0.00
0.04
0.06
0.05
0.04
0.04
0.03
0.04
0.03
0.07
0.48
0.75
0.74
0.87
0.90
0.82
0.60
0.45
0.01
0.01
0.00
0.01
0.03
0.07
0.13
0.15
0.19
0.23
0.23
0.37
0.40
0.40
0.43
0.51
0.54
0.55
0.57
0.61
0.62
0.62
0.62
0.59
0.59
0.51
0.40
0.28
0.19
0.01
0.00
0.00
0.01
0.01
0.00
0.01
0.01
0.01
0.01
0.01
0.01
0.00
0.00
0.00
0.00
0.00
0.00
0.00
0.00
0.01
0.00
0.01
0.01
0.01
0.01
0.01
0.01
0.02
0.01
0.01
0.02
0.03
0.01
0.03
0.02
0.03
0.01
0.00
0.01
0.00
0.00
0.18
0.00
0.01
0.03
0.14
0.18
0.19
0.09
0.08
0.11
0.11
0.09
0.05
0.53
0.67
0.45
0.95
0.95
0.89
0.62
0.28
0.02
0.01
0.01
0.00
0.00
0.03
0.07
0.07
0.10
0.18
0.18
0.28
0.31
0.37
0.42
0.46
0.51
0.54
0.57
0.59
0.60
0.60
0.59
0.54
0.51
0.43
0.31
0.15
0.03
0.00
0.00
0.01
0.01
0.01
0.01
0.01
0.01
0.01
0.01
0.01
0.01
0.01
0.01
0.01
0.00
0.01
0.00
0.01
0.00
0.00
0.00
0.00
0.00
0.00
0.01
0.01
0.01
0.01
0.01
0.01
0.01
0.01
0.02
0.01
0.01
0.01
0.02
0.01
0.01
0.00
0.01
0.03
0.03
0.15
0.00
0.01
0.04
0.18
0.14
0.13
0.08
0.08
0.11
0.09
0.09
0.06
0.48
0.69
0.44
0.95
0.95
0.86
0.56
0.34
0.03
0.03
0.03
0.01
0.01
0.00
0.01
0.00
0.03
0.04
0.07
0.10
0.15
0.18
0.23
0.31
0.37
0.42
0.43
0.43
0.43
0.42
0.37
0.37
0.31
0.18
0.04
0.00
0.00
0.00
0.01
0.02
0.01
0.01
0.01
0.01
0.01
0.01
0.01
0.01
0.01
0.01
0.00
0.00
0.00
0.00
0.01
0.00
0.00
0.00
0.00
0.00
0.01
0.01
0.01
0.01
0.01
0.01
0.03
0.01
0.02
0.03
0.03
0.02
0.03
0.03
0.03
0.04
0.03
0.02
0.01
0.02
0.00
0.01
0.03
0.01
0.01
0.06
0.18
0.13
0.08
0.06
0.08
0.06
0.06
0.09
0.00
0.54
0.80
0.85
0.94
0.89
0.82
0.45
0.07
0.03
0.02
0.03
0.01
0.01
0.00
0.00
0.01
0.00
0.01
0.03
0.07
0.10
0.18
0.15
0.28
0.23
0.33
0.33
0.37
0.37
0.28
0.28
0.19
0.13
0.07
0.00
0.00
0.01
0.01
0.01
0.01
0.02
0.02
0.01
0.01
0.03
0.01
0.01
0.01
0.01
0.01
0.01
0.01
0.01
0.01
0.00
0.00
0.01
0.01
0.01
0.01
0.01
0.02
0.01
0.01
0.02
0.03
0.02
0.02
0.03
0.02
0.04
0.03
0.04
0.04
0.03
0.03
0.04
0.02
0.01
0.04
0.01
0.00
0.01
0.01
0.03
0.13
0.20
0.18
0.14
0.14
0.09
0.13
0.11
0.13
0.01
0.55
0.79
0.77
0.91
0.84
0.81
0.46
0.11
0.08
0.05
0.03
0.03
0.03
0.01
0.00
0.01
0.00
0.00
0.00
0.01
0.00
0.00
0.01
0.01
0.01
0.00
0.00
0.01
0.00
0.00
0.00
0.01
0.01
0.02
0.03
0.03
0.04
0.03
0.03
0.04
0.03
0.03
0.03
0.03
0.04
0.03
0.03
0.04
0.03
0.03
0.04
0.03
0.03
0.04
0.03
0.04
0.04
0.03
0.03
0.07
0.03
0.05
0.05
0.06
0.03
0.05
0.03
0.09
0.06
0.05
0.05
0.07
0.06
0.07
0.03
0.02
0.04
0.01
0.01
0.01
0.00
0.02
0.03
0.18
0.14
0.14
0.13
0.14
0.14
0.14
0.14
0.22
0.13
0.69
0.59
0.86
0.89
0.82
0.64
0.46
0.09
0.11
0.07
0.03
0.03
0.03
0.01
0.01
0.01
0.00
0.00
0.00
0.00
0.03
0.04
0.13
0.19
0.23
0.39
0.40
0.43
0.42
0.46
0.43
0.42
0.37
0.18
0.10
0.03
0.00
0.00
0.01
0.01
0.01
0.00
0.01
0.00
0.00
0.00
0.01
0.00
0.01
0.01
0.00
0.01
0.00
0.00
0.00
0.00
0.00
0.01
0.00
0.00
0.00
0.00
0.00
0.00
0.01
0.01
0.01
0.01
0.01
0.01
0.01
0.01
0.01
0.01
0.01
0.01
0.00
0.01
0.00
0.07
0.13
0.23
0.00
0.00
0.03
0.07
0.07
0.05
0.04
0.04
0.03
0.03
0.03
0.23
0.62
0.77
0.91
0.95
0.89
0.82
0.44
0.01
0.01
0.00
0.01
0.01
0.07
0.13
0.19
0.19
0.28
0.37
0.40
0.43
0.48
0.54
0.57
0.61
0.63
0.67
0.67
0.67
0.67
0.67
0.64
0.63
0.60
0.54
0.39
0.23
0.15
0.07
0.03
0.00
0.01
0.03
0.03
0.01
0.03
0.01
0.01
0.01
0.03
0.03
0.03
0.01
0.04
0.04
0.04
0.07
0.04
0.04
0.01
0.03
0.01
0.01
0.00
0.01
0.01
0.00
0.00
0.00
0.00
0.00
0.01
0.01
0.00
0.01
0.01
0.00
0.03
0.00
0.10
0.07
0.23
0.03
0.00
0.03
0.06
0.07
0.03
0.03
0.03
0.03
0.03
0.03
0.01
0.57
0.79
0.81
0.94
0.89
0.83
0.46
0.03
0.02
0.01
0.00
0.00
0.01
0.01
0.07
0.10
0.13
0.18
0.19
0.23
0.31
0.39
0.40
0.42
0.42
0.51
0.51
0.51
0.53
0.51
0.46
0.42
0.40
0.28
0.18
0.03
0.01
0.00
0.01
0.00
0.01
0.00
0.00
0.00
0.01
0.00
0.00
0.00
0.00
0.00
0.00
0.00
0.00
0.00
0.00
0.00
0.00
0.00
0.00
0.01
0.00
0.01
0.01
0.01
0.01
0.03
0.02
0.02
0.03
0.04
0.04
0.04
0.04
0.04
0.03
0.03
0.05
0.05
0.05
0.03
0.03
0.03
0.01
0.01
0.01
0.01
0.01
0.03
0.18
0.19
0.18
0.11
0.09
0.13
0.09
0.11
0.18
0.31
0.60
0.23
0.94
0.94
0.83
0.62
0.45
0.07
0.05
0.03
0.04
0.03
0.02
0.01
0.01
0.01
0.01
0.00
0.00
0.00
0.00
0.03
0.04
0.04
0.13
0.15
0.18
0.15
0.15
0.10
0.10
0.03
0.01
0.00
0.01
0.03
0.03
0.05
0.07
0.03
0.03
0.04
0.03
0.03
0.03
0.03
0.04
0.03
0.03
0.04
0.03
0.04
0.03
0.04
0.02
0.03
0.03
0.03
0.05
0.03
0.07
0.07
0.08
0.09
0.09
0.09
0.13
0.11
0.14
0.13
0.18
0.18
0.14
0.13
0.14
0.14
0.14
0.14
0.07
0.06
0.07
0.04
0.01
0.01
0.04
0.08
0.20
0.27
0.22
0.22
0.22
0.20
0.22
0.20
0.27
0.01
0.54
0.73
0.83
0.90
0.82
0.74
0.53
0.22
0.25
0.19
0.18
0.13
0.08
0.06
0.08
0.08
0.06
0.07
0.03
0.03
0.03
0.03
0.03
0.04
0.02
0.02
0.03
0.01
0.02
0.01
0.03
0.04
0.04
0.03
0.07
0.08
0.06
0.07
0.06
0.08
0.06
0.07
0.07
0.07
0.05
0.07
0.07
0.05
0.05
0.07
0.07
0.06
0.05
0.07
0.07
0.06
0.05
0.08
0.06
0.08
0.07
0.06
0.07
0.05
0.07
0.07
0.07
0.06
0.06
0.06
0.09
0.05
0.06
0.06
0.08
0.06
0.07
0.03
0.03
0.01
0.01
0.00
0.01
0.04
0.03
0.19
0.18
0.18
0.11
0.13
0.13
0.09
0.13
0.11
0.40
0.71
0.45
0.94
0.91
0.83
0.54
0.29
0.03
0.03
0.02
0.01
0.00
0.01
0.00
0.00
0.04
0.07
0.13
0.19
0.31
0.37
0.42
0.46
0.54
0.55
0.60
0.61
0.64
0.62
0.61
0.60
0.55
0.48
0.37
0.15
0.03
0.01
0.00
0.01
0.01
0.01
0.01
0.01
0.01
0.01
0.01
0.01
0.01
0.01
0.01
0.01
0.00
0.01
0.00
0.00
0.00
0.01
0.00
0.00
0.01
0.01
0.01
0.01
0.01
0.01
0.01
0.01
0.02
0.03
0.02
0.01
0.03
0.02
0.01
0.02
0.02
0.03
0.01
0.01
0.01
0.01
0.01
0.18
0.03
0.00
0.01
0.08
0.06
0.08
0.05
0.07
0.07
0.07
0.06
0.04
0.48
0.73
0.50
0.94
0.94
0.83
0.51
0.22
0.04
0.02
0.01
0.00
0.00
0.01
0.03
0.03
0.07
0.13
0.18
0.18
0.28
0.33
0.39
0.42
0.43
0.48
0.54
0.54
0.54
0.54
0.51
0.48
0.40
0.33
0.15
0.07
0.00
0.00
0.00
0.01
0.01
0.01
0.01
0.01
0.01
0.01
0.01
0.01
0.01
0.01
0.00
0.01
0.00
0.00
0.00
0.00
0.01
0.00
0.00
0.00
0.00
0.00
0.01
0.01
0.01
0.01
0.01
0.02
0.02
0.02
0.03
0.03
0.02
0.04
0.03
0.03
0.03
0.03
0.02
0.03
0.02
0.01
0.00
0.01
0.03
0.01
0.13
0.01
0.01
0.03
0.06
0.06
0.03
0.04
0.03
0.03
0.04
0.03
0.00
0.57
0.79
0.77
0.92
0.84
0.79
0.45
0.03
0.01
0.01
0.00
0.00
0.00
0.03
0.07
0.07
0.10
0.18
0.18
0.23
0.28
0.37
0.37
0.42
0.48
0.48
0.53
0.54
0.54
0.51
0.46
0.43
0.40
0.33
0.15
0.10
0.01
0.01
0.00
0.01
0.01
0.01
0.01
0.03
0.01
0.01
0.00
0.01
0.04
0.01
0.01
0.04
0.01
0.03
0.01
0.01
0.01
0.28
0.43
0.73
0.80
0.57
0.52
0.77
0.76
0.62
0.23
0.92
0.98
0.98
0.91
0.67
0.31
0.03
0.27
0.07
0.03
0.05
0.06
0.05
0.03
0.03
0.03
0.03
0.01
0.04
0.09
0.19
0.25
0.34
0.36
0.28
0.22
0.14
0.08
0.01
0.01
0.13
0.19
0.31
0.23
0.23
0.10
0.03
0.00
0.00
0.01
0.01
0.02
0.02
0.01
0.02
0.01
0.02
0.01
0.01
0.03
0.01
0.01
0.02
0.03
0.02
0.01
0.02
0.03
0.04
0.03
0.03
0.03
0.03
0.03
0.03
0.03
0.02
0.03
0.03
0.03
0.02
0.02
0.03
0.02
0.03
0.03
0.02
0.01
0.03
0.03
0.03
0.02
0.03
0.03
0.03
0.03
0.02
0.03
0.04
0.03
0.04
0.03
0.03
0.04
0.04
0.03
0.04
0.04
0.03
0.03
0.04
0.04
0.03
0.03
0.04
0.04
0.03
0.03
0.03
0.03
0.01
0.01
0.01
0.00
0.04
0.01
0.00
0.02
0.05
0.11
0.09
0.09
0.09
0.09
0.08
0.08
0.14
0.01
0.57
0.67
0.82
0.88
0.81
0.60
0.45
0.09
0.08
0.04
0.03
0.01
0.01
0.00
0.01
0.00
0.03
0.07
0.13
0.13
0.19
0.23
0.39
0.39
0.51
0.54
0.60
0.61
0.64
0.65
0.67
0.67
0.67
0.64
0.57
0.46
0.23
0.07
0.00
0.00
0.00
0.01
0.01
0.00
0.00
0.00
0.01
0.01
0.00
0.01
0.01
0.00
0.01
0.01
0.01
0.01
0.00
0.01
0.19
0.40
0.45
0.13
0.79
0.98
1.00
1.00
1.00
1.00
1.00
0.99
1.00
1.00
0.98
0.90
0.76
0.19
0.44
0.45
0.46
0.54
0.57
0.61
0.61
0.70
0.77
0.80
0.83
0.86
0.89
0.91
0.93
0.94
0.95
0.95
0.95
0.95
0.95
0.95
0.94
0.89
0.83
0.75
0.56
0.45
0.40
0.28
0.20
0.19
0.14
0.14
0.11
0.11
0.11
0.11
0.11
0.08
0.11
0.08
0.08
0.06
0.09
0.07
0.06
0.07
0.06
0.05
0.06
0.07
0.07
0.07
0.05
0.07
0.03
0.07
0.03
0.05
0.03
0.03
0.03
0.03
0.05
0.04
0.04
0.03
0.03
0.03
0.03
0.03
0.03
0.03
0.03
0.03
0.03
0.03
0.03
0.03
0.03
0.05
0.03
0.05
0.03
0.03
0.05
0.05
0.05
0.07
0.07
0.06
0.05
0.07
0.08
0.06
0.07
0.03
0.03
0.02
0.02
0.01
0.01
0.03
0.05
0.19
0.20
0.20
0.19
0.18
0.19
0.18
0.19
0.22
0.19
0.64
0.22
0.92
0.94
0.82
0.56
0.40
0.06
0.06
0.03
0.03
0.03
0.01
0.01
0.01
0.01
0.01
0.01
0.03
0.01
0.07
0.13
0.15
0.19
0.31
0.37
0.37
0.46
0.53
0.54
0.54
0.54
0.51
0.48
0.28
0.03
0.01
0.03
0.07
0.07
0.08
0.08
0.08
0.06
0.07
0.06
0.06
0.06
0.05
0.06
0.07
0.03
0.05
0.05
0.03
0.03
0.05
0.03
0.07
0.05
0.06
0.07
0.06
0.07
0.06
0.08
0.09
0.08
0.11
0.13
0.13
0.14
0.09
0.09
0.07
0.07
0.03
0.04
0.01
0.05
0.08
0.20
0.27
0.28
0.28
0.22
0.22
0.22
0.22
0.22
0.25
0.15
0.64
0.36
0.93
0.91
0.83
0.57
0.43
0.13
0.13
0.13
0.08
0.05
0.05
0.03
0.04
0.03
0.04
0.03
0.01
0.01
0.01
0.00
0.00
0.00
0.00
0.01
0.00
0.00
0.00
0.00
0.00
0.00
0.01
0.02
0.03
0.05
0.07
0.05
0.05
0.05
0.03
0.03
0.03
0.04
0.03
0.04
0.03
0.04
0.03
0.03
0.03
0.03
0.03
0.03
0.04
0.03
0.04
0.04
0.03
0.04
0.04
0.03
0.03
0.05
0.03
0.07
0.03
0.07
0.07
0.05
0.05
0.03
0.03
0.04
0.01
0.01
0.01
0.00
0.03
0.06
0.18
0.13
0.19
0.19
0.13
0.14
0.14
0.19
0.18
0.15
0.69
0.03
0.89
0.84
0.81
0.57
0.45
0.08
0.09
0.05
0.03
0.03
0.03
0.02
0.01
0.01
0.01
0.01
0.01
0.01
0.01
0.00
0.00
0.00
0.00
0.01
0.01
0.03
0.03
0.00
0.03
0.00
0.00
0.00
0.01
0.02
0.03
0.04
0.04
0.03
0.04
0.03
0.03
0.02
0.02
0.01
0.01
0.01
0.01
0.01
0.01
0.00
0.01
0.00
0.00
0.00
0.00
0.00
0.00
0.00
0.00
0.01
0.01
0.01
0.01
0.01
0.01
0.01
0.01
0.01
0.01
0.01
0.01
0.00
0.01
0.00
0.07
0.15
0.18
0.01
0.00
0.03
0.05
0.07
0.04
0.03
0.04
0.03
0.03
0.03
0.13
0.63
0.80
0.85
0.94
0.89
0.82
0.45
0.02
0.00
0.00
0.01
0.03
0.10
0.07
0.13
0.13
0.19
0.23
0.33
0.33
0.42
0.46
0.48
0.54
0.57
0.60
0.61
0.63
0.63
0.63
0.62
0.60
0.55
0.48
0.33
0.18
0.10
0.01
0.01
0.00
0.01
0.00
0.00
0.00
0.01
0.00
0.00
0.00
0.00
0.00
0.00
0.00
0.00
0.00
0.00
0.00
0.00
0.00
0.01
0.00
0.00
0.00
0.00
0.00
0.00
0.01
0.00
0.01
0.01
0.01
0.01
0.01
0.01
0.01
0.00
0.00
0.00
0.07
0.07
0.18
0.03
0.00
0.03
0.07
0.07
0.05
0.03
0.04
0.03
0.03
0.05
0.03
0.51
0.75
0.45
0.92
0.90
0.82
0.45
0.20
0.03
0.02
0.01
0.01
0.00
0.01
0.00
0.00
0.01
0.03
0.10
0.10
0.13
0.15
0.19
0.28
0.28
0.39
0.37
0.39
0.37
0.37
0.31
0.28
0.18
0.10
0.00
0.00
0.01
0.01
0.01
0.03
0.02
0.03
0.03
0.02
0.02
0.02
0.03
0.03
0.03
0.03
0.03
0.02
0.01
0.02
0.02
0.01
0.01
0.02
0.02
0.03
0.03
0.03
0.03
0.04
0.03
0.03
0.03
0.03
0.03
0.05
0.05
0.06
0.05
0.07
0.07
0.08
0.06
0.08
0.08
0.03
0.05
0.07
0.04
0.01
0.01
0.03
0.08
0.20
0.22
0.22
0.22
0.22
0.19
0.22
0.22
0.22
0.07
0.37
0.73
0.77
0.92
0.87
0.82
0.53
0.31
0.19
0.19
0.13
0.09
0.06
0.07
0.05
0.03
0.04
0.03
0.04
0.03
0.03
0.01
0.01
0.01
0.01
0.01
0.00
0.01
0.01
0.01
0.03
0.04
0.05
0.05
0.09
0.13
0.19
0.18
0.14
0.14
0.13
0.13
0.09
0.09
0.13
0.09
0.08
0.08
0.11
0.08
0.08
0.08
0.09
0.09
0.07
0.07
0.08
0.08
0.08
0.09
0.09
0.09
0.11
0.19
0.11
0.14
0.18
0.19
0.19
0.19
0.19
0.22
0.19
0.19
0.19
0.22
0.14
0.14
0.19
0.08
0.07
0.03
0.07
0.11
0.19
0.28
0.31
0.27
0.28
0.27
0.28
0.22
0.27
0.29
0.00
0.55
0.13
0.89
0.85
0.82
0.62
0.46
0.22
0.22
0.19
0.13
0.11
0.09
0.06
0.07
0.05
0.05
0.03
0.03
0.03
0.03
0.04
0.03
0.02
0.01
0.01
0.01
0.01
0.01
0.01
0.03
0.03
0.04
0.03
0.05
0.03
0.05
0.07
0.07
0.03
0.03
0.05
0.03
0.04
0.03
0.03
0.04
0.02
0.03
0.03
0.02
0.01
0.01
0.01
0.01
0.01
0.01
0.02
0.01
0.01
0.01
0.01
0.01
0.01
0.01
0.02
0.01
0.01
0.01
0.01
0.01
0.02
0.02
0.02
0.02
0.00
0.00
0.01
0.03
0.04
0.13
0.01
0.00
0.03
0.08
0.06
0.05
0.07
0.07
0.07
0.05
0.07
0.00
0.62
0.75
0.79
0.94
0.89
0.82
0.45
0.08
0.01
0.00
0.01
0.00
0.04
0.07
0.13
0.15
0.19
0.23
0.31
0.31
0.40
0.40
0.43
0.51
0.54
0.57
0.60
0.61
0.62
0.61
0.59
0.55
0.51
0.40
0.18
0.15
0.01
0.00
0.01
0.01
0.01
0.00
0.01
0.01
0.03
0.00
0.01
0.00
0.00
0.00
0.03
0.01
0.04
0.04
0.07
0.10
0.13
0.13
0.10
0.15
0.10
0.10
0.10
0.10
0.04
0.04
0.04
0.03
0.03
0.01
0.03
0.01
0.01
0.00
0.00
0.00
0.00
0.01
0.01
0.01
0.13
0.03
0.15
0.18
0.40
0.31
0.10
0.03
0.02
0.01
0.02
0.01
0.01
0.01
0.01
0.01
0.01
0.59
0.73
0.73
0.90
0.94
0.80
0.69
0.40
0.00
0.01
0.03
0.07
0.15
0.15
0.18
0.19
0.33
0.31
0.37
0.37
0.42
0.42
0.48
0.51
0.54
0.55
0.57
0.60
0.60
0.60
0.59
0.54
0.51
0.42
0.37
0.23
0.10
0.07
0.04
0.04
0.04
0.04
0.04
0.13
0.10
0.10
0.10
0.10
0.10
0.10
0.15
0.13
0.15
0.13
0.19
0.23
0.23
0.18
0.31
0.23
0.28
0.19
0.19
0.18
0.15
0.13
0.10
0.13
0.04
0.04
0.04
0.07
0.01
0.03
0.03
0.01
0.01
0.00
0.01
0.01
0.00
0.00
0.01
0.01
0.03
0.07
0.03
0.19
0.23
0.33
0.15
0.04
0.00
0.03
0.01
0.01
0.01
0.01
0.01
0.01
0.01
0.10
0.65
0.79
0.62
0.91
0.87
0.80
0.46
0.06
0.00
0.00
0.01
0.04
0.10
0.10
0.15
0.18
0.18
0.23
0.28
0.37
0.39
0.40
0.42
0.43
0.46
0.51
0.54
0.54
0.51
0.48
0.42
0.40
0.33
0.18
0.07
0.01
0.00
0.00
0.01
0.01
0.03
0.00
0.01
0.03
0.03
0.01
0.04
0.01
0.03
0.01
0.03
0.03
0.04
0.07
0.07
0.07
0.03
0.04
0.10
0.13
0.00
0.02
0.00
0.04
0.13
0.01
0.63
0.92
1.00
1.00
1.00
1.00
1.00
0.98
0.98
1.00
0.99
0.93
0.79
0.01
0.31
0.45
0.45
0.51
0.53
0.57
0.61
0.61
0.72
0.76
0.81
0.83
0.88
0.89
0.91
0.94
0.94
0.95
0.95
0.95
0.95
0.94
0.91
0.87
0.81
0.71
0.53
0.45
0.36
0.22
0.13
0.11
0.11
0.08
0.06
0.03
0.03
0.03
0.03
0.03
0.03
0.04
0.03
0.03
0.03
0.02
0.03
0.03
0.02
0.02
0.02
0.01
0.02
0.01
0.01
0.01
0.01
0.01
0.01
0.02
0.01
0.03
0.02
0.02
0.02
0.03
0.03
0.04
0.03
0.03
0.03
0.03
0.03
0.03
0.03
0.03
0.03
0.02
0.03
0.03
0.03
0.03
0.04
0.03
0.04
0.03
0.04
0.03
0.04
0.04
0.03
0.04
0.04
0.04
0.03
0.04
0.04
0.03
0.04
0.04
0.04
0.03
0.01
0.01
0.00
0.01
0.13
0.04
0.00
0.01
0.03
0.06
0.07
0.07
0.05
0.05
0.05
0.05
0.03
0.39
0.68
0.59
0.91
0.94
0.82
0.70
0.45
0.02
0.01
0.00
0.00
0.01
0.10
0.13
0.18
0.23
0.31
0.37
0.40
0.46
0.51
0.55
0.59
0.60
0.64
0.65
0.68
0.71
0.73
0.73
0.73
0.73
0.72
0.68
0.63
0.54
0.40
0.19
0.07
0.03
0.01
0.03
0.00
0.04
0.03
0.03
0.01
0.03
0.01
0.01
0.03
0.03
0.03
0.04
0.07
0.10
0.10
0.07
0.10
0.07
0.18
0.01
0.00
0.03
0.31
0.19
0.62
0.72
0.93
0.98
0.98
0.98
0.98
0.98
1.00
0.99
0.95
0.67
0.54
0.02
0.18
0.28
0.34
0.38
0.43
0.45
0.45
0.45
0.45
0.52
0.60
0.71
0.77
0.80
0.82
0.83
0.84
0.87
0.87
0.85
0.83
0.81
0.77
0.62
0.50
0.44
0.28
0.13
0.03
0.04
0.03
0.03
0.02
0.01
0.01
0.01
0.01
0.01
0.00
0.00
0.01
0.00
0.01
0.00
0.01
0.00
0.00
0.01
0.01
0.01
0.01
0.01
0.01
0.01
0.01
0.01
0.01
0.01
0.01
0.02
0.01
0.02
0.01
0.02
0.01
0.02
0.01
0.02
0.02
0.03
0.02
0.02
0.02
0.03
0.03
0.03
0.03
0.03
0.03
0.03
0.03
0.04
0.03
0.04
0.03
0.03
0.03
0.03
0.03
0.03
0.07
0.05
0.03
0.07
0.03
0.05
0.05
0.05
0.05
0.05
0.03
0.04
0.01
0.03
0.00
0.00
0.04
0.00
0.02
0.05
0.14
0.18
0.14
0.09
0.13
0.09
0.11
0.11
0.03
0.48
0.75
0.77
0.93
0.89
0.82
0.51
0.22
0.09
0.06
0.03
0.04
0.03
0.01
0.02
0.01
0.01
0.01
0.00
0.00
0.00
0.00
0.01
0.00
0.03
0.07
0.07
0.15
0.19
0.31
0.28
0.33
0.31
0.33
0.18
0.03
0.00
0.03
0.05
0.03
0.05
0.05
0.03
0.05
0.03
0.03
0.04
0.04
0.03
0.03
0.03
0.03
0.03
0.05
0.03
0.03
0.03
0.03
0.03
0.03
0.05
0.03
0.07
0.07
0.06
0.08
0.06
0.09
0.09
0.08
0.14
0.09
0.11
0.06
0.03
0.07
0.03
0.03
0.00
0.01
0.04
0.05
0.14
0.19
0.19
0.14
0.18
0.19
0.19
0.18
0.22
0.00
0.57
0.72
0.78
0.89
0.82
0.71
0.52
0.20
0.14
0.07
0.03
0.04
0.03
0.02
0.01
0.01
0.01
0.01
0.01
0.00
0.00
0.00
0.01
0.03
0.04
0.13
0.13
0.18
0.15
0.15
0.10
0.10
0.07
0.03
0.00
0.01
0.01
0.02
0.02
0.03
0.01
0.01
0.01
0.02
0.01
0.01
0.01
0.01
0.01
0.01
0.01
0.01
0.00
0.01
0.01
0.01
0.01
0.01
0.01
0.01
0.01
0.01
0.02
0.01
0.02
0.03
0.03
0.03
0.03
0.04
0.04
0.04
0.03
0.04
0.03
0.03
0.01
0.00
0.01
0.01
0.01
0.13
0.00
0.01
0.03
0.09
0.11
0.08
0.06
0.05
0.06
0.07
0.06
0.03
0.53
0.68
0.20
0.94
0.94
0.83
0.62
0.43
0.03
0.03
0.02
0.01
0.01
0.00
0.00
0.01
0.00
0.04
0.03
0.10
0.10
0.18
0.19
0.31
0.39
0.42
0.43
0.46
0.53
0.51
0.46
0.39
0.37
0.19
0.04
0.01
0.01
0.03
0.03
0.07
0.03
0.03
0.03
0.03
0.03
0.03
0.03
0.03
0.03
0.03
0.03
0.03
0.03
0.02
0.03
0.01
0.01
0.01
0.01
0.01
0.01
0.01
0.01
0.01
0.01
0.03
0.03
0.03
0.03
0.04
0.03
0.03
0.03
0.03
0.03
0.03
0.04
0.04
0.03
0.01
0.01
0.03
0.00
0.00
0.01
0.01
0.03
0.06
0.19
0.14
0.14
0.09
0.13
0.13
0.11
0.13
0.03
0.43
0.74
0.77
0.94
0.89
0.83
0.48
0.20
0.08
0.05
0.03
0.03
0.01
0.01
0.01
0.01
0.00
0.00
0.01
0.01
0.03
0.07
0.13
0.19
0.19
0.33
0.33
0.37
0.37
0.37
0.28
0.19
0.15
0.10
0.00
0.00
0.01
0.01
0.01
0.02
0.01
0.01
0.01
0.01
0.00
0.01
0.01
0.01
0.01
0.01
0.01
0.01
0.01
0.01
0.01
0.00
0.00
0.00
0.00
0.00
0.01
0.00
0.01
0.00
0.01
0.01
0.01
0.01
0.01
0.02
0.02
0.02
0.01
0.03
0.03
0.04
0.03
0.04
0.03
0.03
0.03
0.03
0.03
0.03
0.03
0.03
0.01
0.00
0.00
0.01
0.04
0.09
0.14
0.18
0.13
0.09
0.09
0.11
0.11
0.11
0.01
0.54
0.75
0.77
0.91
0.86
0.81
0.51
0.22
0.14
0.07
0.03
0.03
0.04
0.03
0.03
0.02
0.02
0.01
0.00
0.01
0.01
0.00
0.00
0.00
0.00
0.01
0.00
0.00
0.01
0.00
0.00
0.01
0.01
0.01
0.03
0.03
0.03
0.03
0.05
0.03
0.03
0.03
0.04
0.04
0.03
0.04
0.04
0.03
0.04
0.04
0.03
0.03
0.03
0.03
0.04
0.04
0.04
0.03
0.03
0.03
0.03
0.03
0.05
0.07
0.07
0.07
0.08
0.09
0.07
0.06
0.08
0.09
0.08
0.09
0.08
0.06
0.05
0.07
0.01
0.01
0.01
0.70
0.76
0.77
0.86
0.90
0.95
0.96
0.92
0.92
0.94
0.98
0.96
0.73
0.01
0.44
0.31
0.45
0.45
0.45
0.45
0.45
0.50
0.53
0.57
0.62
0.67
0.75
0.77
0.80
0.82
0.83
0.84
0.84
0.84
0.84
0.83
0.80
0.77
0.70
0.57
0.45
0.43
0.25
0.09
0.03
0.02
0.01
0.01
0.02
0.02
0.02
0.02
0.03
0.03
0.03
0.03
0.03
0.02
0.03
0.01
0.02
0.02
0.02
0.03
0.03
0.03
0.02
0.03
0.03
0.03
0.03
0.03
0.02
0.03
0.03
0.03
0.02
0.03
0.03
0.03
0.03
0.02
0.03
0.03
0.02
0.02
0.03
0.03
0.03
0.03
0.03
0.04
0.03
0.03
0.03
0.04
0.01
0.00
0.01
0.00
0.01
0.10
0.01
0.01
0.03
0.08
0.09
0.08
0.05
0.03
0.07
0.03
0.05
0.03
0.55
0.73
0.50
0.94
0.94
0.83
0.51
0.27
0.02
0.01
0.00
0.01
0.00
0.04
0.13
0.15
0.19
0.23
0.33
0.33
0.40
0.42
0.48
0.54
0.57
0.60
0.62
0.63
0.64
0.65
0.64
0.64
0.61
0.57
0.46
0.33
0.15
0.03
0.01
0.00
0.01
0.00
0.01
0.01
0.03
0.01
0.00
0.01
0.00
0.00
0.00
0.00
0.00
0.01
0.03
0.04
0.03
0.01
0.03
0.01
0.18
0.04
0.03
0.20
0.78
0.97
0.98
0.98
0.98
0.98
1.00
0.98
0.94
0.57
0.42
0.02
0.06
0.19
0.22
0.28
0.27
0.40
0.36
0.43
0.40
0.45
0.45
0.56
0.64
0.74
0.75
0.77
0.79
0.80
0.80
0.77
0.75
0.66
0.57
0.45
0.44
0.28
0.13
0.07
0.03
0.03
0.04
0.03
0.03
0.04
0.03
0.03
0.03
0.04
0.03
0.02
0.03
0.03
0.03
0.04
0.03
0.03
0.03
0.04
0.03
0.03
0.03
0.03
0.05
0.03
0.03
0.03
0.05
0.05
0.03
0.05
0.05
0.05
0.03
0.07
0.03
0.05
0.03
0.05
0.07
0.07
0.07
0.08
0.06
0.07
0.06
0.07
0.08
0.07
0.08
0.09
0.08
0.07
0.09
0.08
0.09
0.08
0.08
0.09
0.08
0.08
0.09
0.11
0.08
0.08
0.08
0.13
0.06
0.09
0.08
0.08
0.06
0.06
0.05
0.03
0.03
0.01
0.01
0.03
0.00
0.01
0.04
0.13
0.18
0.18
0.14
0.14
0.18
0.14
0.14
0.20
0.07
0.54
0.53
0.89
0.91
0.80
0.67
0.45
0.14
0.18
0.08
0.05
0.04
0.03
0.03
0.01
0.01
0.01
0.01
0.01
0.00
0.00
0.00
0.01
0.00
0.03
0.04
0.10
0.10
0.13
0.23
0.19
0.28
0.19
0.19
0.03
0.01
0.01
0.04
0.03
0.03
0.07
0.05
0.03
0.04
0.03
0.03
0.02
0.03
0.03
0.03
0.02
0.03
0.03
0.03
0.02
0.03
0.03
0.03
0.03
0.03
0.04
0.04
0.03
0.03
0.05
0.03
0.07
0.05
0.03
0.03
0.05
0.07
0.05
0.05
0.03
0.03
0.04
0.01
0.00
0.00
0.01
0.04
0.09
0.13
0.11
0.09
0.11
0.08
0.08
0.07
0.06
0.01
0.60
0.75
0.77
0.89
0.82
0.73
0.48
0.09
0.04
0.02
0.01
0.00
0.00
0.01
0.01
0.04
0.03
0.10
0.10
0.19
0.19
0.28
0.37
0.42
0.46
0.51
0.54
0.55
0.57
0.54
0.54
0.51
0.43
0.31
0.18
0.07
0.01
0.00
0.00
0.00
0.00
0.00
0.01
0.00
0.01
0.00
0.00
0.00
0.01
0.01
0.00
0.00
0.00
0.00
0.01
0.01
0.00
0.00
0.00
0.01
0.00
0.00
0.03
0.01
0.33
0.48
0.54
0.81
0.87
0.92
0.95
0.98
0.98
0.98
0.98
0.98
0.98
0.98
0.94
0.69
0.07
0.01
0.08
0.19
0.29
0.43
0.45
0.45
0.48
0.51
0.53
0.60
0.64
0.70
0.75
0.77
0.80
0.82
0.82
0.82
0.82
0.80
0.77
0.72
0.62
0.48
0.44
0.28
0.09
0.03
0.01
0.00
0.00
0.00
0.01
0.00
0.00
0.01
0.01
0.00
0.00
0.00
0.00
0.00
0.00
0.00
0.00
0.00
0.00
0.00
0.01
0.00
0.00
0.00
0.01
0.00
0.00
0.01
0.01
0.01
0.01
0.00
0.01
0.01
0.01
0.01
0.01
0.01
0.01
0.01
0.02
0.01
0.02
0.02
0.01
0.02
0.01
0.02
0.01
0.01
0.01
0.02
0.01
0.01
0.02
0.02
0.02
0.02
0.03
0.02
0.03
0.03
0.03
0.04
0.03
0.03
0.01
0.01
0.00
0.01
0.10
0.01
0.01
0.02
0.09
0.13
0.11
0.09
0.08
0.06
0.06
0.06
0.08
0.23
0.62
0.67
0.90
0.94
0.81
0.67
0.44
0.03
0.03
0.01
0.01
0.00
0.00
0.03
0.03
0.07
0.13
0.15
0.18
0.28
0.33
0.33
0.39
0.42
0.43
0.51
0.53
0.55
0.57
0.57
0.55
0.57
0.54
0.48
0.39
0.18
0.01
0.00
0.01
0.01
0.02
0.03
0.01
0.01
0.01
0.02
0.01
0.02
0.02
0.01
0.03
0.02
0.02
0.03
0.02
0.03
0.03
0.03
0.03
0.03
0.03
0.03
0.03
0.03
0.05
0.03
0.07
0.07
0.08
0.08
0.06
0.09
0.13
0.13
0.13
0.13
0.08
0.08
0.09
0.03
0.04
0.02
0.05
0.11
0.25
0.31
0.29
0.28
0.31
0.27
0.28
0.27
0.29
0.19
0.23
0.67
0.59
0.93
0.89
0.83
0.59
0.40
0.19
0.19
0.13
0.09
0.09
0.09
0.07
0.05
0.03
0.03
0.03
0.03
0.04
0.03
0.01
0.01
0.01
0.01
0.01
0.01
0.01
0.01
0.03
0.02
0.03
0.03
0.07
0.08
0.06
0.09
0.09
0.06
0.11
0.08
0.07
0.05
0.07
0.07
0.06
0.07
0.07
0.06
0.05
0.04
0.04
0.04
0.10
0.28
0.51
0.79
0.85
0.93
0.95
0.98
0.99
0.98
0.97
0.97
0.98
0.97
0.90
0.46
0.13
0.34
0.45
0.45
0.45
0.46
0.50
0.51
0.52
0.52
0.62
0.69
0.75
0.79
0.82
0.82
0.83
0.84
0.85
0.84
0.84
0.83
0.82
0.77
0.72
0.60
0.46
0.44
0.36
0.22
0.14
0.11
0.11
0.09
0.09
0.08
0.06
0.06
0.07
0.07
0.07
0.06
0.06
0.06
0.08
0.08
0.07
0.08
0.07
0.06
0.07
0.07
0.05
0.05
0.03
0.05
0.05
0.03
0.03
0.03
0.03
0.03
0.03
0.04
0.04
0.04
0.03
0.03
0.04
0.03
0.04
0.03
0.04
0.03
0.03
0.03
0.03
0.03
0.03
0.03
0.03
0.03
0.05
0.05
0.03
0.03
0.03
0.03
0.03
0.03
0.03
0.03
0.04
0.03
0.04
0.04
0.03
0.03
0.03
0.02
0.01
0.00
0.00
0.01
0.01
0.19
0.01
0.00
0.01
0.06
0.08
0.07
0.05
0.03
0.05
0.03
0.07
0.03
0.54
0.73
0.45
0.92
0.92
0.83
0.50
0.22
0.01
0.01
0.00
0.01
0.04
0.10
0.15
0.23
0.19
0.31
0.37
0.42
0.42
0.51
0.53
0.55
0.59
0.62
0.64
0.67
0.67
0.70
0.71
0.72
0.71
0.71
0.68
0.63
0.54
0.39
0.23
0.07
0.04
0.04
0.03
0.03
0.10
0.10
0.10
0.10
0.10
0.15
0.10
0.15
0.13
0.13
0.13
0.18
0.15
0.18
0.15
0.01
0.18
0.10
0.43
0.39
0.53
0.67
0.93
0.98
0.98
0.98
0.98
0.99
1.00
0.98
0.90
0.63
0.54
0.03
0.01
0.05
0.03
0.22
0.34
0.42
0.45
0.46
0.51
0.52
0.59
0.65
0.73
0.77
0.80
0.82
0.83
0.85
0.84
0.83
0.82
0.77
0.69
0.54
0.45
0.34
0.14
0.03
0.02
0.01
0.01
0.01
0.01
0.00
0.00
0.00
0.00
0.01
0.00
0.01
0.00
0.00
0.01
0.00
0.01
0.00
0.00
0.00
0.00
0.00
0.00
0.00
0.00
0.00
0.00
0.01
0.00
0.01
0.13
0.19
0.62
0.80
0.77
0.88
0.90
0.97
0.98
0.98
0.97
0.97
0.98
0.98
0.86
0.54
0.27
0.09
0.40
0.42
0.44
0.45
0.46
0.48
0.53
0.57
0.61
0.67
0.73
0.77
0.79
0.81
0.82
0.83
0.83
0.83
0.82
0.82
0.76
0.75
0.67
0.60
0.52
0.45
0.44
0.31
0.19
0.19
0.13
0.13
0.13
0.11
0.09
0.09
0.09
0.13
0.08
0.09
0.03
0.03
0.28
0.48
0.36
0.22
0.91
0.88
0.98
0.99
0.99
0.98
0.85
0.73
0.18
0.07
0.27
0.40
0.44
0.45
0.45
0.45
0.50
0.52
0.56
0.59
0.64
0.67
0.75
0.77
0.80
0.82
0.83
0.84
0.84
0.84
0.83
0.81
0.77
0.71
0.57
0.45
0.45
0.34
0.22
0.18
0.11
0.14
0.08
0.06
0.06
0.07
0.06
0.06
0.05
0.07
0.07
0.07
0.06
0.06
0.08
0.05
0.06
0.06
0.09
0.05
0.03
0.03
0.03
0.01
0.00
0.31
0.19
0.60
0.76
0.60
0.81
0.86
0.94
0.96
0.92
0.92
0.92
0.96
0.95
0.76
0.01
0.44
0.44
0.45
0.45
0.46
0.51
0.53
0.60
0.62
0.71
0.74
0.77
0.80
0.82
0.83
0.84
0.86
0.87
0.87
0.87
0.84
0.83
0.82
0.77
0.72
0.60
0.46
0.45
0.34
0.19
0.09
0.07
0.03
0.03
0.03
0.03
0.04
0.03
0.04
0.03
0.04
0.04
0.03
0.03
0.02
0.01
0.01
0.01
0.01
0.01
0.01
0.01
0.02
0.01
0.01
0.01
0.01
0.01
0.01
0.01
0.01
0.01
0.01
0.01
0.01
0.01
0.01
0.01
0.01
0.01
0.01
0.00
0.03
0.07
0.15
0.13
0.01
0.00
0.03
0.06
0.06
0.06
0.07
0.03
0.03
0.03
0.03
0.00
0.60
0.79
0.78
0.94
0.89
0.82
0.45
0.03
0.01
0.01
0.00
0.03
0.04
0.10
0.10
0.19
0.23
0.33
0.39
0.43
0.43
0.51
0.54
0.57
0.60
0.61
0.63
0.65
0.67
0.65
0.67
0.67
0.65
0.60
0.57
0.43
0.31
0.15
0.07
0.04
0.01
0.00
0.03
0.03
0.01
0.00
0.00
0.00
0.01
0.03
0.03
0.03
0.04
0.04
0.07
0.07
0.04
0.03
0.04
0.03
0.03
0.00
0.00
0.00
0.00
0.00
0.00
0.01
0.01
0.01
0.01
0.00
0.00
0.00
0.04
0.04
0.19
0.03
0.01
0.04
0.11
0.09
0.09
0.06
0.08
0.06
0.06
0.09
0.08
0.46
0.70
0.14
0.94
0.94
0.83
0.60
0.43
0.07
0.07
0.05
0.03
0.03
0.01
0.01
0.01
0.00
0.00
0.00
0.00
0.01
0.03
0.04
0.10
0.13
0.15
0.19
0.19
0.19
0.19
0.13
0.15
0.10
0.04
0.00
0.00
0.01
0.01
0.03
0.03
0.03
0.03
0.03
0.03
0.03
0.03
0.03
0.03
0.03
0.03
0.02
0.02
0.01
0.01
0.01
0.01
0.01
0.01
0.01
0.01
0.03
0.02
0.02
0.01
0.01
0.15
0.33
0.59
0.82
0.85
0.94
0.95
0.98
0.98
0.98
0.98
0.97
0.98
0.98
0.87
0.07
0.40
0.19
0.44
0.43
0.45
0.45
0.45
0.50
0.53
0.65
0.67
0.73
0.75
0.77
0.80
0.82
0.82
0.83
0.84
0.84
0.83
0.83
0.80
0.77
0.70
0.57
0.45
0.45
0.28
0.14
0.08
0.07
0.03
0.03
0.03
0.06
0.05
0.03
0.07
0.05
0.03
0.05
0.03
0.07
0.07
0.03
0.05
0.07
0.06
0.05
0.05
0.05
0.06
0.07
0.07
0.07
0.05
0.07
0.07
0.07
0.06
0.07
0.07
0.06
0.07
0.06
0.05
0.08
0.07
0.06
0.06
0.06
0.06
0.06
0.06
0.07
0.06
0.03
0.06
0.08
0.07
0.07
0.07
0.05
0.05
0.07
0.07
0.07
0.05
0.07
0.05
0.07
0.05
0.08
0.06
0.06
0.05
0.03
0.03
0.01
0.02
0.03
0.00
0.01
0.03
0.11
0.14
0.13
0.11
0.09
0.09
0.08
0.13
0.09
0.19
0.64
0.67
0.77
0.82
0.82
0.57
0.45
0.07
0.07
0.03
0.04
0.01
0.01
0.00
0.00
0.00
0.00
0.00
0.01
0.01
0.03
0.01
0.04
0.04
0.10
0.13
0.18
0.23
0.31
0.33
0.37
0.40
0.40
0.40
0.31
0.15
0.04
0.01
0.00
0.01
0.01
0.01
0.00
0.04
0.04
0.03
0.07
0.07
0.07
0.04
0.10
0.07
0.18
0.01
0.01
0.46
0.42
0.63
0.73
0.81
0.94
0.98
0.98
0.98
0.98
0.99
1.00
0.99
0.95
0.68
0.57
0.05
0.18
0.22
0.29
0.40
0.40
0.44
0.42
0.45
0.50
0.57
0.69
0.75
0.77
0.80
0.82
0.83
0.84
0.85
0.85
0.83
0.82
0.77
0.70
0.53
0.45
0.29
0.11
0.04
0.01
0.01
0.01
0.00
0.00
0.00
0.01
0.00
0.01
0.01
0.00
0.00
0.01
0.01
0.00
0.01
0.00
0.01
0.00
0.00
0.00
0.01
0.00
0.01
0.01
0.00
0.00
0.00
0.19
0.31
0.51
0.79
0.85
0.90
0.92
0.96
0.98
0.98
0.98
0.98
0.98
0.98
0.94
0.69
0.07
0.04
0.29
0.27
0.38
0.43
0.45
0.46
0.45
0.51
0.56
0.61
0.70
0.74
0.77
0.80
0.82
0.82
0.83
0.83
0.83
0.81
0.77
0.74
0.65
0.51
0.45
0.19
0.13
0.03
0.01
0.03
0.03
0.03
0.01
0.01
0.01
0.01
0.01
0.01
0.01
0.00
0.19
0.28
0.03
0.95
0.95
0.80
0.48
0.08
0.03
0.00
0.07
0.10
0.15
0.23
0.23
0.28
0.37
0.40
0.40
0.46
0.51
0.54
0.59
0.60
0.64
0.67
0.69
0.69
0.71
0.71
0.70
0.68
0.65
0.59
0.42
0.31
0.15
0.07
0.03
0.01
0.00
0.00
0.00
0.00
0.01
0.00
0.00
0.00
0.00
0.00
0.00
0.01
0.00
0.01
0.01
0.01
0.01
0.01
0.01
0.01
0.02
0.02
0.03
0.03
0.02
0.03
0.04
0.03
0.02
0.01
0.01
0.13
0.65
0.80
0.75
0.88
0.92
0.98
0.98
0.96
0.95
0.95
0.98
0.97
0.75
0.07
0.44
0.31
0.44
0.45
0.45
0.45
0.51
0.53
0.60
0.64
0.71
0.76
0.80
0.82
0.83
0.84
0.86
0.87
0.87
0.86
0.84
0.83
0.81
0.77
0.71
0.61
0.50
0.45
0.34
0.19
0.11
0.07
0.03
0.03
0.04
0.03
0.04
0.04
0.03
0.03
0.03
0.03
0.02
0.02
0.02
0.01
0.03
0.01
0.02
0.03
0.03
0.02
0.01
0.03
0.03
0.02
0.02
0.03
0.03
0.03
0.03
0.03
0.03
0.03
0.03
0.04
0.04
0.04
0.04
0.03
0.04
0.03
0.03
0.03
0.03
0.03
0.03
0.01
0.01
0.01
0.01
0.03
0.01
0.01
0.03
0.11
0.13
0.13
0.09
0.09
0.06
0.08
0.06
0.09
0.01
0.55
0.75
0.75
0.89
0.83
0.76
0.51
0.14
0.03
0.02
0.01
0.01
0.00
0.01
0.00
0.01
0.03
0.10
0.10
0.19
0.28
0.33
0.39
0.42
0.46
0.53
0.55
0.59
0.61
0.62
0.63
0.63
0.62
0.55
0.48
0.28
0.13
0.01
0.01
0.00
0.00
0.00
0.00
0.00
0.00
0.00
0.00
0.00
0.00
0.01
0.01
0.01
0.00
0.00
0.01
0.01
0.00
0.00
0.00
0.00
0.00
0.00
0.01
0.01
0.01
0.01
0.01
0.01
0.00
0.01
0.00
0.01
0.07
0.28
0.03
0.01
0.03
0.06
0.07
0.06
0.07
0.03
0.07
0.03
0.06
0.05
0.54
0.73
0.01
0.94
0.94
0.83
0.54
0.36
0.01
0.02
0.00
0.01
0.00
0.00
0.04
0.04
0.10
0.10
0.19
0.19
0.31
0.33
0.37
0.40
0.43
0.48
0.53
0.54
0.53
0.51
0.51
0.48
0.42
0.33
0.19
0.15
0.07
0.01
0.03
0.03
0.01
0.01
0.01
0.01
0.00
0.01
0.01
0.01
0.01
0.00
0.03
0.04
0.04
0.13
0.48
0.63
0.71
0.86
0.93
0.98
0.98
1.00
1.00
0.99
0.98
0.98
0.98
0.98
0.95
0.68
0.11
0.22
0.44
0.45
0.46
0.46
0.50
0.53
0.50
0.57
0.66
0.74
0.77
0.81
0.82
0.83
0.84
0.84
0.86
0.85
0.83
0.82
0.80
0.75
0.65
0.53
0.45
0.40
0.22
0.11
0.05
0.07
0.03
0.07
0.03
0.03
0.03
0.05
0.03
0.03
0.03
0.04
0.03
0.04
0.03
0.04
0.03
0.03
0.04
0.03
0.03
0.04
0.03
0.03
0.04
0.03
0.03
0.04
0.04
0.03
0.04
0.03
0.04
0.03
0.05
0.03
0.03
0.03
0.03
0.03
0.07
0.05
0.07
0.05
0.05
0.03
0.08
0.05
0.07
0.07
0.09
0.06
0.07
0.08
0.06
0.06
0.07
0.11
0.06
0.08
0.08
0.11
0.09
0.11
0.09
0.09
0.08
0.03
0.03
0.03
0.03
0.01
0.01
0.04
0.07
0.22
0.22
0.22
0.20
0.19
0.22
0.14
0.08
0.08
0.67
0.67
0.85
0.51
0.54
0.78
0.57
0.45
0.22
0.22
0.19
0.19
0.19
0.13
0.14
0.18
0.18
0.14
0.18
0.14
0.18
0.14
0.19
0.20
0.25
0.27
0.29
0.29
0.29
0.28
0.27
0.22
0.19
0.13
0.09
0.07
0.05
0.07
0.05
0.03
0.03
0.03
0.04
0.04
0.03
0.03
0.03
0.03
0.03
0.02
0.03
0.03
0.04
0.02
0.03
0.03
0.18
0.44
0.48
0.52
0.18
0.81
0.98
1.00
1.00
1.00
1.00
0.98
0.98
1.00
1.00
0.97
0.86
0.37
0.19
0.44
0.45
0.56
0.69
0.74
0.76
0.77
0.81
0.83
0.84
0.88
0.90
0.92
0.94
0.95
0.95
0.95
0.95
0.95
0.95
0.95
0.94
0.89
0.83
0.76
0.59
0.46
0.45
0.36
0.28
0.22
0.22
0.19
0.18
0.18
0.18
0.11
0.13
0.11
0.11
0.13
0.09
0.08
0.08
0.06
0.05
0.07
0.03
0.04
0.00
0.03
0.48
0.80
0.81
0.92
0.93
0.98
0.98
0.98
0.98
0.98
0.98
0.98
0.81
0.03
0.36
0.36
0.45
0.44
0.45
0.45
0.50
0.52
0.57
0.61
0.67
0.73
0.76
0.80
0.82
0.83
0.83
0.83
0.83
0.82
0.82
0.77
0.74
0.59
0.51
0.45
0.43
0.36
0.29
0.22
0.14
0.11
0.18
0.19
0.19
0.19
0.19
0.19
0.20
0.22
0.40
0.14
0.48
0.95
0.95
0.90
0.71
0.43
0.13
0.08
0.03
0.04
0.03
0.01
0.01
0.00
0.00
0.01
0.00
0.03
0.04
0.15
0.18
0.28
0.39
0.42
0.46
0.46
0.51
0.53
0.46
0.37
0.18
0.00
0.01
0.04
0.03
0.06
0.09
0.11
0.11
0.11
0.14
0.14
0.13
0.14
0.14
0.18
0.13
0.13
0.14
0.18
0.14
0.19
0.18
0.18
0.18
0.18
0.19
0.19
0.18
0.19
0.19
0.19
0.19
0.19
0.19
0.19
0.18
0.08
0.09
0.01
0.00
0.60
0.79
0.73
0.86
0.85
0.95
0.97
0.95
0.94
0.94
0.97
0.95
0.62
0.09
0.45
0.45
0.51
0.50
0.54
0.57
0.62
0.67
0.73
0.76
0.79
0.82
0.83
0.84
0.87
0.89
0.89
0.89
0.89
0.89
0.89
0.86
0.83
0.82
0.77
0.71
0.59
0.45
0.44
0.36
0.28
0.19
0.14
0.14
0.14
0.13
0.11
0.13
0.13
0.09
0.08
0.09
0.08
0.09
0.06
0.08
0.08
0.06
0.06
0.06
0.09
0.06
0.09
0.06
0.09
0.06
0.09
0.08
0.09
0.06
0.09
0.06
0.09
0.08
0.09
0.09
0.11
0.09
0.09
0.09
0.11
0.09
0.08
0.07
0.03
0.07
0.01
0.03
0.01
0.01
0.03
0.06
0.22
0.19
0.19
0.18
0.14
0.18
0.18
0.14
0.19
0.19
0.64
0.68
0.90
0.92
0.82
0.67
0.45
0.07
0.08
0.05
0.04
0.03
0.01
0.01
0.00
0.00
0.00
0.00
0.01
0.01
0.03
0.10
0.07
0.10
0.10
0.23
0.19
0.18
0.18
0.23
0.31
0.28
0.18
0.15
0.03
0.01
0.00
0.01
0.01
0.01
0.01
0.00
0.01
0.01
0.01
0.01
0.01
0.01
0.00
0.01
0.01
0.00
0.00
0.00
0.00
0.00
0.00
0.00
0.01
0.01
0.01
0.01
0.01
0.01
0.01
0.01
0.01
0.01
0.01
0.00
0.04
0.03
0.23
0.03
0.00
0.02
0.07
0.05
0.05
0.03
0.03
0.03
0.05
0.03
0.08
0.42
0.74
0.15
0.89
0.84
0.80
0.52
0.40
0.03
0.03
0.01
0.00
0.00
0.00
0.04
0.04
0.10
0.10
0.15
0.19
0.23
0.28
0.31
0.33
0.39
0.40
0.46
0.43
0.43
0.42
0.42
0.39
0.39
0.23
0.19
0.15
0.13
0.10
0.07
0.07
0.04
0.10
0.10
0.13
0.07
0.15
0.15
0.13
0.18
0.18
0.19
0.19
0.31
0.37
0.37
0.64
0.69
0.78
0.92
0.94
0.98
0.99
1.00
1.00
0.99
0.98
0.98
0.99
0.98
0.92
0.01
0.03
0.22
0.34
0.40
0.45
0.45
0.45
0.45
0.50
0.52
0.53
0.57
0.70
0.75
0.80
0.82
0.83
0.83
0.82
0.82
0.80
0.76
0.70
0.57
0.46
0.45
0.25
0.06
0.01
0.00
0.01
0.01
0.01
0.00
0.01
0.01
0.00
0.01
0.00
0.01
0.01
0.03
0.01
0.01
0.00
0.01
0.01
0.01
0.01
0.03
0.01
0.01
0.00
0.00
0.01
0.00
0.01
0.01
0.00
0.00
0.00
0.00
0.00
0.01
0.00
0.01
0.00
0.01
0.00
0.00
0.00
0.00
0.00
0.00
0.00
0.00
0.00
0.00
0.00
0.00
0.00
0.00
0.00
0.00
0.00
0.00
0.00
0.00
0.00
0.00
0.00
0.00
0.00
0.00
0.00
0.00
0.01
0.00
0.00
0.00
0.04
0.01
0.13
0.15
0.37
0.07
0.01
0.01
0.03
0.03
0.03
0.03
0.01
0.00
0.00
0.64
0.73
0.80
0.93
0.67
0.03
0.71
0.51
0.38
0.03
0.03
0.04
0.03
0.03
0.02
0.03
0.01
0.02
0.03
0.03
0.03
0.03
0.07
0.07
0.11
0.13
0.14
0.19
0.22
0.20
0.20
0.20
0.14
0.09
0.05
0.03
0.01
0.01
0.01
0.01
0.01
0.03
0.04
0.10
0.13
0.13
0.13
0.15
0.15
0.13
0.18
0.18
0.19
0.18
0.13
0.15
0.10
0.00
0.28
0.44
0.45
0.03
0.90
0.99
1.00
1.00
1.00
1.00
1.00
1.00
1.00
1.00
0.96
0.86
0.03
0.25
0.42
0.45
0.45
0.52
0.61
0.71
0.77
0.80
0.82
0.84
0.87
0.89
0.91
0.94
0.95
0.95
0.95
0.95
0.95
0.95
0.95
0.94
0.89
0.82
0.73
0.53
0.45
0.31
0.22
0.18
0.13
0.09
0.08
0.07
0.06
0.07
0.07
0.03
0.03
0.05
0.05
0.03
0.04
0.04
0.04
0.04
0.03
0.03
0.03
0.03
0.04
0.10
0.19
0.74
0.78
0.85
0.88
0.95
0.98
0.98
0.96
0.96
0.98
0.98
0.91
0.62
0.36
0.20
0.43
0.45
0.45
0.45
0.45
0.50
0.53
0.60
0.64
0.72
0.75
0.77
0.80
0.82
0.83
0.83
0.83
0.83
0.82
0.80
0.76
0.74
0.62
0.51
0.45
0.25
0.19
0.08
0.09
0.13
0.19
0.11
0.14
0.14
0.18
0.18
0.13
0.18
0.18
0.20
0.00
0.65
0.89
0.95
0.83
0.76
0.36
0.06
0.11
0.06
0.03
0.03
0.03
0.02
0.01
0.01
0.00
0.00
0.01
0.07
0.15
0.18
0.28
0.39
0.43
0.48
0.48
0.51
0.51
0.46
0.40
0.28
0.10
0.00
0.01
0.03
0.03
0.03
0.03
0.03
0.05
0.07
0.05
0.03
0.05
0.03
0.03
0.04
0.03
0.03
0.04
0.03
0.04
0.03
0.04
0.04
0.04
0.03
0.04
0.04
0.03
0.03
0.03
0.05
0.03
0.07
0.03
0.05
0.03
0.03
0.01
0.01
0.19
0.31
0.76
0.87
0.86
0.92
0.93
0.98
0.98
0.96
0.95
0.95
0.98
0.94
0.00
0.19
0.45
0.45
0.46
0.48
0.52
0.57
0.61
0.66
0.73
0.75
0.78
0.81
0.83
0.84
0.87
0.89
0.89
0.89
0.89
0.88
0.86
0.83
0.82
0.77
0.71
0.57
0.45
0.43
0.29
0.19
0.09
0.06
0.05
0.05
0.03
0.03
0.03
0.04
0.03
0.03
0.03
0.03
0.03
0.03
0.03
0.04
0.04
0.03
0.03
0.03
0.03
0.03
0.04
0.03
0.03
0.03
0.03
0.03
0.03
0.07
0.03
0.05
0.05
0.05
0.03
0.07
0.03
0.07
0.05
0.05
0.07
0.05
0.03
0.03
0.01
0.03
0.00
0.00
0.01
0.01
0.03
0.06
0.19
0.18
0.14
0.11
0.11
0.08
0.09
0.11
0.02
0.55
0.77
0.82
0.94
0.89
0.82
0.45
0.11
0.05
0.04
0.03
0.01
0.01
0.00
0.01
0.03
0.03
0.10
0.13
0.19
0.28
0.28
0.37
0.40
0.46
0.46
0.51
0.54
0.54
0.54
0.54
0.53
0.46
0.39
0.19
0.10
0.00
0.00
0.00
0.01
0.01
0.01
0.01
0.01
0.01
0.01
0.01
0.01
0.01
0.01
0.01
0.00
0.00
0.00
0.00
0.00
0.00
0.00
0.00
0.01
0.01
0.01
0.01
0.02
0.03
0.03
0.03
0.03
0.04
0.01
0.01
0.03
0.00
0.00
0.07
0.00
0.03
0.03
0.18
0.14
0.18
0.09
0.09
0.09
0.11
0.11
0.14
0.42
0.68
0.01
0.94
0.94
0.83
0.57
0.43
0.05
0.05
0.03
0.03
0.03
0.01
0.01
0.01
0.01
0.01
0.00
0.00
0.01
0.00
0.01
0.00
0.01
0.00
0.00
0.00
0.01
0.00
0.00
0.01
0.01
0.01
0.03
0.03
0.04
0.03
0.03
0.03
0.03
0.03
0.02
0.03
0.03
0.03
0.02
0.01
0.01
0.01
0.01
0.00
0.00
0.01
0.01
0.48
0.54
0.70
0.87
0.90
0.98
0.98
0.98
1.00
0.98
0.98
0.98
0.98
0.95
0.87
0.25
0.03
0.42
0.43
0.45
0.45
0.45
0.46
0.45
0.53
0.60
0.69
0.75
0.78
0.80
0.82
0.82
0.83
0.84
0.84
0.83
0.83
0.81
0.77
0.72
0.60
0.45
0.45
0.34
0.19
0.14
0.08
0.08
0.07
0.05
0.05
0.07
0.03
0.03
0.03
0.03
0.04
0.03
0.04
0.03
0.03
0.03
0.03
0.03
0.03
0.03
0.04
0.04
0.03
0.03
0.04
0.03
0.04
0.03
0.04
0.03
0.03
0.03
0.03
0.04
0.04
0.04
0.04
0.04
0.04
0.03
0.03
0.04
0.04
0.04
0.04
0.04
0.03
0.03
0.04
0.03
0.04
0.03
0.04
0.03
0.04
0.04
0.04
0.04
0.03
0.03
0.03
0.04
0.03
0.03
0.03
0.01
0.00
0.01
0.01
0.00
0.19
0.00
0.00
0.01
0.08
0.06
0.07
0.03
0.05
0.03
0.03
0.07
0.03
0.57
0.76
0.61
0.94
0.91
0.83
0.50
0.19
0.03
0.01
0.00
0.00
0.01
0.04
0.13
0.13
0.18
0.23
0.33
0.37
0.40
0.43
0.51
0.51
0.55
0.60
0.63
0.63
0.65
0.67
0.67
0.67
0.67
0.65
0.59
0.43
0.28
0.10
0.01
0.01
0.01
0.00
0.00
0.01
0.00
0.01
0.00
0.00
0.03
0.03
0.10
0.07
0.15
0.13
0.19
0.07
0.00
0.28
0.15
0.40
0.31
0.15
0.80
0.95
0.98
0.98
0.98
0.98
1.00
0.99
0.96
0.73
0.55
0.01
0.08
0.09
0.19
0.14
0.34
0.40
0.45
0.46
0.52
0.57
0.59
0.65
0.71
0.76
0.77
0.82
0.83
0.83
0.83
0.83
0.81
0.76
0.62
0.51
0.45
0.27
0.11
0.03
0.03
0.01
0.01
0.01
0.01
0.00
0.01
0.00
0.00
0.00
0.00
0.01
0.01
0.01
0.01
0.01
0.01
0.01
0.01
0.01
0.01
0.01
0.01
0.01
0.01
0.01
0.01
0.01
0.01
0.01
0.01
0.01
0.01
0.01
0.01
0.04
0.15
0.48
0.79
0.77
0.87
0.89
0.96
0.98
0.98
0.96
0.97
0.98
0.98
0.92
0.63
0.03
0.07
0.36
0.36
0.43
0.45
0.45
0.45
0.51
0.56
0.61
0.67
0.73
0.75
0.77
0.81
0.82
0.82
0.81
0.82
0.82
0.81
0.81
0.77
0.74
0.61
0.51
0.45
0.40
0.22
0.11
0.05
0.03
0.03
0.03
0.04
0.04
0.04
0.03
0.04
0.03
0.04
0.03
0.10
0.43
0.53
0.03
0.01
0.79
0.98
0.92
0.03
0.00
0.19
0.02
0.03
0.03
0.06
0.11
0.13
0.18
0.19
0.22
0.25
0.28
0.29
0.36
0.38
0.40
0.44
0.45
0.46
0.45
0.46
0.46
0.46
0.45
0.46
0.44
0.36
0.22
0.11
0.08
0.03
0.04
0.03
0.03
0.03
0.03
0.03
0.03
0.03
0.03
0.04
0.03
0.04
0.04
0.03
0.03
0.04
0.04
0.05
0.03
0.03
0.02
0.01
0.01
0.01
0.07
0.01
0.00
0.01
0.09
0.14
0.18
0.11
0.11
0.14
0.03
0.03
0.04
0.67
0.67
0.90
0.00
0.06
0.76
0.53
0.46
0.29
0.28
0.22
0.27
0.22
0.22
0.22
0.27
0.25
0.27
0.28
0.34
0.34
0.40
0.40
0.43
0.45
0.45
0.45
0.46
0.45
0.45
0.45
0.44
0.40
0.29
0.25
0.18
0.18
0.09
0.08
0.07
0.03
0.04
0.03
0.04
0.03
0.03
0.03
0.02
0.02
0.03
0.03
0.03
0.04
0.02
0.03
0.03
0.03
0.04
0.04
0.04
0.03
0.03
0.04
0.03
0.03
0.03
0.05
0.05
0.02
0.03
0.03
0.01
0.04
0.01
0.00
0.01
0.09
0.18
0.19
0.13
0.14
0.19
0.14
0.14
0.22
0.01
0.60
0.73
0.80
0.89
0.82
0.67
0.52
0.19
0.09
0.07
0.05
0.03
0.02
0.01
0.01
0.00
0.00
0.00
0.01
0.04
0.07
0.15
0.13
0.23
0.31
0.37
0.37
0.40
0.40
0.40
0.42
0.37
0.28
0.10
0.03
0.01
0.00
0.01
0.02
0.01
0.01
0.02
0.01
0.01
0.01
0.01
0.01
0.00
0.01
0.01
0.01
0.01
0.01
0.01
0.01
0.00
0.01
0.01
0.00
0.00
0.01
0.01
0.01
0.01
0.01
0.01
0.01
0.01
0.00
0.00
0.00
0.04
0.13
0.33
0.13
0.00
0.01
0.03
0.03
0.04
0.04
0.03
0.03
0.03
0.03
0.03
0.59
0.74
0.00
0.94
0.94
0.83
0.59
0.38
0.00
0.01
0.00
0.01
0.04
0.07
0.13
0.15
0.18
0.23
0.28
0.37
0.39
0.43
0.46
0.53
0.54
0.55
0.59
0.60
0.59
0.57
0.55
0.54
0.51
0.40
0.31
0.19
0.15
0.07
0.10
0.04
0.04
0.04
0.03
0.04
0.03
0.00
0.03
0.01
0.01
0.01
0.03
0.03
0.04
0.07
0.07
0.07
0.10
0.10
0.07
0.07
0.07
0.03
0.07
0.01
0.00
0.00
0.00
0.00
0.01
0.00
0.00
0.01
0.00
0.00
0.00
0.00
0.00
0.03
0.00
0.10
0.04
0.19
0.13
0.00
0.01
0.07
0.03
0.05
0.03
0.04
0.03
0.03
0.04
0.02
0.60
0.73
0.01
0.94
0.94
0.82
0.52
0.22
0.00
0.00
0.01
0.03
0.07
0.10
0.13
0.18
0.23
0.19
0.31
0.33
0.39
0.40
0.43
0.46
0.53
0.51
0.51
0.53
0.51
0.51
0.42
0.40
0.37
0.28
0.15
0.10
0.03
0.00
0.00
0.01
0.01
0.01
0.01
0.01
0.00
0.00
0.01
0.01
0.00
0.00
0.01
0.01
0.01
0.01
0.03
0.04
0.03
0.03
0.03
0.03
0.00
0.00
0.00
0.00
0.01
0.00
0.00
0.00
0.00
0.01
0.00
0.00
0.01
0.01
0.01
0.01
0.01
0.01
0.01
0.00
0.00
0.01
0.23
0.13
0.00
0.00
0.04
0.07
0.07
0.04
0.03
0.03
0.03
0.03
0.03
0.28
0.64
0.79
0.83
0.92
0.83
0.76
0.45
0.03
0.02
0.01
0.00
0.00
0.01
0.00
0.03
0.00
0.03
0.07
0.07
0.13
0.15
0.19
0.18
0.23
0.19
0.23
0.19
0.19
0.18
0.13
0.04
0.03
0.01
0.00
0.00
0.00
0.00
0.01
0.01
0.01
0.00
0.00
0.00
0.01
0.00
0.01
0.01
0.01
0.01
0.01
0.01
0.00
0.00
0.00
0.00
0.00
0.00
0.01
0.01
0.01
0.02
0.02
0.01
0.02
0.03
0.02
0.04
0.03
0.03
0.03
0.03
0.03
0.03
0.03
0.04
0.04
0.01
0.03
0.01
0.00
0.15
0.03
0.01
0.01
0.07
0.09
0.08
0.05
0.08
0.08
0.08
0.05
0.08
0.03
0.61
0.74
0.77
0.89
0.82
0.74
0.51
0.19
0.07
0.03
0.03
0.03
0.01
0.01
0.01
0.01
0.00
0.00
0.00
0.00
0.03
0.10
0.07
0.13
0.15
0.19
0.19
0.19
0.19
0.15
0.13
0.07
0.04
0.00
0.00
0.00
0.00
0.01
0.01
0.01
0.01
0.01
0.01
0.00
0.00
0.00
0.00
0.01
0.00
0.00
0.01
0.01
0.00
0.01
0.00
0.01
0.01
0.01
0.01
0.00
0.00
0.00
0.00
0.01
0.01
0.01
0.01
0.01
0.01
0.01
0.01
0.01
0.01
0.02
0.02
0.02
0.01
0.01
0.01
0.00
0.00
0.19
0.03
0.00
0.01
0.08
0.08
0.08
0.05
0.05
0.05
0.05
0.03
0.03
0.40
0.65
0.73
0.92
0.95
0.85
0.79
0.45
0.01
0.01
0.00
0.00
0.01
0.04
0.07
0.13
0.15
0.19
0.23
0.23
0.37
0.40
0.43
0.48
0.54
0.55
0.60
0.59
0.61
0.59
0.55
0.53
0.42
0.33
0.19
0.07
0.01
0.01
0.00
0.00
0.00
0.00
0.00
0.00
0.00
0.01
0.01
0.01
0.01
0.01
0.01
0.01
0.00
0.00
0.00
0.00
0.01
0.00
0.01
0.03
0.01
0.00
0.00
0.01
0.00
0.00
0.00
0.00
0.01
0.01
0.02
0.01
0.01
0.01
0.03
0.02
0.02
0.03
0.03
0.03
0.01
0.01
0.01
0.00
0.00
0.13
0.04
0.00
0.01
0.06
0.11
0.09
0.06
0.06
0.05
0.07
0.07
0.05
0.15
0.60
0.78
0.89
0.94
0.87
0.81
0.45
0.04
0.01
0.01
0.01
0.01
0.00
0.03
0.03
0.07
0.10
0.15
0.15
0.18
0.19
0.33
0.37
0.40
0.42
0.42
0.43
0.40
0.39
0.31
0.23
0.13
0.07
0.00
0.00
0.01
0.01
0.03
0.01
0.01
0.01
0.01
0.03
0.01
0.03
0.03
0.03
0.03
0.02
0.03
0.02
0.03
0.03
0.01
0.02
0.02
0.02
0.03
0.03
0.03
0.03
0.03
0.03
0.05
0.07
0.07
0.06
0.07
0.09
0.09
0.11
0.11
0.13
0.11
0.14
0.18
0.19
0.11
0.18
0.18
0.19
0.14
0.09
0.08
0.09
0.07
0.01
0.04
0.06
0.14
0.28
0.36
0.31
0.29
0.29
0.31
0.31
0.31
0.31
0.03
0.42
0.69
0.89
0.94
0.86
0.82
0.57
0.36
0.34
0.27
0.27
0.20
0.20
0.18
0.18
0.14
0.13
0.11
0.08
0.07
0.03
0.03
0.03
0.03
0.02
0.03
0.02
0.02
0.03
0.03
0.03
0.03
0.05
0.09
0.14
0.13
0.19
0.13
0.14
0.11
0.14
0.09
0.14
0.13
0.14
0.11
0.13
0.13
0.11
0.14
0.11
0.09
0.06
0.07
0.08
0.08
0.08
0.06
0.07
0.08
0.08
0.09
0.09
0.11
0.11
0.09
0.11
0.13
0.18
0.18
0.14
0.14
0.19
0.18
0.18
0.14
0.14
0.14
0.09
0.03
0.09
0.03
0.03
0.01
0.03
0.06
0.11
0.22
0.22
0.22
0.22
0.22
0.22
0.22
0.22
0.14
0.13
0.67
0.20
0.91
0.89
0.83
0.61
0.44
0.13
0.11
0.08
0.03
0.05
0.03
0.03
0.02
0.02
0.01
0.01
0.01
0.00
0.00
0.04
0.07
0.13
0.19
0.31
0.33
0.37
0.37
0.37
0.28
0.15
0.07
0.00
0.00
0.01
0.01
0.01
0.01
0.02
0.01
0.01
0.02
0.01
0.01
0.01
0.01
0.01
0.00
0.00
0.01
0.00
0.00
0.00
0.00
0.00
0.00
0.00
0.00
0.01
0.01
0.01
0.01
0.01
0.01
0.01
0.01
0.01
0.01
0.02
0.01
0.02
0.02
0.03
0.02
0.02
0.02
0.03
0.03
0.03
0.01
0.00
0.01
0.00
0.03
0.07
0.01
0.01
0.03
0.13
0.08
0.06
0.05
0.07
0.03
0.03
0.03
0.03
0.61
0.79
0.84
0.94
0.90
0.83
0.45
0.03
0.00
0.00
0.00
0.04
0.07
0.13
0.18
0.23
0.28
0.28
0.33
0.40
0.46
0.48
0.54
0.57
0.60
0.61
0.63
0.63
0.63
0.61
0.59
0.54
0.48
0.37
0.23
0.13
0.03
0.03
0.03
0.04
0.04
0.07
0.07
0.10
0.04
0.04
0.04
0.04
0.01
0.04
0.04
0.04
0.04
0.07
0.10
0.13
0.13
0.10
0.15
0.10
0.13
0.10
0.13
0.07
0.07
0.04
0.03
0.03
0.01
0.00
0.00
0.00
0.00
0.00
0.00
0.00
0.00
0.00
0.00
0.00
0.00
0.00
0.00
0.01
0.04
0.01
0.15
0.28
0.23
0.10
0.01
0.03
0.03
0.04
0.03
0.03
0.01
0.03
0.01
0.03
0.31
0.64
0.80
0.87
0.94
0.84
0.77
0.44
0.01
0.01
0.00
0.01
0.01
0.03
0.04
0.04
0.13
0.15
0.19
0.23
0.33
0.33
0.40
0.40
0.48
0.53
0.54
0.55
0.57
0.55
0.54
0.54
0.46
0.39
0.23
0.13
0.04
0.03
0.00
0.01
0.01
0.01
0.01
0.00
0.04
0.01
0.01
0.03
0.01
0.00
0.01
0.03
0.07
0.03
0.04
0.10
0.10
0.07
0.04
0.07
0.03
0.01
0.00
0.00
0.00
0.00
0.00
0.01
0.00
0.00
0.00
0.00
0.01
0.01
0.01
0.01
0.01
0.01
0.01
0.01
0.01
0.02
0.01
0.00
0.00
0.00
0.01
0.19
0.10
0.00
0.00
0.03
0.06
0.06
0.03
0.03
0.03
0.03
0.03
0.03
0.43
0.71
0.67
0.90
0.91
0.80
0.61
0.45
0.02
0.02
0.01
0.01
0.00
0.00
0.00
0.01
0.01
0.00
0.10
0.03
0.01
0.07
0.15
0.13
0.15
0.18
0.23
0.23
0.15
0.15
0.07
0.07
0.03
0.00
0.00
0.01
0.01
0.01
0.01
0.01
0.01
0.01
0.01
0.02
0.01
0.01
0.03
0.02
0.01
0.01
0.03
0.02
0.03
0.01
0.01
0.01
0.02
0.01
0.03
0.02
0.02
0.03
0.04
0.04
0.03
0.03
0.05
0.03
0.05
0.03
0.07
0.05
0.05
0.07
0.07
0.07
0.07
0.05
0.07
0.04
0.03
0.03
0.01
0.00
0.01
0.01
0.04
0.08
0.19
0.14
0.18
0.14
0.13
0.14
0.14
0.18
0.03
0.39
0.71
0.62
0.90
0.84
0.79
0.54
0.22
0.08
0.03
0.04
0.02
0.01
0.01
0.00
0.00
0.00
0.00
0.04
0.04
0.13
0.23
0.28
0.33
0.40
0.46
0.53
0.54
0.54
0.54
0.51
0.46
0.37
0.28
0.07
0.03
0.00
0.01
0.01
0.01
0.01
0.01
0.01
0.01
0.01
0.01
0.01
0.01
0.00
0.00
0.00
0.01
0.00
0.01
0.00
0.01
0.00
0.01
0.01
0.01
0.01
0.01
0.01
0.01
0.01
0.01
0.01
0.01
0.02
0.01
0.02
0.03
0.02
0.02
0.02
0.03
0.02
0.03
0.03
0.03
0.00
0.00
0.01
0.00
0.10
0.07
0.00
0.01
0.06
0.11
0.08
0.08
0.05
0.07
0.08
0.05
0.06
0.18
0.60
0.77
0.91
0.95
0.87
0.80
0.45
0.02
0.01
0.01
0.00
0.00
0.00
0.04
0.10
0.13
0.18
0.19
0.28
0.31
0.40
0.46
0.48
0.54
0.57
0.60
0.60
0.60
0.60
0.60
0.55
0.53
0.43
0.33
0.15
0.01
0.01
0.00
0.00
0.01
0.00
0.00
0.00
0.00
0.00
0.01
0.01
0.01
0.01
0.00
0.00
0.01
0.00
0.00
0.00
0.00
0.00
0.00
0.01
0.00
0.01
0.01
0.01
0.01
0.01
0.01
0.01
0.01
0.01
0.01
0.03
0.02
0.01
0.01
0.03
0.02
0.02
0.03
0.03
0.02
0.02
0.02
0.01
0.01
0.01
0.01
0.10
0.04
0.01
0.01
0.11
0.11
0.09
0.07
0.07
0.07
0.06
0.06
0.08
0.31
0.60
0.74
0.91
0.94
0.83
0.77
0.45
0.03
0.04
0.02
0.01
0.00
0.00
0.00
0.01
0.04
0.07
0.13
0.18
0.31
0.31
0.37
0.43
0.43
0.53
0.54
0.55
0.55
0.55
0.51
0.51
0.42
0.39
0.19
0.10
0.00
0.00
0.00
0.00
0.00
0.01
0.01
0.01
0.00
0.00
0.00
0.01
0.00
0.01
0.01
0.01
0.01
0.00
0.00
0.00
0.00
0.00
0.00
0.00
0.00
0.01
0.01
0.01
0.01
0.01
0.01
0.01
0.01
0.01
0.03
0.03
0.02
0.03
0.03
0.03
0.03
0.04
0.03
0.03
0.03
0.03
0.03
0.01
0.01
0.01
0.00
0.10
0.00
0.01
0.01
0.09
0.13
0.11
0.07
0.08
0.06
0.08
0.07
0.11
0.23
0.65
0.74
0.89
0.92
0.82
0.75
0.45
0.05
0.07
0.03
0.03
0.01
0.01
0.01
0.00
0.00
0.01
0.01
0.01
0.04
0.04
0.13
0.15
0.23
0.28
0.31
0.23
0.23
0.19
0.18
0.10
0.10
0.04
0.01
0.00
0.01
0.00
0.01
0.01
0.01
0.01
0.01
0.01
0.01
0.00
0.01
0.01
0.01
0.01
0.01
0.01
0.00
0.00
0.00
0.01
0.00
0.01
0.00
0.01
0.01
0.01
0.01
0.01
0.01
0.01
0.02
0.01
0.01
0.01
0.03
0.01
0.03
0.03
0.03
0.02
0.03
0.01
0.01
0.00
0.00
0.13
0.07
0.00
0.01
0.08
0.11
0.09
0.06
0.06
0.06
0.06
0.06
0.13
0.15
0.65
0.74
0.83
0.89
0.82
0.65
0.45
0.05
0.03
0.02
0.02
0.01
0.00
0.00
0.00
0.03
0.04
0.07
0.13
0.19
0.19
0.28
0.33
0.42
0.43
0.53
0.54
0.57
0.54
0.57
0.53
0.53
0.40
0.33
0.18
0.07
0.03
0.01
0.01
0.00
0.01
0.00
0.00
0.01
0.01
0.01
0.01
0.00
0.01
0.00
0.00
0.01
0.00
0.01
0.00
0.00
0.00
0.01
0.01
0.00
0.00
0.00
0.00
0.00
0.00
0.01
0.00
0.01
0.01
0.01
0.01
0.01
0.01
0.01
0.01
0.01
0.01
0.01
0.01
0.03
0.00
0.07
0.04
0.31
0.15
0.01
0.00
0.03
0.07
0.03
0.03
0.04
0.03
0.03
0.03
0.04
0.53
0.65
0.63
0.94
0.95
0.83
0.71
0.40
0.00
0.01
0.03
0.04
0.13
0.15
0.19
0.28
0.31
0.39
0.39
0.42
0.48
0.51
0.54
0.60
0.62
0.64
0.64
0.65
0.67
0.67
0.65
0.64
0.61
0.57
0.46
0.33
0.18
0.10
0.01
0.00
0.01
0.00
0.00
0.00
0.00
0.01
0.00
0.00
0.01
0.00
0.00
0.00
0.00
0.01
0.01
0.01
0.04
0.03
0.01
0.01
0.00
0.01
0.00
0.01
0.00
0.00
0.01
0.01
0.01
0.01
0.02
0.03
0.03
0.03
0.03
0.04
0.04
0.03
0.03
0.03
0.03
0.03
0.00
0.01
0.01
0.00
0.07
0.01
0.01
0.03
0.13
0.13
0.11
0.08
0.08
0.07
0.06
0.06
0.13
0.43
0.65
0.01
0.94
0.94
0.83
0.60
0.40
0.02
0.02
0.01
0.01
0.00
0.01
0.00
0.00
0.04
0.04
0.07
0.10
0.19
0.23
0.31
0.39
0.42
0.46
0.51
0.53
0.54
0.51
0.48
0.42
0.39
0.19
0.07
0.01
0.00
0.01
0.03
0.01
0.02
0.01
0.01
0.01
0.01
0.01
0.02
0.02
0.01
0.02
0.01
0.02
0.01
0.01
0.01
0.01
0.01
0.01
0.01
0.01
0.01
0.01
0.01
0.01
0.03
0.03
0.03
0.02
0.04
0.04
0.04
0.04
0.03
0.05
0.03
0.05
0.03
0.05
0.03
0.05
0.03
0.03
0.02
0.03
0.01
0.01
0.01
0.01
0.04
0.18
0.20
0.19
0.18
0.14
0.13
0.14
0.18
0.18
0.10
0.53
0.76
0.89
0.94
0.83
0.80
0.45
0.09
0.09
0.05
0.03
0.03
0.04
0.03
0.02
0.01
0.01
0.01
0.01
0.00
0.00
0.01
0.03
0.04
0.10
0.07
0.18
0.07
0.04
0.04
0.01
0.00
0.00
0.01
0.03
0.04
0.05
0.05
0.03
0.03
0.03
0.03
0.04
0.03
0.03
0.03
0.04
0.03
0.03
0.04
0.03
0.04
0.03
0.03
0.04
0.04
0.04
0.04
0.04
0.05
0.03
0.05
0.03
0.05
0.07
0.03
0.06
0.05
0.06
0.05
0.07
0.06
0.06
0.03
0.07
0.07
0.05
0.03
0.03
0.03
0.01
0.01
0.01
0.03
0.03
0.13
0.19
0.19
0.13
0.19
0.14
0.19
0.13
0.22
0.01
0.57
0.74
0.77
0.89
0.82
0.74
0.51
0.22
0.13
0.08
0.07
0.05
0.04
0.03
0.02
0.03
0.01
0.01
0.01
0.00
0.01
0.00
0.00
0.00
0.01
0.01
0.03
0.00
0.01
0.01
0.00
0.00
0.00
0.00
0.01
0.02
0.02
0.03
0.03
0.03
0.03
0.03
0.02
0.03
0.03
0.01
0.02
0.02
0.01
0.03
0.02
0.01
0.01
0.01
0.01
0.01
0.01
0.01
0.01
0.01
0.01
0.03
0.01
0.02
0.01
0.01
0.03
0.03
0.02
0.03
0.03
0.03
0.04
0.03
0.03
0.00
0.01
0.01
0.00
0.10
0.00
0.02
0.03
0.11
0.11
0.09
0.08
0.07
0.06
0.06
0.09
0.03
0.46
0.73
0.31
0.94
0.94
0.84
0.60
0.38
0.03
0.01
0.01
0.00
0.00
0.03
0.03
0.13
0.13
0.19
0.28
0.39
0.40
0.46
0.51
0.57
0.60
0.62
0.65
0.67
0.68
0.67
0.67
0.65
0.62
0.55
0.46
0.33
0.13
0.04
0.00
0.00
0.00
0.01
0.01
0.01
0.01
0.01
0.00
0.00
0.00
0.00
0.01
0.00
0.01
0.01
0.00
0.00
0.00
0.00
0.01
0.00
0.00
0.00
0.01
0.00
0.00
0.00
0.00
0.00
0.01
0.00
0.01
0.01
0.01
0.01
0.01
0.01
0.01
0.01
0.01
0.04
0.23
0.18
0.00
0.00
0.03
0.06
0.03
0.03
0.03
0.03
0.03
0.04
0.03
0.46
0.67
0.69
0.94
0.94
0.83
0.65
0.40
0.01
0.01
0.01
0.00
0.00
0.00
0.00
0.07
0.10
0.10
0.18
0.19
0.23
0.31
0.37
0.43
0.46
0.51
0.54
0.54
0.54
0.51
0.51
0.43
0.40
0.23
0.07
0.01
0.00
0.01
0.01
0.01
0.01
0.01
0.01
0.01
0.01
0.01
0.01
0.02
0.01
0.02
0.01
0.01
0.01
0.01
0.01
0.01
0.01
0.01
0.01
0.01
0.02
0.01
0.02
0.03
0.03
0.03
0.03
0.04
0.05
0.03
0.03
0.05
0.05
0.03
0.05
0.07
0.05
0.05
0.04
0.03
0.03
0.00
0.01
0.00
0.01
0.04
0.11
0.22
0.20
0.19
0.18
0.18
0.19
0.13
0.19
0.03
0.40
0.75
0.79
0.94
0.90
0.84
0.51
0.22
0.09
0.06
0.03
0.03
0.02
0.03
0.01
0.01
0.01
0.01
0.00
0.00
0.00
0.01
0.03
0.10
0.15
0.18
0.19
0.31
0.23
0.23
0.13
0.10
0.03
0.00
0.01
0.03
0.03
0.03
0.04
0.03
0.03
0.03
0.03
0.03
0.03
0.03
0.03
0.03
0.02
0.03
0.03
0.03
0.02
0.03
0.02
0.02
0.02
0.03
0.03
0.03
0.03
0.04
0.03
0.03
0.03
0.03
0.03
0.05
0.05
0.06
0.05
0.05
0.07
0.07
0.06
0.06
0.05
0.08
0.03
0.02
0.03
0.01
0.01
0.01
0.01
0.03
0.07
0.18
0.19
0.19
0.13
0.13
0.14
0.14
0.18
0.13
0.33
0.72
0.38
0.90
0.89
0.82
0.53
0.36
0.07
0.08
0.04
0.03
0.03
0.03
0.01
0.02
0.01
0.01
0.01
0.00
0.00
0.00
0.01
0.01
0.01
0.01
0.01
0.03
0.00
0.01
0.01
0.00
0.01
0.01
0.01
0.02
0.02
0.03
0.02
0.03
0.01
0.01
0.01
0.01
0.01
0.01
0.01
0.01
0.01
0.01
0.01
0.01
0.01
0.01
0.01
0.01
0.01
0.01
0.01
0.01
0.01
0.01
0.02
0.03
0.02
0.01
0.03
0.03
0.03
0.03
0.04
0.03
0.03
0.04
0.04
0.02
0.01
0.03
0.00
0.00
0.07
0.01
0.01
0.01
0.08
0.08
0.11
0.07
0.08
0.08
0.09
0.08
0.13
0.33
0.73
0.01
0.90
0.89
0.82
0.57
0.40
0.04
0.04
0.02
0.01
0.01
0.00
0.00
0.00
0.01
0.07
0.13
0.15
0.18
0.28
0.39
0.42
0.51
0.54
0.60
0.59
0.60
0.60
0.60
0.55
0.48
0.42
0.23
0.10
0.00
0.01
0.00
0.01
0.00
0.00
0.00
0.01
0.00
0.00
0.00
0.00
0.00
0.00
0.00
0.00
0.00
0.00
0.00
0.01
0.01
0.01
0.01
0.00
0.00
0.00
0.00
0.01
0.00
0.00
0.00
0.01
0.00
0.01
0.01
0.01
0.01
0.01
0.01
0.01
0.01
0.01
0.01
0.01
0.00
0.00
0.01
0.03
0.19
0.15
0.00
0.00
0.03
0.05
0.03
0.03
0.03
0.03
0.03
0.04
0.03
0.54
0.67
0.33
0.94
0.94
0.83
0.64
0.36
0.00
0.00
0.01
0.03
0.07
0.13
0.18
0.19
0.23
0.33
0.37
0.40
0.42
0.51
0.53
0.55
0.59
0.61
0.63
0.63
0.64
0.63
0.62
0.59
0.55
0.51
0.37
0.19
0.13
0.04
0.00
0.01
0.00
0.00
0.01
0.00
0.01
0.00
0.01
0.01
0.01
0.00
0.00
0.00
0.01
0.01
0.00
0.00
0.00
0.00
0.01
0.01
0.00
0.01
0.00
0.01
0.00
0.00
0.00
0.00
0.00
0.00
0.01
0.01
0.01
0.01
0.01
0.01
0.01
0.01
0.01
0.00
0.00
0.00
0.04
0.10
0.15
0.00
0.01
0.03
0.09
0.07
0.06
0.03
0.05
0.05
0.03
0.07
0.01
0.54
0.77
0.76
0.94
0.90
0.83
0.45
0.06
0.03
0.01
0.00
0.01
0.01
0.03
0.04
0.07
0.13
0.15
0.23
0.19
0.31
0.37
0.42
0.42
0.48
0.53
0.55
0.54
0.51
0.51
0.51
0.42
0.33
0.23
0.07
0.03
0.00
0.00
0.00
0.00
0.00
0.00
0.00
0.00
0.00
0.00
0.00
0.00
0.01
0.01
0.00
0.01
0.00
0.01
0.01
0.01
0.03
0.08
0.18
0.38
0.34
0.71
0.94
0.98
1.00
1.00
0.99
0.98
0.99
1.00
0.98
0.92
0.60
0.33
0.06
0.36
0.43
0.45
0.45
0.45
0.48
0.50
0.57
0.57
0.62
0.61
0.74
0.80
0.82
0.84
0.89
0.89
0.89
0.89
0.89
0.84
0.82
0.76
0.64
0.50
0.44
0.34
0.22
0.14
0.09
0.09
0.09
0.08
0.08
0.09
0.07
0.07
0.07
0.05
0.05
0.07
0.03
0.03
0.07
0.05
0.03
0.05
0.03
0.03
0.03
0.03
0.05
0.03
0.03
0.04
0.03
0.03
0.03
0.03
0.04
0.03
0.03
0.03
0.03
0.03
0.03
0.07
0.03
0.03
0.05
0.05
0.03
0.07
0.03
0.05
0.03
0.03
0.03
0.07
0.03
0.03
0.05
0.05
0.03
0.05
0.05
0.03
0.03
0.05
0.03
0.03
0.03
0.03
0.03
0.03
0.04
0.03
0.03
0.03
0.04
0.03
0.03
0.04
0.01
0.03
0.01
0.01
0.07
0.00
0.01
0.03
0.11
0.11
0.13
0.09
0.08
0.08
0.09
0.11
0.03
0.31
0.70
0.46
0.90
0.87
0.80
0.53
0.31
0.05
0.03
0.03
0.01
0.01
0.00
0.00
0.01
0.00
0.03
0.07
0.10
0.15
0.23
0.31
0.37
0.43
0.48
0.57
0.60
0.63
0.63
0.67
0.67
0.65
0.64
0.57
0.43
0.15
0.01
0.01
0.02
0.04
0.03
0.03
0.03
0.03
0.03
0.03
0.03
0.02
0.03
0.02
0.02
0.01
0.02
0.01
0.01
0.01
0.01
0.02
0.03
0.29
0.44
0.48
0.31
0.70
0.98
1.00
1.00
1.00
1.00
1.00
0.99
1.00
1.00
0.98
0.89
0.74
0.22
0.45
0.45
0.48
0.53
0.57
0.70
0.74
0.77
0.82
0.83
0.85
0.89
0.90
0.92
0.94
0.95
0.95
0.95
0.95
0.95
0.95
0.95
0.94
0.90
0.83
0.75
0.59
0.45
0.45
0.40
0.31
0.28
0.25
0.22
0.22
0.22
0.20
0.20
0.19
0.20
0.20
0.19
0.20
0.19
0.19
0.14
0.18
0.13
0.18
0.13
0.13
0.11
0.13
0.13
0.11
0.11
0.11
0.11
0.09
0.11
0.09
0.09
0.11
0.11
0.11
0.11
0.11
0.14
0.13
0.13
0.18
0.14
0.13
0.13
0.14
0.14
0.14
0.14
0.18
0.18
0.18
0.18
0.18
0.18
0.14
0.18
0.14
0.18
0.13
0.14
0.13
0.13
0.11
0.11
0.03
0.06
0.03
0.04
0.00
0.02
0.03
0.06
0.22
0.22
0.20
0.19
0.19
0.20
0.19
0.20
0.19
0.31
0.70
0.48
0.94
0.91
0.83
0.52
0.36
0.09
0.06
0.03
0.04
0.02
0.01
0.01
0.00
0.00
0.01
0.03
0.03
0.10
0.13
0.19
0.19
0.33
0.39
0.43
0.51
0.55
0.59
0.60
0.60
0.60
0.59
0.51
0.33
0.13
0.00
0.01
0.03
0.03
0.04
0.03
0.03
0.03
0.03
0.03
0.03
0.03
0.03
0.03
0.03
0.01
0.02
0.01
0.02
0.01
0.01
0.02
0.01
0.01
0.03
0.03
0.03
0.03
0.03
0.04
0.03
0.04
0.03
0.03
0.03
0.03
0.03
0.03
0.03
0.01
0.01
0.01
0.03
0.05
0.20
0.22
0.22
0.20
0.20
0.18
0.20
0.19
0.22
0.07
0.31
0.74
0.65
0.91
0.84
0.80
0.53
0.25
0.14
0.06
0.06
0.04
0.03
0.02
0.02
0.01
0.01
0.01
0.01
0.00
0.01
0.01
0.01
0.03
0.03
0.03
0.03
0.03
0.04
0.03
0.00
0.00
0.00
0.00
0.01
0.02
0.01
0.02
0.01
0.01
0.01
0.01
0.01
0.01
0.01
0.01
0.01
0.01
0.02
0.01
0.01
0.01
0.01
0.01
0.01
0.01
0.01
0.01
0.01
0.01
0.01
0.01
0.01
0.04
0.08
0.00
0.01
0.37
0.10
0.03
0.62
0.46
0.51
0.82
0.92
0.98
0.98
0.98
0.98
0.87
0.53
0.03
0.03
0.22
0.22
0.28
0.31
0.36
0.40
0.43
0.44
0.45
0.45
0.46
0.52
0.60
0.64
0.72
0.75
0.77
0.77
0.77
0.76
0.71
0.61
0.52
0.46
0.42
0.25
0.11
0.03
0.02
0.01
0.01
0.00
0.01
0.01
0.01
0.01
0.01
0.00
0.00
0.00
0.00
0.00
0.00
0.00
0.00
0.00
0.00
0.01
0.00
0.00
0.00
0.00
0.01
0.00
0.00
0.01
0.01
0.00
0.01
0.01
0.01
0.01
0.01
0.01
0.01
0.01
0.01
0.01
0.01
0.01
0.00
0.01
0.00
0.01
0.00
0.01
0.00
0.00
0.00
0.00
0.03
0.04
0.13
0.28
0.19
0.03
0.00
0.03
0.03
0.03
0.04
0.04
0.03
0.03
0.03
0.03
0.23
0.67
0.80
0.83
0.92
0.84
0.78
0.45
0.04
0.01
0.00
0.01
0.07
0.10
0.13
0.19
0.23
0.31
0.39
0.40
0.43
0.51
0.53
0.55
0.60
0.63
0.65
0.67
0.70
0.70
0.71
0.72
0.71
0.70
0.67
0.60
0.51
0.31
0.18
0.10
0.07
0.03
0.04
0.07
0.07
0.10
0.07
0.07
0.07
0.07
0.03
0.04
0.07
0.07
0.04
0.07
0.03
0.07
0.03
0.04
0.03
0.01
0.00
0.00
0.01
0.00
0.00
0.01
0.00
0.01
0.01
0.00
0.00
0.07
0.10
0.23
0.04
0.00
0.01
0.05
0.05
0.03
0.04
0.03
0.04
0.03
0.04
0.04
0.53
0.74
0.28
0.92
0.91
0.82
0.48
0.28
0.01
0.01
0.00
0.00
0.01
0.03
0.10
0.10
0.13
0.18
0.19
0.19
0.31
0.33
0.40
0.46
0.43
0.51
0.51
0.53
0.51
0.51
0.43
0.42
0.31
0.23
0.10
0.03
0.01
0.00
0.00
0.00
0.00
0.00
0.01
0.00
0.00
0.00
0.00
0.00
0.01
0.00
0.00
0.00
0.01
0.01
0.00
0.00
0.00
0.01
0.00
0.00
0.00
0.00
0.01
0.00
0.00
0.00
0.01
0.01
0.01
0.01
0.01
0.03
0.02
0.01
0.00
0.01
0.00
0.00
0.10
0.00
0.02
0.03
0.14
0.14
0.13
0.11
0.09
0.11
0.13
0.09
0.18
0.37
0.63
0.01
0.94
0.93
0.82
0.57
0.43
0.05
0.07
0.03
0.03
0.03
0.01
0.01
0.01
0.01
0.00
0.01
0.00
0.00
0.00
0.00
0.00
0.04
0.04
0.07
0.01
0.01
0.00
0.01
0.00
0.00
0.01
0.03
0.03
0.07
0.07
0.07
0.07
0.08
0.05
0.05
0.03
0.05
0.07
0.06
0.07
0.07
0.05
0.06
0.06
0.03
0.05
0.05
0.05
0.03
0.05
0.05
0.05
0.06
0.05
0.07
0.07
0.06
0.06
0.09
0.08
0.09
0.11
0.11
0.09
0.08
0.08
0.08
0.03
0.03
0.01
0.03
0.06
0.18
0.25
0.22
0.25
0.22
0.22
0.25
0.20
0.22
0.20
0.07
0.65
0.36
0.90
0.84
0.82
0.61
0.45
0.22
0.20
0.19
0.14
0.11
0.09
0.08
0.08
0.07
0.07
0.05
0.05
0.03
0.03
0.04
0.03
0.02
0.02
0.01
0.01
0.01
0.01
0.01
0.02
0.02
0.03
0.03
0.03
0.05
0.05
0.07
0.03
0.03
0.03
0.05
0.04
0.03
0.04
0.03
0.03
0.04
0.04
0.04
0.03
0.03
0.03
0.03
0.03
0.03
0.03
0.04
0.03
0.03
0.03
0.04
0.03
0.04
0.04
0.04
0.04
0.03
0.03
0.05
0.04
0.03
0.03
0.01
0.02
0.00
0.00
0.07
0.00
0.02
0.03
0.14
0.13
0.09
0.11
0.08
0.13
0.09
0.11
0.04
0.51
0.72
0.50
0.94
0.94
0.84
0.53
0.31
0.02
0.03
0.01
0.00
0.01
0.01
0.03
0.07
0.10
0.13
0.18
0.31
0.39
0.37
0.48
0.53
0.55
0.60
0.62
0.63
0.63
0.63
0.61
0.59
0.54
0.43
0.37
0.18
0.04
0.00
0.01
0.01
0.01
0.00
0.00
0.01
0.00
0.00
0.01
0.00
0.00
0.00
0.00
0.00
0.00
0.03
0.01
0.03
0.04
0.04
0.01
0.04
0.03
0.03
0.01
0.01
0.00
0.00
0.01
0.00
0.01
0.00
0.01
0.00
0.00
0.00
0.03
0.07
0.01
0.18
0.19
0.37
0.13
0.01
0.01
0.03
0.03
0.02
0.01
0.01
0.01
0.01
0.02
0.01
0.62
0.77
0.59
0.94
0.90
0.82
0.46
0.06
0.00
0.01
0.03
0.10
0.15
0.18
0.23
0.28
0.28
0.28
0.37
0.39
0.40
0.43
0.48
0.53
0.55
0.57
0.59
0.60
0.55
0.55
0.53
0.48
0.40
0.28
0.18
0.10
0.04
0.01
0.03
0.03
0.03
0.03
0.03
0.03
0.03
0.01
0.03
0.00
0.00
0.00
0.03
0.01
0.01
0.03
0.04
0.07
0.03
0.07
0.04
0.04
0.00
0.03
0.00
0.01
0.00
0.00
0.00
0.00
0.01
0.01
0.01
0.01
0.01
0.01
0.01
0.02
0.01
0.03
0.01
0.03
0.02
0.02
0.01
0.01
0.00
0.00
0.13
0.01
0.01
0.01
0.09
0.11
0.11
0.06
0.06
0.08
0.06
0.07
0.07
0.19
0.65
0.74
0.89
0.94
0.82
0.75
0.45
0.03
0.03
0.01
0.01
0.00
0.01
0.00
0.01
0.03
0.03
0.10
0.10
0.18
0.19
0.31
0.23
0.39
0.40
0.42
0.43
0.43
0.40
0.39
0.33
0.31
0.18
0.04
0.01
0.00
0.00
0.00
0.01
0.01
0.01
0.01
0.01
0.00
0.01
0.01
0.01
0.00
0.00
0.00
0.01
0.00
0.01
0.00
0.00
0.00
0.00
0.00
0.01
0.01
0.01
0.01
0.01
0.01
0.02
0.03
0.03
0.04
0.03
0.03
0.03
0.03
0.03
0.03
0.05
0.05
0.05
0.05
0.05
0.05
0.03
0.03
0.03
0.01
0.01
0.00
0.00
0.03
0.03
0.20
0.19
0.19
0.18
0.18
0.18
0.18
0.14
0.19
0.07
0.62
0.71
0.86
0.91
0.82
0.74
0.45
0.14
0.11
0.06
0.03
0.03
0.03
0.03
0.03
0.01
0.01
0.01
0.00
0.00
0.00
0.00
0.00
0.01
0.00
0.01
0.01
0.00
0.01
0.01
0.01
0.01
0.01
0.01
0.03
0.03
0.03
0.04
0.03
0.03
0.02
0.03
0.03
0.01
0.03
0.01
0.02
0.03
0.03
0.01
0.01
0.03
0.02
0.02
0.03
0.02
0.03
0.03
0.03
0.03
0.03
0.03
0.03
0.03
0.05
0.05
0.05
0.07
0.05
0.05
0.07
0.08
0.07
0.08
0.07
0.08
0.03
0.03
0.04
0.01
0.00
0.01
0.01
0.03
0.06
0.19
0.18
0.14
0.18
0.13
0.14
0.13
0.14
0.03
0.33
0.67
0.46
0.90
0.86
0.81
0.57
0.40
0.07
0.05
0.03
0.02
0.01
0.01
0.00
0.00
0.01
0.00
0.01
0.04
0.07
0.13
0.19
0.28
0.31
0.42
0.42
0.48
0.48
0.48
0.42
0.39
0.28
0.15
0.01
0.00
0.01
0.01
0.03
0.03
0.03
0.03
0.03
0.03
0.03
0.03
0.02
0.03
0.02
0.01
0.01
0.02
0.01
0.01
0.01
0.01
0.01
0.01
0.01
0.01
0.01
0.01
0.01
0.02
0.02
0.02
0.03
0.03
0.03
0.03
0.03
0.03
0.04
0.04
0.04
0.03
0.03
0.03
0.03
0.03
0.02
0.01
0.01
0.00
0.01
0.01
0.03
0.08
0.19
0.19
0.19
0.13
0.14
0.14
0.14
0.14
0.02
0.48
0.74
0.84
0.94
0.91
0.85
0.50
0.22
0.05
0.05
0.03
0.01
0.01
0.01
0.00
0.00
0.00
0.00
0.04
0.07
0.15
0.19
0.31
0.33
0.39
0.42
0.48
0.48
0.48
0.48
0.43
0.33
0.19
0.07
0.00
0.01
0.03
0.03
0.03
0.03
0.03
0.04
0.03
0.03
0.03
0.03
0.04
0.03
0.04
0.03
0.02
0.03
0.01
0.01
0.01
0.01
0.01
0.00
0.00
0.00
0.00
0.00
0.01
0.00
0.01
0.01
0.01
0.01
0.01
0.01
0.01
0.03
0.01
0.02
0.02
0.03
0.02
0.03
0.02
0.01
0.00
0.00
0.01
0.10
0.13
0.00
0.01
0.07
0.09
0.06
0.06
0.07
0.05
0.05
0.05
0.05
0.00
0.60
0.76
0.79
0.94
0.89
0.83
0.45
0.11
0.03
0.02
0.01
0.00
0.00
0.01
0.00
0.03
0.04
0.07
0.13
0.15
0.19
0.23
0.33
0.37
0.40
0.43
0.46
0.51
0.48
0.43
0.40
0.40
0.28
0.15
0.04
0.00
0.00
0.00
0.00
0.00
0.00
0.00
0.01
0.01
0.01
0.00
0.01
0.00
0.00
0.03
0.19
0.54
0.74
0.74
0.36
0.82
0.84
0.78
0.36
0.86
0.98
0.98
0.95
0.85
0.03
0.02
0.19
0.09
0.03
0.04
0.03
0.03
0.07
0.07
0.06
0.09
0.09
0.11
0.14
0.19
0.19
0.19
0.22
0.09
0.11
0.00
0.00
0.00
0.01
0.00
0.03
0.15
0.18
0.15
0.03
0.00
0.00
0.00
0.02
0.02
0.03
0.03
0.27
0.03
0.70
0.57
0.92
0.76
0.71
0.42
0.06
0.03
0.03
0.02
0.04
0.03
0.01
0.01
0.01
0.01
0.01
0.00
0.01
0.00
0.01
0.00
0.01
0.01
0.01
0.02
0.04
0.03
0.03
0.05
0.03
0.03
0.02
0.02
0.01
0.01
0.00
0.01
0.00
0.00
0.00
0.00
0.01
0.01
0.00
0.00
0.01
0.00
0.01
0.01
0.01
0.01
0.01
0.01
0.01
0.01
0.01
0.01
0.01
0.01
0.01
0.02
0.01
0.01
0.03
0.02
0.02
0.03
0.03
0.03
0.04
0.01
0.01
0.01
0.00
0.01
0.10
0.01
0.01
0.02
0.08
0.09
0.08
0.06
0.05
0.06
0.07
0.07
0.09
0.19
0.65
0.71
0.83
0.89
0.81
0.64
0.45
0.03
0.03
0.01
0.00
0.00
0.01
0.04
0.04
0.10
0.13
0.19
0.23
0.31
0.37
0.40
0.43
0.48
0.55
0.60
0.63
0.63
0.67
0.67
0.67
0.65
0.64
0.60
0.43
0.28
0.13
0.03
0.01
0.00
0.00
0.00
0.00
0.00
0.01
0.01
0.00
0.00
0.00
0.00
0.00
0.01
0.04
0.04
0.03
0.03
0.03
0.03
0.01
0.00
0.00
0.01
0.00
0.01
0.00
0.00
0.00
0.00
0.00
0.01
0.01
0.01
0.01
0.01
0.01
0.00
0.01
0.00
0.07
0.07
0.31
0.13
0.01
0.00
0.03
0.05
0.03
0.04
0.04
0.03
0.03
0.03
0.04
0.42
0.65
0.76
0.91
0.94
0.86
0.80
0.45
0.03
0.01
0.01
0.00
0.00
0.03
0.10
0.10
0.15
0.18
0.28
0.33
0.37
0.42
0.48
0.51
0.54
0.57
0.61
0.62
0.63
0.63
0.63
0.62
0.60
0.55
0.51
0.33
0.18
0.10
0.03
0.01
0.00
0.01
0.01
0.01
0.00
0.00
0.00
0.00
0.00
0.01
0.01
0.00
0.00
0.01
0.01
0.00
0.01
0.01
0.00
0.00
0.01
0.00
0.00
0.00
0.00
0.00
0.01
0.01
0.01
0.01
0.01
0.01
0.01
0.01
0.01
0.02
0.01
0.01
0.01
0.03
0.02
0.02
0.03
0.03
0.01
0.01
0.01
0.01
0.03
0.10
0.01
0.00
0.03
0.09
0.06
0.07
0.05
0.03
0.05
0.03
0.05
0.01
0.60
0.79
0.81
0.94
0.89
0.82
0.45
0.06
0.04
0.02
0.01
0.01
0.00
0.00
0.00
0.01
0.04
0.07
0.13
0.13
0.18
0.23
0.31
0.37
0.40
0.42
0.48
0.48
0.48
0.48
0.42
0.40
0.37
0.28
0.10
0.00
0.00
0.01
0.01
0.02
0.02
0.01
0.01
0.01
0.01
0.02
0.02
0.02
0.01
0.01
0.01
0.01
0.01
0.01
0.01
0.01
0.00
0.01
0.01
0.01
0.01
0.01
0.02
0.02
0.03
0.02
0.03
0.03
0.03
0.03
0.03
0.03
0.04
0.03
0.03
0.03
0.03
0.03
0.04
0.03
0.04
0.04
0.03
0.01
0.01
0.01
0.00
0.07
0.00
0.01
0.03
0.09
0.14
0.11
0.11
0.08
0.08
0.09
0.08
0.08
0.18
0.65
0.76
0.88
0.92
0.83
0.77
0.45
0.03
0.05
0.03
0.03
0.01
0.01
0.00
0.00
0.01
0.01
0.00
0.01
0.00
0.01
0.04
0.07
0.07
0.04
0.07
0.15
0.07
0.04
0.03
0.00
0.01
0.01
0.00
0.03
0.03
0.05
0.05
0.05
0.05
0.05
0.03
0.04
0.04
0.04
0.03
0.03
0.03
0.03
0.03
0.03
0.02
0.01
0.03
0.01
0.02
0.02
0.01
0.02
0.03
0.03
0.03
0.04
0.03
0.03
0.03
0.03
0.05
0.05
0.05
0.05
0.07
0.07
0.07
0.06
0.07
0.07
0.07
0.07
0.07
0.05
0.03
0.03
0.03
0.03
0.00
0.00
0.01
0.01
0.02
0.08
0.14
0.13
0.11
0.14
0.14
0.14
0.11
0.19
0.01
0.39
0.70
0.62
0.89
0.82
0.77
0.56
0.34
0.08
0.07
0.07
0.04
0.03
0.01
0.03
0.01
0.01
0.01
0.01
0.00
0.00
0.00
0.00
0.00
0.03
0.07
0.10
0.13
0.10
0.07
0.10
0.07
0.04
0.01
0.00
0.01
0.01
0.03
0.03
0.03
0.04
0.03
0.03
0.02
0.02
0.01
0.01
0.01
0.01
0.01
0.01
0.01
0.01
0.01
0.01
0.01
0.01
0.01
0.01
0.01
0.01
0.01
0.01
0.02
0.01
0.03
0.03
0.03
0.04
0.03
0.04
0.03
0.03
0.03
0.03
0.03
0.03
0.03
0.03
0.03
0.03
0.03
0.01
0.01
0.00
0.00
0.03
0.01
0.02
0.07
0.11
0.11
0.09
0.09
0.08
0.09
0.09
0.06
0.13
0.57
0.76
0.91
0.94
0.87
0.80
0.45
0.04
0.03
0.01
0.00
0.00
0.00
0.01
0.03
0.04
0.10
0.15
0.18
0.23
0.28
0.40
0.43
0.51
0.54
0.55
0.57
0.60
0.57
0.57
0.54
0.48
0.40
0.19
0.04
0.00
0.01
0.01
0.01
0.03
0.02
0.01
0.01
0.01
0.01
0.01
0.01
0.01
0.01
0.01
0.01
0.00
0.00
0.00
0.00
0.00
0.00
0.00
0.00
0.01
0.01
0.01
0.01
0.01
0.01
0.03
0.01
0.02
0.03
0.02
0.03
0.04
0.03
0.03
0.03
0.03
0.03
0.03
0.03
0.03
0.03
0.03
0.03
0.01
0.00
0.01
0.01
0.01
0.07
0.00
0.01
0.04
0.09
0.09
0.09
0.08
0.07
0.08
0.06
0.08
0.04
0.53
0.73
0.64
0.94
0.91
0.83
0.46
0.19
0.03
0.03
0.01
0.01
0.00
0.00
0.01
0.01
0.03
0.03
0.10
0.13
0.15
0.19
0.23
0.31
0.33
0.42
0.42
0.43
0.40
0.42
0.37
0.31
0.18
0.13
0.00
0.00
0.01
0.01
0.02
0.02
0.02
0.01
0.01
0.01
0.01
0.01
0.01
0.01
0.01
0.01
0.01
0.01
0.01
0.00
0.00
0.00
0.00
0.00
0.01
0.01
0.01
0.01
0.01
0.01
0.02
0.02
0.03
0.03
0.03
0.03
0.03
0.04
0.03
0.04
0.03
0.03
0.04
0.04
0.03
0.03
0.03
0.03
0.04
0.04
0.01
0.01
0.02
0.00
0.03
0.03
0.01
0.01
0.06
0.11
0.09
0.08
0.09
0.06
0.06
0.08
0.06
0.04
0.63
0.76
0.84
0.91
0.82
0.75
0.45
0.06
0.09
0.03
0.03
0.03
0.03
0.01
0.02
0.01
0.01
0.01
0.00
0.00
0.00
0.00
0.01
0.01
0.01
0.01
0.01
0.03
0.01
0.01
0.00
0.00
0.01
0.01
0.03
0.03
0.03
0.02
0.04
0.04
0.03
0.03
0.02
0.01
0.01
0.01
0.02
0.01
0.01
0.01
0.01
0.01
0.00
0.00
0.01
0.01
0.00
0.01
0.03
0.03
0.05
0.14
0.05
0.46
0.90
1.00
1.00
1.00
1.00
1.00
0.98
0.98
1.00
0.99
0.95
0.78
0.37
0.36
0.45
0.45
0.52
0.52
0.57
0.60
0.70
0.75
0.80
0.83
0.84
0.89
0.90
0.92
0.94
0.94
0.95
0.95
0.95
0.95
0.94
0.91
0.87
0.82
0.71
0.52
0.45
0.40
0.28
0.20
0.19
0.14
0.14
0.11
0.11
0.09
0.08
0.07
0.06
0.06
0.07
0.05
0.03
0.03
0.03
0.03
0.03
0.03
0.04
0.04
0.04
0.03
0.04
0.03
0.04
0.03
0.04
0.04
0.03
0.03
0.03
0.03
0.03
0.03
0.02
0.01
0.03
0.02
0.03
0.02
0.02
0.02
0.02
0.02
0.03
0.02
0.02
0.03
0.02
0.03
0.03
0.03
0.03
0.03
0.03
0.03
0.03
0.03
0.03
0.04
0.03
0.03
0.04
0.04
0.04
0.03
0.04
0.03
0.00
0.01
0.00
0.00
0.18
0.03
0.01
0.01
0.06
0.09
0.08
0.06
0.05
0.07
0.06
0.07
0.01
0.60
0.80
0.84
0.94
0.91
0.84
0.45
0.09
0.03
0.03
0.01
0.00
0.00
0.00
0.10
0.10
0.18
0.18
0.31
0.31
0.40
0.43
0.51
0.54
0.57
0.63
0.65
0.67
0.68
0.70
0.71
0.70
0.69
0.67
0.62
0.48
0.28
0.10
0.01
0.00
0.00
0.00
0.01
0.00
0.00
0.01
0.00
0.00
0.00
0.00
0.00
0.00
0.00
0.00
0.00
0.00
0.00
0.01
0.00
0.01
0.03
0.01
0.03
0.03
0.00
0.15
0.42
0.53
0.88
0.96
0.98
0.98
0.98
0.98
1.00
1.00
0.95
0.75
0.19
0.00
0.18
0.28
0.28
0.38
0.38
0.44
0.45
0.50
0.60
0.62
0.70
0.73
0.76
0.80
0.82
0.83
0.86
0.88
0.89
0.88
0.85
0.82
0.77
0.69
0.52
0.45
0.36
0.19
0.09
0.06
0.05
0.03
0.04
0.04
0.03
0.03
0.03
0.03
0.03
0.02
0.02
0.02
0.03
0.02
0.03
0.03
0.02
0.02
0.03
0.03
0.03
0.03
0.03
0.03
0.03
0.03
0.03
0.04
0.03
0.03
0.03
0.04
0.03
0.03
0.03
0.03
0.04
0.03
0.03
0.03
0.03
0.05
0.03
0.05
0.05
0.07
0.05
0.07
0.07
0.06
0.07
0.06
0.06
0.09
0.07
0.08
0.07
0.07
0.06
0.06
0.07
0.06
0.08
0.06
0.06
0.06
0.06
0.03
0.05
0.01
0.03
0.00
0.01
0.04
0.05
0.19
0.20
0.22
0.19
0.18
0.19
0.19
0.19
0.18
0.37
0.65
0.45
0.92
0.91
0.82
0.56
0.40
0.11
0.09
0.06
0.03
0.03
0.03
0.02
0.01
0.01
0.01
0.00
0.00
0.00
0.00
0.01
0.03
0.07
0.13
0.18
0.23
0.31
0.28
0.37
0.39
0.37
0.19
0.18
0.01
0.01
0.04
0.03
0.07
0.06
0.07
0.07
0.07
0.07
0.03
0.05
0.05
0.07
0.06
0.07
0.05
0.05
0.03
0.03
0.03
0.03
0.07
0.03
0.03
0.05
0.03
0.03
0.05
0.05
0.06
0.05
0.05
0.07
0.05
0.08
0.11
0.06
0.07
0.04
0.03
0.03
0.01
0.01
0.00
0.03
0.04
0.14
0.19
0.14
0.11
0.13
0.14
0.13
0.11
0.19
0.04
0.67
0.72
0.83
0.89
0.82
0.65
0.50
0.14
0.09
0.05
0.03
0.03
0.03
0.01
0.01
0.01
0.00
0.00
0.00
0.01
0.01
0.03
0.04
0.15
0.19
0.23
0.28
0.31
0.33
0.31
0.33
0.28
0.19
0.07
0.01
0.00
0.00
0.01
0.01
0.02
0.01
0.01
0.01
0.01
0.01
0.01
0.00
0.00
0.00
0.00
0.00
0.00
0.00
0.00
0.00
0.00
0.00
0.01
0.00
0.01
0.01
0.01
0.01
0.01
0.01
0.03
0.01
0.02
0.02
0.03
0.02
0.02
0.02
0.03
0.02
0.01
0.00
0.01
0.01
0.01
0.13
0.01
0.01
0.04
0.11
0.11
0.08
0.06
0.07
0.07
0.05
0.07
0.01
0.54
0.74
0.56
0.94
0.94
0.84
0.52
0.27
0.01
0.01
0.00
0.00
0.03
0.04
0.10
0.13
0.15
0.23
0.23
0.31
0.39
0.42
0.46
0.53
0.54
0.60
0.60
0.63
0.63
0.63
0.63
0.61
0.57
0.53
0.40
0.18
0.10
0.01
0.00
0.00
0.00
0.00
0.00
0.01
0.00
0.01
0.01
0.01
0.01
0.01
0.01
0.01
0.01
0.01
0.01
0.01
0.01
0.01
0.01
0.01
0.01
0.01
0.01
0.01
0.01
0.02
0.02
0.03
0.03
0.03
0.04
0.04
0.03
0.03
0.03
0.04
0.03
0.04
0.02
0.01
0.01
0.01
0.03
0.00
0.03
0.03
0.18
0.19
0.18
0.14
0.13
0.13
0.13
0.14
0.14
0.18
0.57
0.70
0.94
0.94
0.83
0.77
0.45
0.03
0.07
0.04
0.02
0.01
0.01
0.00
0.00
0.00
0.00
0.00
0.03
0.07
0.10
0.13
0.19
0.31
0.33
0.37
0.40
0.42
0.40
0.40
0.39
0.31
0.18
0.04
0.01
0.00
0.01
0.02
0.03
0.02
0.03
0.02
0.01
0.01
0.02
0.03
0.02
0.02
0.03
0.02
0.01
0.02
0.01
0.01
0.01
0.01
0.01
0.01
0.01
0.02
0.02
0.02
0.03
0.03
0.03
0.03
0.04
0.03
0.05
0.03
0.03
0.03
0.07
0.03
0.07
0.07
0.03
0.01
0.03
0.01
0.01
0.01
0.01
0.04
0.11
0.19
0.19
0.19
0.14
0.09
0.14
0.11
0.09
0.06
0.43
0.70
0.44
0.94
0.91
0.82
0.51
0.31
0.03
0.03
0.03
0.02
0.01
0.00
0.00
0.00
0.01
0.00
0.00
0.00
0.03
0.07
0.10
0.10
0.13
0.18
0.15
0.19
0.13
0.10
0.13
0.07
0.01
0.00
0.00
0.01
0.02
0.01
0.01
0.01
0.02
0.01
0.01
0.00
0.01
0.01
0.01
0.01
0.01
0.01
0.01
0.00
0.01
0.00
0.00
0.01
0.01
0.00
0.00
0.01
0.01
0.00
0.01
0.01
0.01
0.01
0.02
0.03
0.02
0.02
0.03
0.03
0.03
0.03
0.04
0.03
0.03
0.01
0.01
0.03
0.00
0.04
0.07
0.00
0.01
0.03
0.09
0.09
0.07
0.06
0.05
0.06
0.06
0.06
0.00
0.54
0.75
0.56
0.89
0.82
0.76
0.50
0.19
0.03
0.02
0.02
0.01
0.00
0.00
0.00
0.01
0.01
0.00
0.01
0.03
0.10
0.10
0.13
0.15
0.19
0.28
0.33
0.33
0.37
0.37
0.33
0.23
0.28
0.18
0.07
0.03
0.00
0.00
0.00
0.00
0.01
0.00
0.01
0.01
0.00
0.00
0.01
0.01
0.00
0.00
0.01
0.00
0.01
0.00
0.01
0.01
0.00
0.00
0.00
0.01
0.00
0.00
0.00
0.00
0.00
0.01
0.01
0.01
0.01
0.01
0.01
0.01
0.01
0.01
0.01
0.01
0.01
0.01
0.01
0.01
0.00
0.00
0.01
0.01
0.19
0.03
0.00
0.01
0.07
0.06
0.07
0.03
0.03
0.03
0.05
0.03
0.03
0.54
0.68
0.01
0.94
0.94
0.83
0.61
0.38
0.01
0.01
0.00
0.00
0.03
0.07
0.13
0.18
0.18
0.28
0.31
0.37
0.40
0.46
0.53
0.55
0.59
0.61
0.63
0.64
0.65
0.65
0.64
0.62
0.60
0.54
0.48
0.31
0.15
0.07
0.01
0.01
0.00
0.01
0.00
0.00
0.01
0.00
0.00
0.00
0.01
0.01
0.01
0.01
0.03
0.04
0.03
0.07
0.07
0.07
0.07
0.07
0.10
0.04
0.04
0.00
0.01
0.00
0.01
0.01
0.01
0.00
0.00
0.00
0.00
0.00
0.00
0.01
0.01
0.01
0.01
0.00
0.03
0.00
0.07
0.01
0.23
0.04
0.00
0.01
0.07
0.06
0.05
0.03
0.04
0.04
0.04
0.03
0.04
0.55
0.71
0.07
0.94
0.94
0.82
0.50
0.22
0.00
0.01
0.01
0.01
0.04
0.03
0.13
0.15
0.18
0.19
0.23
0.31
0.33
0.39
0.40
0.48
0.46
0.53
0.54
0.55
0.57
0.55
0.54
0.51
0.43
0.39
0.31
0.13
0.07
0.00
0.01
0.01
0.01
0.01
0.01
0.01
0.00
0.00
0.00
0.00
0.00
0.00
0.00
0.01
0.00
0.03
0.03
0.03
0.03
0.01
0.00
0.01
0.01
0.00
0.00
0.00
0.00
0.01
0.00
0.01
0.01
0.01
0.01
0.01
0.01
0.01
0.01
0.01
0.01
0.02
0.02
0.01
0.01
0.01
0.00
0.00
0.00
0.01
0.23
0.10
0.00
0.01
0.07
0.09
0.07
0.05
0.03
0.07
0.05
0.05
0.07
0.23
0.62
0.77
0.89
0.92
0.82
0.74
0.45
0.05
0.03
0.03
0.02
0.01
0.00
0.00
0.00
0.00
0.03
0.04
0.04
0.04
0.18
0.18
0.19
0.19
0.23
0.28
0.23
0.19
0.19
0.18
0.10
0.07
0.07
0.01
0.00
0.00
0.01
0.00
0.01
0.01
0.01
0.00
0.01
0.01
0.01
0.01
0.01
0.01
0.01
0.01
0.00
0.00
0.00
0.00
0.00
0.00
0.00
0.00
0.01
0.00
0.00
0.00
0.01
0.01
0.01
0.01
0.01
0.01
0.02
0.02
0.03
0.03
0.02
0.03
0.03
0.03
0.01
0.01
0.01
0.01
0.00
0.10
0.07
0.00
0.01
0.03
0.08
0.06
0.05
0.06
0.07
0.06
0.07
0.08
0.00
0.57
0.74
0.71
0.89
0.82
0.74
0.51
0.14
0.05
0.03
0.03
0.01
0.01
0.00
0.00
0.00
0.01
0.01
0.00
0.01
0.04
0.13
0.13
0.18
0.28
0.23
0.31
0.37
0.37
0.31
0.31
0.28
0.19
0.13
0.04
0.00
0.01
0.00
0.00
0.00
0.01
0.00
0.01
0.00
0.00
0.00
0.00
0.00
0.00
0.00
0.01
0.00
0.00
0.00
0.00
0.00
0.00
0.01
0.00
0.01
0.01
0.01
0.01
0.01
0.01
0.01
0.01
0.01
0.01
0.01
0.01
0.01
0.02
0.01
0.01
0.01
0.01
0.01
0.01
0.01
0.00
0.18
0.00
0.01
0.02
0.13
0.09
0.09
0.06
0.07
0.06
0.07
0.07
0.03
0.55
0.74
0.67
0.95
0.94
0.84
0.46
0.14
0.01
0.01
0.00
0.00
0.01
0.03
0.04
0.15
0.13
0.15
0.19
0.28
0.31
0.33
0.42
0.48
0.51
0.54
0.59
0.59
0.60
0.55
0.54
0.48
0.42
0.23
0.10
0.00
0.00
0.01
0.01
0.02
0.02
0.01
0.01
0.01
0.02
0.01
0.02
0.02
0.03
0.02
0.01
0.01
0.02
0.01
0.01
0.01
0.01
0.01
0.01
0.01
0.01
0.01
0.01
0.02
0.03
0.03
0.03
0.03
0.03
0.03
0.03
0.03
0.04
0.03
0.04
0.04
0.03
0.04
0.03
0.03
0.03
0.04
0.03
0.01
0.03
0.00
0.00
0.03
0.01
0.02
0.05
0.19
0.14
0.14
0.09
0.11
0.11
0.13
0.13
0.03
0.42
0.73
0.72
0.94
0.91
0.84
0.52
0.27
0.06
0.03
0.03
0.03
0.02
0.01
0.01
0.00
0.01
0.00
0.01
0.01
0.07
0.13
0.18
0.19
0.33
0.33
0.40
0.42
0.40
0.39
0.33
0.28
0.19
0.13
0.00
0.00
0.01
0.02
0.03
0.03
0.03
0.02
0.03
0.02
0.01
0.02
0.01
0.01
0.01
0.01
0.01
0.01
0.00
0.01
0.00
0.00
0.00
0.00
0.00
0.00
0.00
0.01
0.01
0.01
0.01
0.01
0.01
0.01
0.03
0.02
0.03
0.02
0.04
0.03
0.03
0.04
0.03
0.04
0.03
0.03
0.03
0.01
0.01
0.01
0.00
0.04
0.03
0.01
0.03
0.11
0.14
0.13
0.09
0.08
0.08
0.08
0.09
0.09
0.33
0.60
0.73
0.90
0.94
0.82
0.75
0.45
0.03
0.04
0.03
0.02
0.01
0.01
0.00
0.00
0.01
0.00
0.00
0.01
0.07
0.10
0.10
0.18
0.23
0.31
0.31
0.40
0.40
0.40
0.31
0.33
0.19
0.15
0.07
0.01
0.00
0.01
0.01
0.01
0.01
0.01
0.01
0.01
0.01
0.01
0.01
0.01
0.01
0.01
0.00
0.01
0.01
0.00
0.00
0.01
0.00
0.01
0.00
0.01
0.01
0.01
0.01
0.01
0.03
0.03
0.03
0.03
0.03
0.03
0.04
0.04
0.04
0.03
0.03
0.03
0.03
0.03
0.04
0.01
0.03
0.00
0.01
0.03
0.00
0.03
0.03
0.18
0.14
0.13
0.11
0.11
0.13
0.11
0.13
0.09
0.37
0.71
0.36
0.91
0.88
0.81
0.52
0.31
0.07
0.06
0.03
0.04
0.04
0.03
0.02
0.03
0.01
0.01
0.01
0.01
0.01
0.00
0.00
0.01
0.00
0.01
0.01
0.00
0.01
0.00
0.00
0.00
0.01
0.01
0.02
0.03
0.04
0.03
0.05
0.04
0.03
0.02
0.02
0.02
0.01
0.01
0.02
0.03
0.04
0.01
0.01
0.02
0.03
0.01
0.02
0.01
0.01
0.01
0.02
0.02
0.02
0.02
0.03
0.02
0.03
0.03
0.04
0.03
0.03
0.03
0.04
0.03
0.03
0.03
0.03
0.02
0.01
0.03
0.00
0.00
0.03
0.01
0.03
0.03
0.14
0.13
0.14
0.11
0.11
0.14
0.14
0.14
0.09
0.28
0.70
0.45
0.90
0.87
0.82
0.60
0.42
0.09
0.08
0.05
0.03
0.03
0.01
0.01
0.01
0.00
0.00
0.01
0.00
0.01
0.03
0.13
0.15
0.19
0.31
0.40
0.39
0.46
0.42
0.46
0.40
0.37
0.23
0.07
0.00
0.00
0.01
0.02
0.03
0.03
0.02
0.03
0.03
0.03
0.01
0.01
0.01
0.01
0.01
0.01
0.01
0.01
0.01
0.01
0.01
0.01
0.01
0.01
0.01
0.01
0.01
0.01
0.02
0.03
0.03
0.03
0.04
0.03
0.04
0.04
0.03
0.03
0.04
0.03
0.03
0.03
0.03
0.01
0.03
0.00
0.00
0.04
0.01
0.02
0.07
0.18
0.18
0.14
0.11
0.09
0.13
0.09
0.13
0.05
0.48
0.71
0.60
0.95
0.94
0.86
0.51
0.22
0.03
0.03
0.01
0.01
0.00
0.01
0.01
0.01
0.03
0.04
0.07
0.15
0.18
0.28
0.31
0.37
0.42
0.51
0.53
0.54
0.54
0.54
0.53
0.48
0.43
0.33
0.18
0.00
0.00
0.01
0.01
0.02
0.02
0.01
0.02
0.01
0.02
0.02
0.03
0.02
0.03
0.01
0.03
0.01
0.01
0.01
0.02
0.01
0.01
0.01
0.01
0.01
0.01
0.03
0.03
0.03
0.03
0.04
0.04
0.03
0.03
0.03
0.05
0.03
0.07
0.05
0.06
0.03
0.05
0.03
0.03
0.01
0.03
0.01
0.01
0.04
0.00
0.03
0.04
0.19
0.19
0.18
0.13
0.11
0.13
0.14
0.13
0.19
0.19
0.57
0.65
0.94
0.94
0.83
0.75
0.45
0.09
0.11
0.08
0.03
0.03
0.03
0.02
0.01
0.01
0.01
0.01
0.00
0.00
0.00
0.07
0.07
0.15
0.15
0.28
0.33
0.33
0.31
0.33
0.23
0.23
0.10
0.03
0.01
0.01
0.01
0.01
0.01
0.01
0.01
0.01
0.01
0.01
0.01
0.01
0.00
0.01
0.01
0.01
0.01
0.00
0.00
0.00
0.00
0.00
0.00
0.00
0.08
0.00
0.04
0.42
0.01
0.27
0.13
0.95
0.97
0.98
0.98
0.98
0.99
0.99
0.96
0.76
0.37
0.01
0.18
0.18
0.22
0.29
0.29
0.40
0.27
0.42
0.45
0.45
0.53
0.60
0.64
0.69
0.74
0.77
0.79
0.80
0.80
0.80
0.77
0.72
0.60
0.50
0.45
0.36
0.19
0.08
0.03
0.03
0.04
0.03
0.03
0.03
0.03
0.02
0.01
0.01
0.02
0.01
0.01
0.01
0.03
0.03
0.01
0.01
0.02
0.01
0.01
0.02
0.03
0.02
0.03
0.03
0.03
0.03
0.03
0.03
0.03
0.03
0.03
0.04
0.03
0.03
0.03
0.03
0.04
0.03
0.04
0.03
0.04
0.03
0.03
0.04
0.03
0.03
0.03
0.03
0.03
0.03
0.03
0.03
0.03
0.03
0.03
0.03
0.03
0.03
0.04
0.04
0.03
0.03
0.04
0.03
0.04
0.03
0.01
0.01
0.00
0.00
0.13
0.07
0.00
0.00
0.03
0.06
0.07
0.05
0.07
0.07
0.03
0.08
0.14
0.04
0.62
0.72
0.81
0.87
0.79
0.59
0.45
0.07
0.07
0.03
0.03
0.01
0.01
0.00
0.01
0.00
0.01
0.01
0.01
0.07
0.07
0.13
0.15
0.19
0.31
0.33
0.40
0.43
0.54
0.54
0.55
0.57
0.57
0.54
0.48
0.37
0.13
0.01
0.00
0.00
0.01
0.01
0.01
0.00
0.00
0.01
0.00
0.00
0.00
0.00
0.00
0.00
0.00
0.01
0.00
0.01
0.01
0.03
0.29
0.44
0.45
0.28
0.73
0.98
1.00
1.00
1.00
1.00
1.00
0.99
0.99
1.00
0.98
0.87
0.71
0.34
0.44
0.45
0.48
0.61
0.66
0.74
0.77
0.81
0.82
0.83
0.85
0.89
0.90
0.93
0.94
0.95
0.95
0.95
0.95
0.95
0.95
0.95
0.94
0.89
0.82
0.73
0.52
0.45
0.36
0.22
0.18
0.09
0.08
0.06
0.05
0.03
0.03
0.03
0.04
0.04
0.03
0.03
0.03
0.03
0.03
0.03
0.02
0.02
0.02
0.01
0.01
0.01
0.01
0.01
0.01
0.01
0.01
0.01
0.01
0.01
0.01
0.01
0.01
0.01
0.01
0.01
0.01
0.01
0.01
0.01
0.01
0.01
0.02
0.01
0.02
0.01
0.01
0.02
0.03
0.03
0.02
0.03
0.03
0.03
0.03
0.03
0.03
0.04
0.03
0.02
0.00
0.01
0.01
0.00
0.18
0.00
0.00
0.03
0.11
0.13
0.08
0.06
0.06
0.09
0.08
0.08
0.01
0.54
0.80
0.77
0.94
0.89
0.83
0.45
0.18
0.03
0.03
0.02
0.01
0.01
0.00
0.01
0.00
0.00
0.04
0.07
0.13
0.18
0.31
0.31
0.39
0.43
0.51
0.55
0.57
0.62
0.63
0.64
0.65
0.64
0.64
0.60
0.51
0.31
0.10
0.00
0.01
0.01
0.01
0.01
0.01
0.01
0.01
0.01
0.01
0.01
0.01
0.01
0.01
0.00
0.00
0.00
0.00
0.00
0.00
0.00
0.00
0.01
0.01
0.00
0.00
0.01
0.00
0.01
0.01
0.01
0.01
0.01
0.00
0.01
0.01
0.00
0.01
0.23
0.10
0.01
0.01
0.05
0.09
0.08
0.07
0.03
0.03
0.07
0.03
0.06
0.07
0.57
0.80
0.84
0.92
0.83
0.77
0.45
0.07
0.07
0.03
0.01
0.01
0.01
0.01
0.01
0.00
0.00
0.00
0.00
0.01
0.01
0.01
0.01
0.03
0.07
0.10
0.07
0.13
0.04
0.04
0.07
0.03
0.01
0.00
0.00
0.02
0.02
0.02
0.03
0.02
0.02
0.02
0.01
0.01
0.01
0.01
0.01
0.02
0.01
0.01
0.01
0.01
0.01
0.01
0.01
0.01
0.01
0.01
0.01
0.01
0.01
0.00
0.01
0.03
0.06
0.05
0.04
0.01
0.40
0.00
0.45
0.56
0.09
0.73
0.90
0.96
0.98
0.98
0.98
0.91
0.79
0.19
0.07
0.20
0.31
0.31
0.36
0.40
0.43
0.45
0.45
0.45
0.45
0.50
0.53
0.61
0.65
0.73
0.75
0.77
0.80
0.80
0.80
0.77
0.73
0.61
0.52
0.45
0.42
0.27
0.19
0.09
0.03
0.04
0.03
0.03
0.03
0.03
0.05
0.03
0.03
0.03
0.03
0.04
0.04
0.04
0.03
0.04
0.03
0.04
0.04
0.04
0.04
0.03
0.03
0.03
0.03
0.03
0.07
0.03
0.03
0.05
0.07
0.03
0.05
0.03
0.06
0.05
0.05
0.07
0.07
0.05
0.05
0.03
0.05
0.03
0.03
0.03
0.05
0.05
0.03
0.04
0.01
0.02
0.00
0.01
0.00
0.01
0.03
0.05
0.11
0.09
0.11
0.08
0.06
0.08
0.06
0.08
0.01
0.62
0.78
0.84
0.94
0.87
0.81
0.48
0.08
0.03
0.01
0.01
0.00
0.00
0.04
0.03
0.10
0.15
0.19
0.19
0.31
0.39
0.43
0.51
0.54
0.59
0.61
0.64
0.67
0.69
0.70
0.70
0.69
0.68
0.64
0.60
0.46
0.19
0.07
0.01
0.00
0.00
0.00
0.00
0.00
0.00
0.00
0.00
0.00
0.00
0.00
0.01
0.00
0.00
0.00
0.00
0.01
0.00
0.00
0.01
0.00
0.00
0.01
0.01
0.00
0.00
0.00
0.00
0.01
0.01
0.01
0.01
0.00
0.03
0.03
0.23
0.04
0.00
0.03
0.07
0.08
0.07
0.03
0.03
0.03
0.03
0.03
0.05
0.53
0.73
0.01
0.94
0.94
0.83
0.56
0.40
0.01
0.03
0.01
0.00
0.00
0.01
0.00
0.03
0.04
0.07
0.13
0.15
0.23
0.23
0.37
0.40
0.46
0.48
0.53
0.54
0.54
0.54
0.54
0.53
0.46
0.39
0.31
0.15
0.04
0.00
0.00
0.00
0.00
0.00
0.00
0.00
0.00
0.00
0.00
0.00
0.00
0.00
0.00
0.00
0.00
0.01
0.01
0.01
0.00
0.00
0.00
0.01
0.00
0.01
0.00
0.00
0.00
0.00
0.00
0.01
0.01
0.01
0.01
0.03
0.15
0.39
0.57
0.67
0.65
0.45
0.45
0.75
0.85
0.94
0.97
0.98
0.98
0.98
0.86
0.15
0.05
0.19
0.25
0.25
0.36
0.40
0.44
0.45
0.45
0.45
0.45
0.51
0.54
0.61
0.67
0.74
0.77
0.80
0.82
0.82
0.83
0.82
0.80
0.76
0.67
0.57
0.45
0.45
0.31
0.19
0.11
0.06
0.07
0.07
0.08
0.07
0.06
0.08
0.08
0.06
0.06
0.07
0.07
0.07
0.07
0.07
0.09
0.06
0.09
0.09
0.09
0.13
0.13
0.14
0.18
0.13
0.14
0.18
0.18
0.14
0.14
0.18
0.19
0.14
0.19
0.19
0.19
0.19
0.19
0.19
0.20
0.20
0.22
0.22
0.19
0.13
0.13
0.14
0.07
0.03
0.03
0.13
0.14
0.29
0.31
0.31
0.31
0.31
0.31
0.29
0.29
0.31
0.03
0.37
0.73
0.85
0.91
0.83
0.77
0.54
0.29
0.31
0.22
0.22
0.18
0.14
0.09
0.09
0.06
0.07
0.03
0.04
0.03
0.04
0.03
0.02
0.02
0.02
0.01
0.01
0.01
0.01
0.01
0.01
0.01
0.01
0.03
0.03
0.11
0.14
0.14
0.18
0.19
0.18
0.14
0.18
0.18
0.14
0.11
0.19
0.14
0.14
0.13
0.14
0.13
0.13
0.11
0.09
0.09
0.11
0.14
0.18
0.08
0.14
0.11
0.18
0.14
0.14
0.18
0.18
0.18
0.11
0.09
0.14
0.11
0.03
0.03
0.03
0.05
0.09
0.22
0.28
0.22
0.25
0.22
0.25
0.22
0.20
0.27
0.03
0.33
0.69
0.71
0.90
0.83
0.75
0.59
0.34
0.19
0.13
0.14
0.09
0.07
0.03
0.05
0.03
0.03
0.03
0.03
0.02
0.01
0.01
0.01
0.00
0.00
0.00
0.07
0.10
0.13
0.10
0.10
0.07
0.07
0.00
0.00
0.01
0.01
0.01
0.03
0.02
0.02
0.02
0.02
0.01
0.01
0.01
0.01
0.01
0.01
0.01
0.01
0.01
0.00
0.00
0.01
0.00
0.01
0.01
0.01
0.01
0.01
0.01
0.01
0.01
0.01
0.01
0.01
0.01
0.02
0.02
0.01
0.01
0.00
0.03
0.01
0.23
0.03
0.00
0.01
0.05
0.05
0.05
0.04
0.03
0.04
0.03
0.04
0.03
0.59
0.73
0.03
0.94
0.94
0.83
0.59
0.29
0.00
0.00
0.04
0.13
0.13
0.18
0.23
0.28
0.31
0.33
0.39
0.42
0.43
0.48
0.54
0.54
0.59
0.60
0.63
0.64
0.64
0.65
0.64
0.63
0.60
0.54
0.48
0.37
0.23
0.15
0.04
0.07
0.03
0.07
0.07
0.07
0.03
0.07
0.03
0.03
0.03
0.03
0.04
0.04
0.10
0.15
0.15
0.15
0.18
0.18
0.19
0.15
0.15
0.13
0.10
0.04
0.04
0.01
0.01
0.01
0.00
0.00
0.00
0.00
0.00
0.01
0.00
0.00
0.01
0.04
0.03
0.01
0.10
0.33
0.23
0.03
0.00
0.03
0.03
0.03
0.02
0.01
0.02
0.02
0.01
0.01
0.53
0.69
0.76
0.91
0.94
0.82
0.69
0.40
0.01
0.00
0.01
0.07
0.10
0.18
0.19
0.23
0.28
0.31
0.33
0.39
0.39
0.46
0.51
0.53
0.54
0.57
0.59
0.60
0.60
0.60
0.59
0.54
0.53
0.46
0.37
0.28
0.13
0.13
0.10
0.07
0.07
0.13
0.13
0.15
0.10
0.15
0.10
0.15
0.10
0.13
0.13
0.15
0.15
0.15
0.18
0.18
0.19
0.15
0.18
0.13
0.15
0.15
0.13
0.07
0.07
0.04
0.01
0.01
0.01
0.01
0.01
0.01
0.00
0.01
0.01
0.01
0.00
0.01
0.00
0.07
0.00
0.18
0.13
0.33
0.19
0.03
0.00
0.03
0.03
0.03
0.02
0.01
0.02
0.01
0.03
0.00
0.61
0.75
0.40
0.91
0.89
0.80
0.45
0.13
0.01
0.00
0.00
0.03
0.04
0.07
0.04
0.15
0.15
0.18
0.18
0.23
0.23
0.33
0.19
0.31
0.33
0.33
0.33
0.33
0.31
0.19
0.15
0.18
0.10
0.04
0.01
0.01
0.00
0.00
0.00
0.00
0.00
0.00
0.00
0.00
0.00
0.00
0.00
0.00
0.00
0.00
0.00
0.00
0.00
0.01
0.00
0.00
0.00
0.00
0.01
0.00
0.01
0.01
0.00
0.01
0.01
0.01
0.01
0.01
0.01
0.01
0.01
0.01
0.03
0.03
0.02
0.03
0.02
0.01
0.01
0.00
0.01
0.13
0.04
0.00
0.01
0.06
0.06
0.11
0.06
0.05
0.07
0.05
0.05
0.08
0.23
0.71
0.75
0.82
0.88
0.80
0.62
0.45
0.03
0.03
0.02
0.01
0.01
0.00
0.00
0.00
0.00
0.01
0.01
0.01
0.07
0.04
0.10
0.10
0.15
0.15
0.19
0.19
0.19
0.23
0.19
0.19
0.15
0.13
0.04
0.01
0.00
0.00
0.01
0.01
0.01
0.01
0.00
0.00
0.00
0.00
0.00
0.00
0.00
0.00
0.01
0.00
0.00
0.00
0.00
0.00
0.01
0.01
0.01
0.01
0.00
0.00
0.00
0.00
0.00
0.00
0.00
0.00
0.01
0.01
0.01
0.01
0.01
0.01
0.01
0.01
0.01
0.00
0.01
0.01
0.19
0.13
0.00
0.00
0.05
0.08
0.07
0.05
0.03
0.03
0.05
0.03
0.03
0.46
0.67
0.75
0.92
0.95
0.88
0.82
0.45
0.01
0.01
0.00
0.00
0.01
0.10
0.10
0.10
0.18
0.19
0.19
0.33
0.40
0.43
0.46
0.53
0.57
0.60
0.63
0.63
0.65
0.67
0.65
0.63
0.62
0.55
0.46
0.33
0.18
0.07
0.01
0.00
0.01
0.01
0.01
0.00
0.01
0.00
0.00
0.00
0.00
0.00
0.00
0.00
0.01
0.01
0.00
0.00
0.01
0.01
0.00
0.01
0.03
0.00
0.00
0.01
0.00
0.00
0.00
0.00
0.00
0.00
0.00
0.00
0.01
0.01
0.01
0.01
0.01
0.00
0.01
0.00
0.04
0.04
0.19
0.07
0.00
0.01
0.05
0.06
0.03
0.03
0.04
0.03
0.04
0.03
0.02
0.57
0.74
0.50
0.94
0.93
0.83
0.50
0.22
0.01
0.01
0.01
0.00
0.01
0.01
0.00
0.03
0.07
0.10
0.15
0.18
0.23
0.31
0.33
0.39
0.42
0.46
0.48
0.53
0.51
0.48
0.42
0.40
0.31
0.23
0.07
0.00
0.00
0.01
0.01
0.01
0.01
0.01
0.01
0.01
0.01
0.01
0.01
0.01
0.01
0.01
0.01
0.01
0.01
0.01
0.01
0.01
0.01
0.01
0.01
0.01
0.02
0.03
0.03
0.03
0.03
0.03
0.03
0.03
0.05
0.03
0.03
0.07
0.05
0.07
0.07
0.06
0.06
0.08
0.06
0.06
0.03
0.03
0.03
0.03
0.00
0.01
0.05
0.08
0.27
0.25
0.27
0.25
0.27
0.25
0.27
0.27
0.29
0.00
0.33
0.71
0.91
0.94
0.85
0.80
0.52
0.22
0.22
0.18
0.18
0.08
0.06
0.07
0.05
0.03
0.03
0.03
0.04
0.02
0.01
0.01
0.01
0.00
0.01
0.01
0.03
0.03
0.03
0.03
0.00
0.01
0.01
0.02
0.03
0.07
0.08
0.11
0.11
0.09
0.09
0.09
0.11
0.08
0.11
0.06
0.11
0.09
0.08
0.11
0.06
0.06
0.08
0.08
0.08
0.08
0.06
0.11
0.11
0.13
0.13
0.19
0.19
0.18
0.18
0.20
0.22
0.20
0.25
0.27
0.27
0.25
0.27
0.27
0.27
0.22
0.20
0.19
0.19
0.09
0.03
0.03
0.13
0.14
0.31
0.40
0.31
0.31
0.29
0.29
0.28
0.28
0.28
0.14
0.15
0.71
0.79
0.94
0.90
0.83
0.57
0.36
0.22
0.20
0.19
0.14
0.11
0.08
0.06
0.08
0.05
0.07
0.03
0.03
0.03
0.04
0.03
0.02
0.01
0.01
0.01
0.01
0.01
0.01
0.03
0.03
0.03
0.03
0.08
0.06
0.11
0.09
0.11
0.08
0.06
0.08
0.06
0.09
0.06
0.08
0.06
0.07
0.06
0.06
0.03
0.07
0.05
0.03
0.06
0.03
0.03
0.03
0.05
0.03
0.03
0.03
0.03
0.03
0.08
0.05
0.06
0.06
0.06
0.08
0.09
0.05
0.09
0.07
0.03
0.04
0.01
0.00
0.00
0.02
0.03
0.11
0.22
0.19
0.19
0.19
0.18
0.18
0.19
0.19
0.03
0.33
0.67
0.48
0.89
0.82
0.77
0.57
0.31
0.09
0.09
0.05
0.03
0.02
0.02
0.01
0.01
0.01
0.00
0.00
0.00
0.00
0.00
0.03
0.07
0.07
0.07
0.13
0.04
0.10
0.03
0.01
0.00
0.00
0.01
0.01
0.01
0.01
0.01
0.01
0.01
0.01
0.01
0.01
0.00
0.01
0.00
0.00
0.00
0.01
0.01
0.00
0.01
0.00
0.00
0.00
0.01
0.01
0.01
0.01
0.00
0.00
0.01
0.01
0.01
0.01
0.00
0.00
0.00
0.00
0.01
0.13
0.01
0.18
0.13
0.37
0.23
0.03
0.00
0.04
0.03
0.02
0.02
0.01
0.01
0.01
0.02
0.00
0.63
0.76
0.09
0.94
0.94
0.83
0.53
0.19
0.10
0.07
0.15
0.28
0.28
0.33
0.42
0.43
0.46
0.51
0.53
0.55
0.59
0.61
0.63
0.67
0.69
0.71
0.73
0.74
0.74
0.74
0.73
0.73
0.71
0.67
0.62
0.55
0.42
0.39
0.28
0.23
0.23
0.19
0.28
0.23
0.23
0.19
0.23
0.23
0.19
0.18
0.23
0.23
0.23
0.28
0.31
0.33
0.33
0.37
0.31
0.37
0.33
0.31
0.28
0.28
0.19
0.18
0.19
0.18
0.18
0.15
0.15
0.19
0.33
0.23
0.40
0.42
0.54
0.40
0.18
0.10
0.01
0.00
0.00
0.01
0.01
0.01
0.01
0.00
0.00
0.67
0.76
0.25
0.94
0.94
0.83
0.46
0.11
0.10
0.15
0.19
0.31
0.33
0.40
0.40
0.42
0.46
0.48
0.53
0.54
0.57
0.57
0.61
0.63
0.65
0.65
0.67
0.67
0.68
0.67
0.67
0.65
0.61
0.59
0.53
0.42
0.37
0.31
0.19
0.19
0.18
0.18
0.18
0.15
0.18
0.13
0.13
0.10
0.10
0.10
0.10
0.10
0.15
0.15
0.15
0.18
0.28
0.23
0.23
0.23
0.19
0.23
0.18
0.19
0.15
0.18
0.10
0.13
0.13
0.10
0.10
0.13
0.19
0.23
0.18
0.37
0.37
0.48
0.33
0.13
0.00
0.03
0.02
0.01
0.01
0.01
0.01
0.01
0.01
0.00
0.61
0.76
0.46
0.94
0.94
0.82
0.45
0.19
0.00
0.01
0.04
0.07
0.13
0.18
0.19
0.19
0.19
0.31
0.37
0.39
0.42
0.43
0.43
0.48
0.54
0.55
0.57
0.54
0.55
0.54
0.46
0.42
0.40
0.33
0.15
0.13
0.04
0.04
0.03
0.01
0.01
0.01
0.01
0.01
0.00
0.01
0.01
0.00
0.01
0.00
0.03
0.01
0.01
0.00
0.01
0.01
0.01
0.01
0.00
0.03
0.01
0.01
0.00
0.00
0.00
0.00
0.01
0.01
0.02
0.01
0.01
0.00
0.00
0.01
0.00
0.18
0.13
0.00
0.00
0.03
0.13
0.07
0.03
0.03
0.03
0.06
0.05
0.06
0.40
0.73
0.74
0.87
0.89
0.80
0.64
0.45
0.04
0.09
0.06
0.03
0.01
0.01
0.03
0.03
0.01
0.02
0.00
0.01
0.01
0.07
0.01
0.01
0.01
0.02
0.02
0.00
0.00
0.03
0.04
0.05
0.18
0.09
0.06
0.22
0.00
0.18
0.08
0.03
0.19
0.13
0.14
0.01
0.03
0.07
0.08
0.08
0.07
0.06
0.03
0.09
0.06
0.03
0.07
0.13
0.06
0.19
0.08
0.11
0.19
0.08
0.05
0.13
0.18
0.11
0.18
0.09
0.19
0.06
0.08
0.11
0.09
0.01
0.00
0.19
0.02
0.28
0.36
0.34
0.34
0.31
0.25
0.40
0.20
0.40
0.08
0.48
0.67
0.84
0.95
0.91
0.84
0.62
0.40
0.31
0.19
0.18
0.19
0.07
0.06
0.03
0.19
0.01
0.01
0.02
0.01
0.00
0.01
0.01
0.10
0.13
0.04
0.33
0.39
0.28
0.13
0.43
0.10
0.00
0.00
0.03
0.00
0.22
0.01
0.18
0.03
0.09
0.11
0.11
0.03
0.09
0.05
0.06
0.04
0.03
0.03
0.03
0.03
0.05
0.07
0.01
0.08
0.00
0.03
0.08
0.01
0.06
0.01
0.03
0.04
0.06
0.03
0.07
0.03
0.03
0.03
0.05
0.00
0.01
0.03
0.04
0.01
0.14
0.19
0.27
0.07
0.19
0.05
0.19
0.18
0.25
0.00
0.46
0.71
0.80
0.95
0.94
0.86
0.57
0.22
0.05
0.06
0.03
0.03
0.03
0.00
0.00
0.02
0.00
0.01
0.03
0.01
0.13
0.13
0.13
0.15
0.37
0.46
0.51
0.48
0.42
0.59
0.31
0.61
0.18
0.23
0.01
0.01
0.01
0.01
0.01
0.03
0.01
0.01
0.02
0.01
0.00
0.03
0.03
0.00
0.00
0.01
0.01
0.10
0.01
0.00
0.00
0.02
0.03
0.04
0.00
0.01
0.01
0.01
0.02
0.00
0.01
0.01
0.00
0.01
0.01
0.10
0.00
0.01
0.15
0.10
0.00
0.00
0.07
0.13
0.08
0.08
0.05
0.04
0.07
0.03
0.05
0.01
0.67
0.76
0.90
0.95
0.89
0.82
0.45
0.00
0.08
0.01
0.01
0.07
0.00
0.01
0.28
0.04
0.00
0.43
0.03
0.31
0.13
0.53
0.53
0.46
0.37
0.64
0.59
0.59
0.60
0.42
0.55
0.48
0.51
0.28
0.04
0.23
0.02
0.18
0.03
0.00
0.00
0.03
0.01
0.07
0.00
0.00
0.01
0.03
0.01
0.03
0.01
0.33
0.01
0.18
0.00
0.01
0.04
0.01
0.10
0.00
0.00
0.10
0.00
0.01
0.00
0.01
0.00
0.07
0.00
0.28
0.10
0.31
0.13
0.01
0.01
0.03
0.19
0.01
0.13
0.02
0.03
0.07
0.03
0.05
0.54
0.74
0.40
0.94
0.94
0.84
0.51
0.22
0.01
0.01
0.00
0.00
0.00
0.03
0.10
0.07
0.15
0.15
0.19
0.23
0.19
0.39
0.33
0.48
0.54
0.42
0.48
0.57
0.54
0.53
0.42
0.33
0.48
0.19
0.10
0.13
0.07
0.00
0.03
0.01
0.18
0.01
0.00
0.18
0.00
0.01
0.13
0.04
0.00
0.07
0.07
0.01
0.15
0.00
0.07
0.00
0.04
0.03
0.00
0.00
0.01
0.15
0.00
0.04
0.04
0.00
0.01
0.01
0.00
0.01
0.00
0.00
0.04
0.33
0.01
0.01
0.01
0.06
0.06
0.09
0.03
0.03
0.04
0.04
0.08
0.05
0.43
0.67
0.61
0.94
0.94
0.83
0.62
0.38
0.04
0.00
0.00
0.01
0.01
0.01
0.10
0.00
0.31
0.23
0.04
0.37
0.19
0.33
0.51
0.23
0.42
0.51
0.43
0.53
0.40
0.48
0.51
0.23
0.42
0.18
0.15
0.03
0.13
0.00
0.01
0.00
0.00
0.04
0.01
0.04
0.01
0.00
0.01
0.01
0.00
0.00
0.13
0.00
0.01
0.00
0.03
0.01
0.15
0.00
0.01
0.01
0.10
0.01
0.01
0.01
0.00
0.01
0.01
0.03
0.01
0.00
0.01
0.01
0.10
0.39
0.01
0.01
0.01
0.13
0.03
0.05
0.05
0.03
0.08
0.01
0.11
0.03
0.48
0.75
0.45
0.94
0.91
0.83
0.50
0.28
0.00
0.03
0.03
0.00
0.00
0.00
0.00
0.00
0.15
0.00
0.00
0.10
0.04
0.18
0.13
0.18
0.04
0.46
0.18
0.40
0.10
0.19
0.15
0.13
0.01
0.01
0.00
0.01
0.00
0.00
0.01
0.00
0.00
0.03
0.00
0.01
0.00
0.01
0.01
0.00
0.00
0.01
0.01
0.00
0.00
0.00
0.01
0.01
0.03
0.01
0.01
0.01
0.00
0.01
0.03
0.01
0.02
0.02
0.03
0.01
0.01
0.01
0.00
0.07
0.13
0.00
0.00
0.11
0.14
0.11
0.05
0.09
0.19
0.03
0.09
0.11
0.00
0.61
0.77
0.70
0.89
0.82
0.69
0.46
0.14
0.08
0.07
0.03
0.03
0.01
0.02
0.01
0.01
0.01
0.01
0.00
0.00
0.01
0.01
0.00
0.01
0.01
0.00
0.00
0.00
0.01
0.01
0.01
0.01
0.02
0.03
0.01
0.04
0.03
0.02
0.03
0.03
0.01
0.03
0.01
0.02
0.01
0.01
0.03
0.01
0.01
0.01
0.02
0.01
0.01
0.01
0.01
0.01
0.02
0.01
0.01
0.01
0.01
0.03
0.02
0.03
0.01
0.01
0.01
0.00
0.00
0.10
0.10
0.00
0.01
0.03
0.08
0.08
0.08
0.03
0.09
0.05
0.05
0.07
0.02
0.54
0.74
0.56
0.94
0.89
0.82
0.52
0.20
0.02
0.01
0.01
0.00
0.01
0.18
0.00
0.07
0.10
0.13
0.15
0.23
0.23
0.37
0.39
0.39
0.60
0.53
0.59
0.60
0.61
0.57
0.57
0.55
0.51
0.37
0.28
0.07
0.04
0.00
0.01
0.01
0.01
0.01
0.01
0.01
0.00
0.02
0.01
0.03
0.04
0.02
0.03
0.01
0.00
0.01
0.00
0.01
0.01
0.01
0.02
0.01
0.03
0.02
0.03
0.03
0.01
0.04
0.02
0.01
0.02
0.01
0.00
0.23
0.01
0.01
0.05
0.13
0.14
0.14
0.09
0.13
0.19
0.05
0.13
0.14
0.37
0.68
0.01
0.94
0.94
0.84
0.62
0.45
0.03
0.03
0.04
0.01
0.01
0.01
0.01
0.00
0.00
0.00
0.00
0.01
0.19
0.04
0.15
0.23
0.28
0.33
0.37
0.33
0.42
0.33
0.39
0.13
0.48
0.03
0.04
0.00
