0.04
0.02
0.01
0.00
0.01
0.00
0.00
0.02
0.00
0.03
0.00
0.00
0.00
0.00
0.00
0.00
0.00
0.01
0.00
0.02
0.02
0.02
0.02
0.02
0.02
0.01
0.02
0.02
0.01
0.01
0.01
0.01
0.02
0.02
0.01
0.02
0.01
0.01
0.02
0.02
0.08
0.02
0.16
0.08
0.46
0.22
0.20
0.03
0.04
0.04
0.04
0.04
0.01
0.04
0.04
0.04
0.25
0.02
0.45
0.73
0.59
0.63
0.61
0.58
0.54
0.04
0.11
0.04
0.04
0.02
0.02
0.01
0.01
0.01
0.00
0.02
0.02
0.01
0.02
0.02
0.02
0.01
0.01
0.01
0.04
0.04
0.04
0.02
0.07
0.04
0.09
0.06
0.09
0.07
0.06
0.04
0.04
0.01
0.01
0.01
0.00
0.00
0.00
0.00
0.00
0.00
0.02
0.00
0.00
0.00
0.00
0.00
0.00
0.02
0.00
0.01
0.01
0.01
0.01
0.02
0.01
0.01
0.01
0.01
0.01
0.01
0.01
0.02
0.01
0.02
0.02
0.01
0.01
0.01
0.02
0.01
0.00
0.00
0.04
0.02
0.16
0.33
0.26
0.08
0.00
0.04
0.11
0.09
0.06
0.06
0.09
0.04
0.07
0.09
0.00
0.12
0.86
0.57
0.80
0.67
0.67
0.58
0.07
0.04
0.02
0.02
0.00
0.02
0.00
0.00
0.00
0.00
0.02
0.02
0.02
0.03
0.03
0.03
0.03
0.04
0.03
0.04
0.00
0.00
0.01
0.01
0.04
0.04
0.06
0.11
0.12
0.12
0.09
0.09
0.04
0.04
0.02
0.01
0.00
0.02
0.00
0.00
0.02
0.00
0.00
0.02
0.02
0.02
0.00
0.04
0.00
0.03
0.02
0.02
0.00
0.02
0.02
0.03
0.03
0.00
0.04
0.02
0.00
0.02
0.02
0.00
0.02
0.00
0.00
0.00
0.02
0.00
0.00
0.00
0.04
0.04
0.16
0.12
0.46
0.26
0.04
0.00
0.11
0.06
0.09
0.04
0.04
0.09
0.07
0.09
0.25
0.00
0.08
0.81
0.61
0.87
0.63
0.62
0.57
0.29
0.25
0.25
0.25
0.20
0.18
0.20
0.18
0.14
0.14
0.12
0.12
0.11
0.11
0.09
0.07
0.06
0.09
0.06
0.07
0.09
0.11
0.14
0.20
0.29
0.29
0.29
0.25
0.32
0.23
0.20
0.11
0.07
0.02
0.01
0.01
0.00
0.01
0.00
0.00
0.00
0.01
0.00
0.00
0.02
0.00
0.02
0.02
0.02
0.00
0.02
0.03
0.04
0.00
0.03
0.02
0.00
0.02
0.02
0.02
0.00
0.00
0.00
0.02
0.00
0.02
0.02
0.00
0.00
0.00
0.00
0.00
0.08
0.08
0.04
0.12
0.41
0.36
0.20
0.04
0.02
0.07
0.09
0.04
0.04
0.04
0.07
0.04
0.09
0.01
0.00
0.87
0.58
0.64
0.59
0.61
0.57
0.04
0.07
0.04
0.04
0.04
0.02
0.02
0.01
0.02
0.02
0.01
0.01
0.01
0.02
0.01
0.01
0.02
0.02
0.04
0.04
0.09
0.11
0.18
0.20
0.25
0.29
0.20
0.25
0.18
0.14
0.09
0.07
0.04
0.02
0.01
0.00
0.00
0.00
0.03
0.00
0.00
0.01
0.01
0.03
0.00
0.02
0.01
0.03
0.00
0.00
0.00
0.00
0.00
0.00
0.00
0.00
0.00
0.01
0.01
0.00
0.00
0.01
0.00
0.01
0.02
0.01
0.00
0.01
0.00
0.00
0.04
0.04
0.16
0.20
0.46
0.38
0.16
0.12
0.04
0.02
0.07
0.01
0.06
0.04
0.07
0.07
0.23
0.02
0.20
0.84
0.57
0.64
0.61
0.57
0.54
0.07
0.09
0.06
0.02
0.04
0.02
0.01
0.01
0.01
0.02
0.01
0.02
0.02
0.02
0.00
0.01
0.02
0.02
0.01
0.02
0.02
0.04
0.04
0.07
0.06
0.07
0.09
0.06
0.07
0.04
0.06
0.02
0.01
0.02
0.01
0.00
0.00
0.02
0.00
0.02
0.02
0.00
0.03
0.00
0.04
0.02
0.03
0.02
0.02
0.02
0.02
0.02
0.00
0.00
0.02
0.00
0.00
0.02
0.00
0.00
0.00
0.00
0.02
0.00
0.01
0.00
0.01
0.01
0.02
0.08
0.04
0.20
0.46
0.33
0.33
0.04
0.01
0.06
0.04
0.04
0.04
0.09
0.07
0.07
0.18
0.04
0.26
0.84
0.61
0.82
0.64
0.61
0.57
0.02
0.02
0.01
0.01
0.02
0.00
0.00
0.03
0.03
0.04
0.08
0.16
0.08
0.16
0.12
0.20
0.16
0.20
0.20
0.16
0.12
0.08
0.04
0.00
0.01
0.02
0.02
0.02
0.02
0.04
0.01
0.02
0.01
0.01
0.02
0.03
0.08
0.08
0.08
0.12
0.04
0.12
0.04
0.20
0.08
0.20
0.08
0.16
0.12
0.12
0.08
0.12
0.04
0.03
0.08
0.03
0.04
0.03
0.04
0.02
0.02
0.02
0.03
0.02
0.02
0.02
0.00
0.00
0.02
0.12
0.20
0.12
0.26
0.50
0.38
0.38
0.16
0.01
0.04
0.02
0.02
0.01
0.02
0.01
0.01
0.04
0.03
0.16
0.88
0.57
0.79
0.62
0.64
0.55
0.01
0.01
0.02
0.01
0.00
0.00
0.00
0.02
0.02
0.02
0.02
0.03
0.02
0.03
0.02
0.03
0.00
0.02
0.00
0.01
0.02
0.01
0.04
0.04
0.09
0.11
0.14
0.18
0.12
0.12
0.09
0.06
0.01
0.01
0.01
0.00
0.02
0.02
0.02
0.03
0.02
0.03
0.02
0.03
0.02
0.04
0.02
0.08
0.04
0.08
0.04
0.08
0.02
0.04
0.03
0.02
0.03
0.03
0.02
0.00
0.02
0.01
0.00
0.00
0.00
0.00
0.00
0.01
0.00
0.00
0.00
0.00
0.00
0.00
0.00
0.04
0.08
0.04
0.20
0.41
0.36
0.12
0.03
0.01
0.06
0.01
0.02
0.01
0.01
0.01
0.02
0.06
0.03
0.04
0.88
0.57
0.64
0.58
0.60
0.57
0.01
0.07
0.04
0.04
0.04
0.02
0.04
0.01
0.02
0.01
0.04
0.02
0.04
0.01
0.04
0.02
0.04
0.06
0.07
0.11
0.11
0.18
0.23
0.29
0.32
0.36
0.32
0.29
0.29
0.23
0.14
0.12
0.04
0.02
0.02
0.02
0.02
0.01
0.02
0.00
0.01
0.01
0.01
0.01
0.02
0.02
0.01
0.02
0.02
0.01
0.01
0.01
0.01
0.01
0.02
0.02
0.02
0.01
0.02
0.02
0.01
0.01
0.01
0.01
0.02
0.02
0.02
0.01
0.01
0.02
0.01
0.01
0.01
0.01
0.08
0.00
0.12
0.03
0.46
0.04
0.08
0.01
0.12
0.07
0.07
0.11
0.07
0.07
0.09
0.14
0.29
0.00
0.55
0.60
0.61
0.65
0.62
0.58
0.49
0.04
0.06
0.02
0.01
0.01
0.02
0.01
0.00
0.01
0.00
0.00
0.02
0.00
0.03
0.00
0.00
0.01
0.00
0.02
0.02
0.02
0.01
0.01
0.04
0.04
0.04
0.02
0.04
0.04
0.04
0.02
0.01
0.01
0.01
0.00
0.00
0.00
0.00
0.00
0.00
0.00
0.00
0.00
0.00
0.00
0.00
0.03
0.00
0.02
0.00
0.03
0.00
0.03
0.00
0.04
0.00
0.03
0.02
0.03
0.02
0.03
0.02
0.03
0.02
0.00
0.03
0.02
0.02
0.03
0.03
0.00
0.03
0.02
0.22
0.22
0.22
0.36
0.41
0.52
0.20
0.16
0.01
0.02
0.02
0.01
0.02
0.01
0.04
0.01
0.06
0.08
0.22
0.86
0.60
0.83
0.70
0.67
0.57
0.06
0.02
0.01
0.01
0.00
0.00
0.02
0.02
0.02
0.02
0.03
0.03
0.04
0.04
0.16
0.08
0.16
0.12
0.16
0.12
0.12
0.04
0.03
0.00
0.01
0.02
0.02
0.01
0.04
0.04
0.06
0.01
0.01
0.00
0.00
0.02
0.03
0.03
0.03
0.04
0.02
0.03
0.04
0.03
0.03
0.02
0.04
0.02
0.00
0.00
0.02
0.00
0.02
0.02
0.00
0.01
0.00
0.02
0.01
0.01
0.01
0.01
0.02
0.01
0.02
0.01
0.01
0.00
0.02
0.00
0.02
0.01
0.00
0.00
0.00
0.00
0.04
0.12
0.08
0.30
0.22
0.55
0.33
0.12
0.02
0.04
0.01
0.02
0.02
0.01
0.02
0.02
0.01
0.07
0.22
0.71
0.56
0.62
0.82
0.62
0.58
0.36
0.02
0.01
0.02
0.02
0.01
0.02
0.00
0.01
0.00
0.01
0.02
0.00
0.00
0.00
0.02
0.00
0.02
0.00
0.01
0.01
0.01
0.01
0.04
0.04
0.12
0.11
0.14
0.14
0.14
0.12
0.09
0.04
0.02
0.02
0.00
0.02
0.03
0.02
0.04
0.00
0.02
0.02
0.03
0.02
0.00
0.02
0.00
0.00
0.01
0.02
0.00
0.02
0.01
0.02
0.02
0.01
0.02
0.01
0.01
0.02
0.01
0.01
0.01
0.04
0.01
0.02
0.04
0.02
0.04
0.04
0.04
0.04
0.06
0.04
0.01
0.01
0.00
0.00
0.33
0.04
0.00
0.02
0.14
0.12
0.11
0.11
0.09
0.12
0.09
0.09
0.32
0.01
0.04
0.84
0.57
0.67
0.58
0.59
0.56
0.06
0.11
0.07
0.09
0.04
0.04
0.01
0.04
0.01
0.01
0.02
0.02
0.01
0.01
0.04
0.02
0.04
0.04
0.09
0.07
0.11
0.20
0.29
0.29
0.32
0.36
0.32
0.32
0.29
0.29
0.14
0.14
0.07
0.06
0.02
0.02
0.01
0.01
0.01
0.01
0.01
0.01
0.01
0.02
0.01
0.01
0.02
0.01
0.01
0.02
0.01
0.02
0.01
0.01
0.01
0.01
0.01
0.01
0.01
0.04
0.01
0.02
0.01
0.01
0.01
0.04
0.02
0.01
0.04
0.02
0.01
0.03
0.01
0.08
0.04
0.45
0.33
0.16
0.02
0.07
0.04
0.04
0.04
0.04
0.06
0.07
0.07
0.32
0.03
0.46
0.71
0.61
0.70
0.62
0.57
0.51
0.07
0.07
0.11
0.04
0.04
0.02
0.04
0.01
0.04
0.01
0.01
0.02
0.02
0.01
0.01
0.02
0.01
0.01
0.02
0.01
0.01
0.02
0.04
0.04
0.06
0.06
0.07
0.09
0.11
0.06
0.07
0.04
0.04
0.01
0.04
0.01
0.02
0.01
0.02
0.00
0.00
0.01
0.00
0.00
0.00
0.00
0.00
0.00
0.00
0.01
0.00
0.01
0.00
0.01
0.00
0.01
0.01
0.00
0.01
0.00
0.01
0.01
0.01
0.00
0.02
0.00
0.01
0.00
0.01
0.00
0.01
0.00
0.16
0.02
0.20
0.20
0.48
0.20
0.16
0.01
0.06
0.04
0.01
0.02
0.02
0.04
0.02
0.04
0.09
0.20
0.81
0.32
0.76
0.85
0.74
0.58
0.23
0.02
0.04
0.01
0.02
0.01
0.01
0.01
0.00
0.00
0.02
0.00
0.00
0.00
0.00
0.00
0.02
0.00
0.00
0.01
0.02
0.02
0.02
0.04
0.07
0.09
0.18
0.12
0.14
0.18
0.20
0.12
0.12
0.07
0.04
0.01
0.01
0.01
0.01
0.01
0.02
0.02
0.01
0.01
0.02
0.01
0.01
0.02
0.00
0.01
0.00
0.01
0.00
0.02
0.00
0.03
0.00
0.02
0.00
0.03
0.00
0.02
0.00
0.02
0.00
0.00
0.02
0.02
0.00
0.00
0.02
0.12
0.12
0.08
0.20
0.50
0.36
0.30
0.04
0.04
0.04
0.06
0.01
0.01
0.04
0.02
0.04
0.09
0.04
0.03
0.87
0.58
0.80
0.61
0.63
0.55
0.04
0.06
0.04
0.01
0.02
0.01
0.01
0.02
0.00
0.02
0.00
0.01
0.00
0.00
0.02
0.02
0.01
0.01
0.04
0.04
0.09
0.11
0.18
0.25
0.32
0.32
0.35
0.40
0.32
0.29
0.20
0.14
0.07
0.06
0.04
0.02
0.02
0.01
0.01
0.00
0.00
0.01
0.00
0.00
0.01
0.00
0.01
0.00
0.00
0.02
0.00
0.00
0.01
0.00
0.00
0.00
0.02
0.01
0.00
0.02
0.01
0.01
0.00
0.02
0.00
0.02
0.01
0.01
0.00
0.01
0.02
0.04
0.03
0.08
0.04
0.50
0.36
0.22
0.12
0.01
0.04
0.07
0.01
0.02
0.06
0.07
0.04
0.20
0.00
0.00
0.84
0.58
0.63
0.59
0.58
0.56
0.06
0.12
0.11
0.07
0.04
0.02
0.06
0.02
0.02
0.02
0.04
0.04
0.01
0.04
0.02
0.04
0.04
0.06
0.07
0.09
0.07
0.14
0.12
0.20
0.20
0.25
0.23
0.20
0.20
0.12
0.09
0.04
0.04
0.01
0.01
0.00
0.00
0.03
0.00
0.00
0.00
0.00
0.00
0.00
0.00
0.00
0.01
0.01
0.01
0.01
0.01
0.00
0.01
0.02
0.00
0.00
0.00
0.01
0.00
0.00
0.00
0.00
0.00
0.03
0.00
0.00
0.00
0.02
0.02
0.03
0.12
0.20
0.26
0.26
0.56
0.46
0.36
0.30
0.00
0.01
0.01
0.02
0.01
0.01
0.01
0.01
0.12
0.22
0.55
0.78
0.61
0.70
0.62
0.58
0.52
0.02
0.02
0.02
0.01
0.02
0.00
0.03
0.03
0.04
0.04
0.12
0.16
0.08
0.16
0.16
0.20
0.16
0.26
0.22
0.22
0.16
0.22
0.16
0.08
0.12
0.04
0.03
0.00
0.00
0.01
0.01
0.00
0.02
0.00
0.08
0.04
0.16
0.08
0.16
0.08
0.16
0.04
0.12
0.16
0.12
0.12
0.12
0.12
0.08
0.20
0.12
0.12
0.04
0.08
0.08
0.08
0.04
0.04
0.04
0.03
0.04
0.02
0.04
0.02
0.04
0.03
0.03
0.02
0.08
0.04
0.04
0.04
0.04
0.04
0.04
0.12
0.33
0.20
0.36
0.30
0.56
0.26
0.20
0.03
0.06
0.02
0.01
0.02
0.02
0.01
0.01
0.01
0.06
0.30
0.74
0.30
0.64
0.83
0.69
0.58
0.23
0.01
0.01
0.02
0.01
0.01
0.02
0.00
0.02
0.00
0.02
0.02
0.00
0.00
0.00
0.03
0.02
0.00
0.02
0.00
0.00
0.01
0.01
0.02
0.04
0.09
0.09
0.12
0.11
0.12
0.09
0.11
0.04
0.01
0.02
0.00
0.00
0.02
0.00
0.04
0.02
0.03
0.03
0.04
0.02
0.04
0.02
0.08
0.04
0.03
0.08
0.08
0.04
0.03
0.08
0.04
0.04
0.03
0.04
0.02
0.03
0.03
0.04
0.03
0.03
0.03
0.02
0.03
0.02
0.03
0.02
0.00
0.00
0.02
0.02
0.20
0.12
0.16
0.22
0.50
0.36
0.20
0.08
0.04
0.04
0.04
0.01
0.01
0.01
0.02
0.02
0.04
0.00
0.04
0.87
0.58
0.73
0.60
0.62
0.54
0.04
0.02
0.02
0.01
0.01
0.01
0.02
0.00
0.00
0.01
0.02
0.01
0.01
0.01
0.00
0.01
0.02
0.01
0.02
0.02
0.04
0.09
0.09
0.14
0.29
0.32
0.32
0.25
0.32
0.25
0.18
0.09
0.07
0.02
0.01
0.02
0.01
0.01
0.01
0.00
0.00
0.02
0.01
0.01
0.00
0.00
0.02
0.00
0.00
0.01
0.00
0.00
0.02
0.00
0.00
0.00
0.00
0.00
0.00
0.00
0.01
0.00
0.01
0.00
0.02
0.00
0.01
0.02
0.02
0.02
0.02
0.01
0.01
0.02
0.01
0.00
0.08
0.02
0.20
0.20
0.48
0.16
0.08
0.01
0.04
0.06
0.04
0.06
0.04
0.07
0.07
0.11
0.06
0.02
0.80
0.49
0.61
0.60
0.61
0.58
0.18
0.12
0.09
0.04
0.06
0.04
0.04
0.02
0.02
0.02
0.02
0.02
0.01
0.01
0.02
0.02
0.04
0.06
0.04
0.07
0.09
0.12
0.14
0.18
0.14
0.20
0.20
0.20
0.20
0.12
0.12
0.06
0.06
0.01
0.01
0.02
0.02
0.02
0.00
0.00
0.00
0.02
0.00
0.01
0.00
0.00
0.00
0.02
0.02
0.02
0.01
0.00
0.02
0.02
0.02
0.02
0.02
0.01
0.02
0.01
0.02
0.01
0.02
0.00
0.01
0.02
0.01
0.01
0.01
0.01
0.02
0.01
0.01
0.00
0.04
0.01
0.20
0.04
0.46
0.12
0.12
0.01
0.07
0.07
0.04
0.06
0.06
0.09
0.06
0.07
0.12
0.12
0.71
0.01
0.62
0.65
0.63
0.58
0.40
0.06
0.04
0.04
0.01
0.02
0.02
0.01
0.00
0.01
0.00
0.00
0.04
0.00
0.03
0.03
0.04
0.02
0.08
0.04
0.04
0.03
0.00
0.00
0.02
0.01
0.02
0.04
0.11
0.09
0.11
0.07
0.07
0.04
0.02
0.01
0.02
0.02
0.00
0.02
0.01
0.01
0.02
0.02
0.00
0.02
0.02
0.01
0.01
0.02
0.02
0.04
0.06
0.07
0.09
0.09
0.12
0.12
0.14
0.14
0.18
0.18
0.20
0.23
0.25
0.25
0.23
0.25
0.29
0.25
0.23
0.25
0.23
0.23
0.18
0.23
0.18
0.18
0.11
0.04
0.07
0.01
0.02
0.22
0.01
0.01
0.09
0.23
0.20
0.14
0.12
0.06
0.11
0.07
0.09
0.25
0.08
0.66
0.59
0.63
0.85
0.65
0.57
0.46
0.06
0.09
0.04
0.04
0.04
0.01
0.01
0.01
0.02
0.01
0.01
0.01
0.01
0.00
0.02
0.01
0.01
0.01
0.01
0.01
0.04
0.06
0.11
0.14
0.20
0.23
0.29
0.29
0.29
0.32
0.23
0.18
0.09
0.07
0.01
0.01
0.02
0.02
0.01
0.01
0.02
0.01
0.01
0.01
0.02
0.00
0.01
0.00
0.00
0.00
0.00
0.00
0.02
0.00
0.00
0.00
0.00
0.01
0.00
0.00
0.00
0.01
0.00
0.01
0.00
0.01
0.00
0.00
0.01
0.02
0.01
0.01
0.02
0.00
0.03
0.08
0.02
0.16
0.38
0.33
0.08
0.03
0.06
0.09
0.06
0.02
0.04
0.04
0.04
0.02
0.12
0.03
0.04
0.86
0.57
0.78
0.59
0.61
0.53
0.07
0.09
0.09
0.04
0.06
0.04
0.04
0.02
0.04
0.04
0.02
0.04
0.01
0.04
0.02
0.04
0.04
0.04
0.06
0.12
0.12
0.18
0.29
0.35
0.36
0.38
0.38
0.36
0.35
0.25
0.20
0.11
0.06
0.01
0.01
0.00
0.00
0.00
0.00
0.00
0.03
0.01
0.00
0.00
0.02
0.00
0.03
0.00
0.00
0.00
0.02
0.00
0.00
0.00
0.00
0.00
0.01
0.00
0.01
0.02
0.02
0.00
0.02
0.01
0.01
0.01
0.01
0.01
0.01
0.02
0.02
0.02
0.01
0.01
0.03
0.02
0.12
0.12
0.45
0.33
0.16
0.04
0.02
0.04
0.06
0.02
0.04
0.04
0.09
0.04
0.18
0.03
0.03
0.84
0.56
0.62
0.58
0.60
0.57
0.07
0.07
0.06
0.02
0.04
0.02
0.01
0.01
0.04
0.01
0.02
0.01
0.01
0.02
0.02
0.02
0.02
0.02
0.01
0.04
0.04
0.07
0.06
0.12
0.14
0.14
0.18
0.14
0.18
0.12
0.12
0.06
0.06
0.04
0.01
0.01
0.01
0.02
0.02
0.02
0.01
0.01
0.01
0.00
0.02
0.02
0.00
0.02
0.00
0.02
0.01
0.01
0.01
0.01
0.01
0.02
0.02
0.01
0.01
0.02
0.02
0.02
0.01
0.02
0.02
0.02
0.01
0.02
0.01
0.01
0.01
0.01
0.01
0.02
0.08
0.12
0.22
0.36
0.38
0.16
0.12
0.02
0.06
0.02
0.02
0.02
0.02
0.04
0.04
0.07
0.00
0.20
0.84
0.56
0.67
0.62
0.63
0.58
0.11
0.06
0.01
0.01
0.01
0.00
0.02
0.00
0.02
0.03
0.08
0.03
0.04
0.08
0.08
0.12
0.12
0.16
0.08
0.16
0.08
0.08
0.02
0.02
0.02
0.01
0.04
0.04
0.04
0.07
0.06
0.04
0.01
0.02
0.00
0.01
0.00
0.02
0.02
0.03
0.03
0.02
0.03
0.03
0.02
0.04
0.02
0.04
0.02
0.02
0.02
0.02
0.03
0.03
0.02
0.00
0.02
0.02
0.03
0.00
0.02
0.00
0.00
0.00
0.00
0.00
0.01
0.00
0.01
0.01
0.02
0.01
0.02
0.02
0.02
0.01
0.00
0.08
0.02
0.20
0.12
0.50
0.22
0.12
0.02
0.06
0.04
0.04
0.01
0.01
0.02
0.04
0.02
0.12
0.22
0.68
0.64
0.61
0.85
0.62
0.57
0.47
0.04
0.02
0.01
0.01
0.01
0.00
0.01
0.00
0.00
0.00
0.00
0.00
0.00
0.00
0.02
0.00
0.03
0.00
0.02
0.01
0.02
0.02
0.04
0.09
0.11
0.20
0.20
0.20
0.20
0.18
0.14
0.09
0.07
0.02
0.01
0.02
0.02
0.00
0.01
0.00
0.02
0.01
0.01
0.01
0.01
0.02
0.00
0.02
0.00
0.02
0.00
0.02
0.00
0.00
0.00
0.00
0.00
0.00
0.01
0.00
0.00
0.00
0.01
0.00
0.01
0.01
0.01
0.01
0.01
0.01
0.01
0.01
0.02
0.01
0.01
0.00
0.08
0.01
0.16
0.20
0.41
0.12
0.04
0.04
0.09
0.06
0.04
0.02
0.02
0.02
0.04
0.04
0.07
0.08
0.81
0.32
0.62
0.64
0.70
0.58
0.20
0.06
0.04
0.02
0.01
0.02
0.01
0.02
0.01
0.01
0.01
0.01
0.01
0.01
0.01
0.01
0.04
0.01
0.04
0.07
0.11
0.12
0.18
0.29
0.29
0.36
0.38
0.38
0.32
0.35
0.23
0.20
0.09
0.06
0.02
0.02
0.00
0.01
0.00
0.00
0.00
0.00
0.02
0.01
0.02
0.02
0.02
0.01
0.02
0.01
0.01
0.00
0.01
0.01
0.01
0.01
0.00
0.02
0.01
0.01
0.01
0.02
0.02
0.01
0.02
0.01
0.01
0.02
0.01
0.02
0.01
0.02
0.01
0.02
0.02
0.02
0.03
0.00
0.03
0.03
0.38
0.20
0.04
0.01
0.09
0.11
0.07
0.04
0.07
0.09
0.06
0.09
0.29
0.02
0.03
0.82
0.57
0.64
0.60
0.58
0.57
0.04
0.12
0.09
0.06
0.04
0.02
0.02
0.04
0.01
0.01
0.02
0.02
0.01
0.02
0.01
0.01
0.01
0.02
0.04
0.04
0.07
0.12
0.12
0.18
0.20
0.20
0.20
0.23
0.18
0.14
0.11
0.09
0.04
0.04
0.04
0.01
0.02
0.02
0.01
0.00
0.02
0.01
0.02
0.02
0.02
0.02
0.01
0.01
0.01
0.02
0.01
0.01
0.02
0.02
0.01
0.01
0.01
0.01
0.01
0.01
0.02
0.01
0.01
0.01
0.01
0.01
0.01
0.01
0.04
0.02
0.04
0.04
0.04
0.04
0.04
0.01
0.00
0.02
0.12
0.04
0.33
0.02
0.00
0.06
0.14
0.11
0.06
0.07
0.06
0.07
0.06
0.07
0.04
0.04
0.81
0.56
0.71
0.65
0.64
0.58
0.11
0.04
0.04
0.01
0.01
0.01
0.02
0.02
0.01
0.01
0.00
0.00
0.00
0.00
0.02
0.02
0.02
0.03
0.02
0.00
0.00
0.00
0.02
0.01
0.04
0.04
0.09
0.07
0.12
0.12
0.14
0.07
0.06
0.04
0.04
0.01
0.02
0.01
0.00
0.02
0.02
0.02
0.00
0.01
0.00
0.02
0.00
0.01
0.00
0.01
0.00
0.00
0.02
0.00
0.02
0.00
0.01
0.01
0.02
0.01
0.02
0.00
0.01
0.01
0.02
0.02
0.02
0.02
0.02
0.01
0.02
0.01
0.00
0.02
0.00
0.00
0.00
0.01
0.00
0.00
0.12
0.02
0.20
0.20
0.48
0.20
0.08
0.02
0.09
0.02
0.02
0.01
0.01
0.01
0.01
0.01
0.09
0.22
0.64
0.70
0.61
0.80
0.62
0.57
0.42
0.02
0.04
0.01
0.01
0.01
0.02
0.00
0.02
0.01
0.01
0.02
0.00
0.00
0.00
0.00
0.00
0.00
0.00
0.01
0.01
0.02
0.02
0.06
0.09
0.12
0.14
0.18
0.20
0.18
0.14
0.12
0.07
0.04
0.01
0.02
0.01
0.02
0.00
0.02
0.02
0.03
0.00
0.02
0.02
0.02
0.02
0.03
0.02
0.02
0.04
0.03
0.03
0.02
0.02
0.00
0.03
0.00
0.03
0.00
0.00
0.00
0.00
0.02
0.00
0.00
0.01
0.00
0.02
0.00
0.01
0.02
0.02
0.01
0.02
0.01
0.02
0.02
0.01
0.01
0.02
0.02
0.03
0.00
0.08
0.04
0.45
0.04
0.04
0.01
0.14
0.09
0.07
0.06
0.04
0.04
0.07
0.06
0.23
0.03
0.04
0.82
0.57
0.72
0.58
0.60
0.54
0.09
0.11
0.09
0.06
0.06
0.04
0.04
0.04
0.06
0.04
0.02
0.02
0.02
0.01
0.02
0.04
0.01
0.04
0.04
0.07
0.11
0.14
0.20
0.25
0.32
0.35
0.36
0.32
0.32
0.25
0.20
0.12
0.07
0.02
0.02
0.02
0.00
0.01
0.02
0.00
0.03
0.00
0.03
0.00
0.02
0.00
0.03
0.00
0.03
0.00
0.03
0.02
0.00
0.02
0.02
0.03
0.02
0.03
0.00
0.00
0.00
0.02
0.00
0.00
0.00
0.00
0.01
0.00
0.00
0.01
0.00
0.01
0.00
0.02
0.00
0.00
0.00
0.00
0.00
0.02
0.16
0.02
0.22
0.12
0.50
0.33
0.16
0.02
0.06
0.02
0.02
0.04
0.04
0.04
0.04
0.06
0.09
0.01
0.72
0.06
0.60
0.61
0.61
0.58
0.35
0.07
0.04
0.06
0.01
0.02
0.01
0.02
0.02
0.02
0.02
0.01
0.01
0.01
0.02
0.01
0.01
0.02
0.01
0.01
0.04
0.06
0.07
0.09
0.14
0.11
0.14
0.18
0.12
0.11
0.11
0.09
0.04
0.02
0.02
0.01
0.02
0.00
0.02
0.03
0.03
0.03
0.02
0.02
0.03
0.03
0.02
0.04
0.02
0.04
0.03
0.03
0.00
0.02
0.00
0.02
0.00
0.00
0.00
0.00
0.02
0.00
0.02
0.00
0.03
0.02
0.02
0.00
0.02
0.00
0.00
0.00
0.00
0.00
0.01
0.00
0.00
0.02
0.02
0.20
0.03
0.30
0.30
0.52
0.20
0.12
0.01
0.06
0.02
0.01
0.02
0.01
0.01
0.01
0.02
0.02
0.20
0.84
0.51
0.71
0.67
0.65
0.56
0.07
0.01
0.01
0.01
0.00
0.00
0.03
0.00
0.04
0.03
0.08
0.03
0.08
0.08
0.04
0.12
0.08
0.04
0.04
0.08
0.02
0.03
0.01
0.02
0.02
0.04
0.06
0.04
0.11
0.11
0.09
0.04
0.04
0.01
0.01
0.00
0.02
0.02
0.03
0.02
0.04
0.03
0.04
0.02
0.04
0.02
0.04
0.03
0.04
0.04
0.02
0.04
0.04
0.08
0.02
0.04
0.02
0.04
0.03
0.04
0.02
0.03
0.02
0.03
0.02
0.00
0.04
0.00
0.00
0.00
0.02
0.00
0.00
0.02
0.02
0.00
0.02
0.02
0.02
0.00
0.00
0.08
0.12
0.12
0.22
0.45
0.30
0.16
0.02
0.04
0.07
0.02
0.01
0.02
0.04
0.04
0.02
0.09
0.04
0.00
0.87
0.57
0.74
0.59
0.62
0.55
0.02
0.04
0.04
0.01
0.01
0.02
0.00
0.01
0.01
0.00
0.01
0.00
0.01
0.00
0.02
0.00
0.01
0.02
0.01
0.02
0.04
0.06
0.11
0.14
0.20
0.25
0.25
0.32
0.29
0.29
0.20
0.14
0.09
0.04
0.04
0.01
0.01
0.00
0.01
0.00
0.02
0.00
0.02
0.00
0.02
0.00
0.01
0.00
0.01
0.02
0.02
0.01
0.02
0.01
0.01
0.01
0.02
0.02
0.01
0.02
0.01
0.01
0.01
0.02
0.01
0.01
0.01
0.01
0.01
0.01
0.02
0.02
0.02
0.01
0.04
0.01
0.02
0.01
0.01
0.00
0.00
0.00
0.03
0.36
0.22
0.03
0.00
0.11
0.11
0.11
0.04
0.06
0.09
0.09
0.09
0.32
0.00
0.02
0.82
0.58
0.69
0.58
0.58
0.52
0.11
0.11
0.11
0.06
0.07
0.04
0.06
0.02
0.02
0.02
0.04
0.02
0.02
0.04
0.04
0.04
0.04
0.11
0.11
0.18
0.23
0.29
0.29
0.38
0.40
0.42
0.38
0.38
0.38
0.32
0.25
0.20
0.12
0.04
0.04
0.02
0.01
0.01
0.01
0.02
0.01
0.02
0.01
0.01
0.01
0.01
0.02
0.02
0.02
0.01
0.02
0.00
0.01
0.01
0.02
0.01
0.02
0.01
0.02
0.01
0.01
0.02
0.01
0.02
0.01
0.02
0.01
0.01
0.01
0.01
0.01
0.00
0.04
0.02
0.12
0.30
0.36
0.36
0.22
0.01
0.01
0.02
0.01
0.04
0.04
0.04
0.04
0.14
0.02
0.01
0.81
0.50
0.61
0.58
0.58
0.58
0.12
0.09
0.06
0.04
0.06
0.04
0.04
0.01
0.04
0.01
0.01
0.02
0.02
0.02
0.02
0.04
0.01
0.04
0.04
0.07
0.09
0.12
0.14
0.18
0.18
0.23
0.23
0.20
0.20
0.14
0.12
0.09
0.07
0.02
0.01
0.01
0.01
0.00
0.00
0.02
0.00
0.02
0.00
0.00
0.00
0.00
0.02
0.00
0.02
0.00
0.00
0.00
0.02
0.00
0.03
0.02
0.00
0.03
0.02
0.03
0.00
0.02
0.00
0.03
0.00
0.02
0.00
0.03
0.00
0.00
0.02
0.16
0.08
0.30
0.36
0.55
0.38
0.33
0.04
0.01
0.01
0.02
0.01
0.02
0.01
0.01
0.02
0.07
0.16
0.76
0.07
0.62
0.72
0.64
0.58
0.20
0.02
0.02
0.01
0.00
0.00
0.00
0.02
0.02
0.03
0.03
0.04
0.04
0.04
0.03
0.08
0.02
0.04
0.03
0.02
0.02
0.01
0.02
0.02
0.04
0.09
0.07
0.14
0.14
0.20
0.11
0.12
0.07
0.04
0.01
0.02
0.00
0.02
0.02
0.03
0.02
0.04
0.03
0.04
0.04
0.08
0.08
0.12
0.08
0.08
0.08
0.12
0.12
0.08
0.08
0.08
0.08
0.03
0.04
0.03
0.04
0.02
0.03
0.04
0.03
0.03
0.04
0.03
0.00
0.04
0.04
0.22
0.08
0.33
0.50
0.46
0.41
0.20
0.01
0.02
0.01
0.01
0.01
0.01
0.01
0.01
0.02
0.02
0.16
0.87
0.58
0.72
0.60
0.62
0.55
0.04
0.04
0.01
0.01
0.02
0.02
0.01
0.02
0.00
0.01
0.00
0.02
0.00
0.02
0.01
0.01
0.02
0.02
0.01
0.01
0.04
0.04
0.07
0.11
0.18
0.12
0.18
0.18
0.20
0.11
0.09
0.04
0.01
0.01
0.00
0.02
0.08
0.03
0.08
0.08
0.12
0.04
0.12
0.08
0.04
0.08
0.04
0.12
0.08
0.08
0.04
0.12
0.04
0.08
0.03
0.08
0.02
0.02
0.03
0.02
0.00
0.00
0.00
0.00
0.00
0.00
0.00
0.01
0.03
0.12
0.02
0.16
0.38
0.46
0.38
0.16
0.00
0.01
0.02
0.02
0.01
0.01
0.04
0.01
0.04
0.09
0.00
0.79
0.18
0.61
0.62
0.63
0.58
0.25
0.07
0.06
0.04
0.04
0.01
0.01
0.01
0.01
0.01
0.01
0.01
0.02
0.01
0.01
0.04
0.01
0.06
0.07
0.12
0.09
0.20
0.23
0.35
0.36
0.38
0.46
0.38
0.38
0.35
0.32
0.20
0.18
0.09
0.04
0.01
0.01
0.01
0.00
0.01
0.02
0.01
0.00
0.02
0.01
0.01
0.02
0.01
0.01
0.02
0.00
0.01
0.01
0.00
0.01
0.00
0.02
0.02
0.02
0.01
0.02
0.00
0.02
0.02
0.02
0.01
0.01
0.01
0.04
0.02
0.08
0.16
0.48
0.36
0.41
0.22
0.01
0.01
0.04
0.01
0.04
0.04
0.06
0.02
0.25
0.00
0.04
0.84
0.57
0.62
0.60
0.58
0.58
0.18
0.18
0.12
0.07
0.06
0.04
0.07
0.02
0.04
0.04
0.04
0.02
0.04
0.04
0.02
0.02
0.04
0.04
0.04
0.09
0.09
0.12
0.12
0.18
0.25
0.25
0.23
0.23
0.20
0.18
0.12
0.07
0.07
0.01
0.02
0.02
0.01
0.01
0.00
0.00
0.00
0.00
0.00
0.00
0.00
0.00
0.00
0.00
0.00
0.00
0.01
0.01
0.01
0.02
0.00
0.00
0.01
0.01
0.00
0.01
0.00
0.00
0.01
0.00
0.02
0.00
0.00
0.02
0.12
0.03
0.26
0.33
0.48
0.38
0.26
0.01
0.01
0.02
0.01
0.01
0.01
0.01
0.04
0.06
0.04
0.16
0.77
0.12
0.64
0.74
0.70
0.57
0.35
0.06
0.04
0.02
0.01
0.01
0.02
0.01
0.01
0.00
0.00
0.00
0.00
0.02
0.03
0.00
0.03
0.00
0.00
0.00
0.00
0.01
0.01
0.02
0.04
0.04
0.09
0.11
0.12
0.11
0.12
0.06
0.04
0.02
0.01
0.01
0.01
0.01
0.00
0.01
0.01
0.01
0.01
0.01
0.00
0.02
0.00
0.00
0.00
0.00
0.00
0.00
0.00
0.02
0.01
0.01
0.01
0.00
0.02
0.01
0.02
0.00
0.01
0.01
0.01
0.00
0.01
0.00
0.00
0.00
0.12
0.08
0.22
0.16
0.52
0.33
0.16
0.02
0.04
0.04
0.04
0.02
0.02
0.04
0.04
0.01
0.06
0.04
0.12
0.87
0.57
0.76
0.64
0.67
0.56
0.11
0.07
0.04
0.01
0.04
0.02
0.01
0.01
0.02
0.00
0.01
0.00
0.00
0.00
0.00
0.00
0.00
0.01
0.00
0.01
0.02
0.04
0.06
0.11
0.14
0.20
0.25
0.23
0.23
0.20
0.18
0.09
0.06
0.02
0.01
0.02
0.02
0.01
0.01
0.00
0.01
0.01
0.00
0.01
0.01
0.02
0.00
0.02
0.01
0.01
0.00
0.01
0.01
0.01
0.00
0.01
0.02
0.01
0.01
0.02
0.01
0.01
0.01
0.01
0.01
0.01
0.02
0.01
0.01
0.04
0.02
0.02
0.00
0.01
0.01
0.00
0.22
0.20
0.03
0.01
0.11
0.18
0.11
0.06
0.06
0.06
0.07
0.04
0.07
0.04
0.04
0.84
0.42
0.62
0.62
0.65
0.58
0.25
0.06
0.12
0.09
0.04
0.04
0.04
0.01
0.02
0.04
0.04
0.02
0.01
0.04
0.04
0.04
0.09
0.11
0.07
0.14
0.18
0.25
0.29
0.38
0.40
0.42
0.46
0.42
0.44
0.36
0.29
0.18
0.11
0.04
0.04
0.02
0.02
0.02
0.01
0.00
0.00
0.01
0.01
0.02
0.00
0.01
0.01
0.01
0.00
0.01
0.01
0.00
0.01
0.00
0.00
0.01
0.02
0.02
0.01
0.00
0.02
0.00
0.02
0.00
0.00
0.00
0.00
0.00
0.02
0.00
0.00
0.12
0.03
0.20
0.08
0.50
0.30
0.16
0.03
0.06
0.04
0.04
0.04
0.02
0.07
0.06
0.07
0.14
0.02
0.48
0.84
0.57
0.62
0.61
0.58
0.57
0.07
0.12
0.06
0.06
0.02
0.04
0.01
0.02
0.02
0.01
0.01
0.01
0.01
0.02
0.01
0.02
0.01
0.01
0.04
0.04
0.07
0.06
0.11
0.14
0.18
0.14
0.14
0.12
0.12
0.09
0.06
0.04
0.01
0.01
0.00
0.00
0.00
0.00
0.00
0.00
0.00
0.00
0.00
0.00
0.00
0.01
0.00
0.00
0.02
0.00
0.01
0.02
0.01
0.01
0.01
0.01
0.01
0.02
0.02
0.01
0.01
0.01
0.01
0.01
0.01
0.02
0.02
0.02
0.01
0.00
0.08
0.00
0.22
0.22
0.36
0.16
0.08
0.02
0.11
0.07
0.06
0.07
0.09
0.09
0.11
0.11
0.12
0.08
0.78
0.46
0.74
0.80
0.74
0.57
0.38
0.12
0.07
0.06
0.02
0.02
0.01
0.01
0.01
0.01
0.01
0.01
0.02
0.02
0.00
0.03
0.00
0.02
0.00
0.02
0.01
0.00
0.01
0.04
0.07
0.09
0.14
0.14
0.18
0.18
0.12
0.09
0.06
0.04
0.01
0.02
0.00
0.01
0.00
0.00
0.02
0.00
0.00
0.03
0.00
0.02
0.03
0.03
0.02
0.02
0.00
0.02
0.00
0.00
0.00
0.00
0.01
0.02
0.01
0.01
0.02
0.01
0.02
0.01
0.01
0.01
0.02
0.01
0.02
0.02
0.01
0.01
0.01
0.00
0.04
0.03
0.20
0.16
0.50
0.22
0.12
0.00
0.06
0.02
0.01
0.02
0.01
0.01
0.01
0.02
0.04
0.36
0.70
0.71
0.62
0.83
0.62
0.57
0.44
0.02
0.04
0.01
0.01
0.02
0.02
0.00
0.01
0.00
0.00
0.00
0.00
0.02
0.00
0.02
0.00
0.00
0.01
0.02
0.02
0.01
0.04
0.09
0.11
0.14
0.18
0.23
0.23
0.23
0.18
0.11
0.04
0.02
0.02
0.00
0.02
0.02
0.00
0.00
0.00
0.02
0.00
0.00
0.00
0.02
0.03
0.02
0.02
0.02
0.04
0.02
0.04
0.02
0.03
0.00
0.00
0.00
0.00
0.00
0.00
0.02
0.00
0.00
0.00
0.00
0.01
0.01
0.00
0.00
0.02
0.00
0.00
0.02
0.00
0.03
0.16
0.04
0.22
0.16
0.55
0.22
0.12
0.00
0.06
0.06
0.02
0.01
0.01
0.04
0.02
0.01
0.11
0.22
0.38
0.84
0.58
0.72
0.60
0.57
0.51
0.04
0.09
0.07
0.04
0.04
0.02
0.02
0.01
0.01
0.01
0.02
0.02
0.01
0.01
0.01
0.01
0.04
0.04
0.04
0.09
0.11
0.14
0.20
0.29
0.32
0.35
0.35
0.35
0.29
0.23
0.11
0.09
0.04
0.01
0.02
0.02
0.00
0.00
0.01
0.00
0.00
0.00
0.00
0.02
0.00
0.03
0.00
0.00
0.00
0.03
0.02
0.00
0.02
0.01
0.02
0.00
0.00
0.00
0.02
0.00
0.00
0.00
0.00
0.00
0.00
0.00
0.00
0.01
0.00
0.00
0.00
0.01
0.01
0.00
0.02
0.04
0.08
0.02
0.20
0.22
0.48
0.22
0.03
0.02
0.06
0.06
0.06
0.04
0.04
0.07
0.04
0.11
0.12
0.00
0.71
0.08
0.60
0.62
0.61
0.58
0.36
0.11
0.06
0.06
0.04
0.01
0.02
0.01
0.01
0.01
0.01
0.01
0.02
0.02
0.02
0.01
0.01
0.02
0.04
0.04
0.04
0.09
0.11
0.12
0.14
0.23
0.20
0.23
0.14
0.18
0.09
0.07
0.06
0.02
0.01
0.01
0.01
0.00
0.00
0.02
0.00
0.00
0.02
0.02
0.00
0.02
0.00
0.02
0.02
0.03
0.00
0.00
0.00
0.02
0.00
0.00
0.03
0.00
0.00
0.00
0.02
0.01
0.02
0.00
0.00
0.01
0.00
0.00
0.01
0.00
0.01
0.00
0.01
0.12
0.03
0.30
0.16
0.50
0.22
0.16
0.02
0.04
0.02
0.04
0.02
0.04
0.02
0.04
0.02
0.14
0.22
0.60
0.71
0.63
0.83
0.64
0.57
0.46
0.04
0.04
0.04
0.01
0.01
0.00
0.01
0.01
0.01
0.00
0.01
0.00
0.00
0.00
0.00
0.00
0.00
0.01
0.00
0.02
0.01
0.02
0.02
0.09
0.09
0.18
0.14
0.18
0.18
0.12
0.07
0.06
0.04
0.02
0.01
0.00
0.00
0.03
0.00
0.02
0.00
0.02
0.00
0.02
0.03
0.02
0.03
0.00
0.04
0.02
0.03
0.00
0.03
0.00
0.02
0.00
0.02
0.00
0.00
0.02
0.00
0.00
0.00
0.00
0.00
0.00
0.00
0.00
0.01
0.00
0.01
0.01
0.02
0.01
0.00
0.04
0.04
0.08
0.20
0.36
0.36
0.08
0.04
0.06
0.06
0.04
0.02
0.04
0.04
0.04
0.04
0.04
0.01
0.08
0.87
0.55
0.70
0.62
0.69
0.57
0.06
0.04
0.02
0.02
0.02
0.02
0.00
0.00
0.02
0.00
0.03
0.00
0.02
0.02
0.03
0.00
0.00
0.00
0.01
0.01
0.01
0.01
0.04
0.09
0.12
0.20
0.23
0.20
0.25
0.18
0.14
0.11
0.06
0.04
0.01
0.02
0.00
0.02
0.00
0.01
0.00
0.01
0.02
0.00
0.00
0.01
0.00
0.01
0.00
0.00
0.00
0.00
0.00
0.00
0.00
0.00
0.01
0.02
0.01
0.00
0.01
0.00
0.02
0.02
0.01
0.01
0.01
0.01
0.01
0.02
0.04
0.06
0.02
0.09
0.06
0.11
0.09
0.14
0.07
0.06
0.11
0.06
0.02
0.02
0.12
0.14
0.38
0.46
0.47
0.42
0.44
0.44
0.46
0.42
0.47
0.40
0.25
0.76
0.52
0.64
0.62
0.70
0.57
0.46
0.36
0.32
0.23
0.25
0.18
0.14
0.11
0.11
0.09
0.07
0.09
0.04
0.06
0.04
0.06
0.06
0.09
0.11
0.14
0.14
0.32
0.35
0.36
0.40
0.42
0.44
0.40
0.42
0.36
0.25
0.18
0.14
0.06
0.04
0.01
0.01
0.01
0.00
0.00
0.00
0.00
0.00
0.00
0.03
0.02
0.00
0.00
0.00
0.00
0.02
0.00
0.00
0.00
0.00
0.00
0.02
0.00
0.00
0.00
0.01
0.01
0.02
0.00
0.02
0.02
0.01
0.01
0.01
0.02
0.01
0.01
0.02
0.00
0.16
0.08
0.46
0.26
0.20
0.02
0.02
0.04
0.07
0.04
0.04
0.04
0.07
0.06
0.23
0.04
0.26
0.81
0.57
0.62
0.60
0.57
0.55
0.04
0.11
0.04
0.04
0.04
0.02
0.02
0.02
0.02
0.02
0.01
0.01
0.04
0.01
0.01
0.02
0.02
0.04
0.02
0.04
0.04
0.09
0.07
0.18
0.11
0.18
0.12
0.14
0.09
0.11
0.06
0.04
0.01
0.01
0.00
0.00
0.00
0.04
0.03
0.08
0.03
0.08
0.04
0.08
0.08
0.08
0.12
0.08
0.04
0.04
0.12
0.08
0.08
0.08
0.04
0.04
0.08
0.04
0.08
0.04
0.04
0.04
0.03
0.03
0.04
0.04
0.03
0.04
0.02
0.04
0.02
0.04
0.12
0.20
0.22
0.26
0.56
0.41
0.36
0.12
0.02
0.01
0.01
0.01
0.01
0.02
0.01
0.04
0.09
0.22
0.33
0.84
0.61
0.82
0.62
0.60
0.52
0.04
0.04
0.02
0.02
0.02
0.02
0.01
0.00
0.00
0.00
0.00
0.02
0.00
0.02
0.03
0.04
0.02
0.02
0.02
0.02
0.00
0.01
0.01
0.02
0.07
0.11
0.11
0.14
0.18
0.18
0.12
0.07
0.04
0.02
0.02
0.01
0.01
0.01
0.01
0.01
0.01
0.00
0.02
0.01
0.01
0.00
0.01
0.00
0.00
0.00
0.00
0.00
0.00
0.00
0.02
0.00
0.02
0.00
0.02
0.02
0.02
0.02
0.00
0.00
0.00
0.00
0.00
0.00
0.00
0.02
0.00
0.00
0.01
0.00
0.02
0.00
0.00
0.12
0.02
0.20
0.08
0.48
0.12
0.04
0.02
0.11
0.07
0.06
0.02
0.04
0.04
0.04
0.04
0.20
0.16
0.55
0.76
0.60
0.78
0.61
0.57
0.47
0.07
0.06
0.09
0.04
0.04
0.01
0.04
0.02
0.01
0.02
0.01
0.01
0.01
0.01
0.02
0.01
0.01
0.02
0.02
0.04
0.06
0.11
0.12
0.20
0.25
0.29
0.32
0.32
0.32
0.25
0.20
0.12
0.09
0.04
0.02
0.02
0.01
0.00
0.01
0.01
0.01
0.01
0.01
0.00
0.00
0.02
0.02
0.02
0.02
0.02
0.02
0.01
0.01
0.01
0.02
0.02
0.01
0.01
0.02
0.01
0.01
0.02
0.01
0.01
0.01
0.02
0.01
0.01
0.01
0.02
0.01
0.01
0.02
0.01
0.01
0.02
0.02
0.02
0.01
0.02
0.01
0.01
0.01
0.00
0.00
0.00
0.03
0.33
0.12
0.03
0.02
0.07
0.12
0.06
0.04
0.02
0.04
0.06
0.04
0.07
0.01
0.01
0.87
0.51
0.61
0.58
0.62
0.57
0.04
0.07
0.04
0.02
0.04
0.01
0.01
0.01
0.01
0.02
0.01
0.01
0.01
0.02
0.01
0.04
0.02
0.04
0.07
0.11
0.14
0.23
0.29
0.35
0.36
0.42
0.40
0.42
0.42
0.44
0.36
0.32
0.23
0.12
0.09
0.04
0.02
0.01
0.02
0.02
0.02
0.01
0.01
0.01
0.01
0.01
0.00
0.02
0.01
0.00
0.03
0.00
0.03
0.00
0.02
0.01
0.02
0.00
0.00
0.00
0.00
0.02
0.00
0.02
0.00
0.04
0.00
0.02
0.00
0.02
0.00
0.00
0.00
0.00
0.00
0.00
0.00
0.01
0.00
0.02
0.00
0.02
0.02
0.02
0.02
0.04
0.12
0.12
0.36
0.33
0.16
0.08
0.04
0.06
0.06
0.04
0.04
0.09
0.07
0.06
0.20
0.01
0.08
0.84
0.57
0.61
0.58
0.58
0.57
0.06
0.12
0.06
0.04
0.04
0.02
0.01
0.01
0.01
0.02
0.01
0.01
0.02
0.01
0.02
0.01
0.01
0.01
0.04
0.04
0.04
0.06
0.11
0.11
0.12
0.12
0.18
0.14
0.14
0.14
0.12
0.12
0.07
0.07
0.02
0.02
0.02
0.01
0.00
0.02
0.01
0.02
0.01
0.01
0.01
0.02
0.01
0.01
0.02
0.02
0.02
0.01
0.01
0.01
0.02
0.01
0.01
0.01
0.01
0.01
0.01
0.02
0.01
0.01
0.01
0.02
0.01
0.01
0.01
0.01
0.02
0.01
0.01
0.01
0.00
0.12
0.03
0.20
0.12
0.48
0.12
0.16
0.02
0.06
0.06
0.02
0.04
0.01
0.04
0.02
0.01
0.12
0.30
0.46
0.81
0.61
0.83
0.62
0.58
0.48
0.01
0.01
0.01
0.00
0.00
0.00
0.00
0.03
0.03
0.04
0.03
0.08
0.03
0.04
0.08
0.12
0.04
0.03
0.08
0.02
0.02
0.00
0.01
0.04
0.04
0.11
0.07
0.12
0.12
0.09
0.07
0.06
0.01
0.02
0.01
0.03
0.03
0.08
0.03
0.04
0.03
0.04
0.02
0.04
0.04
0.04
0.04
0.04
0.12
0.03
0.04
0.08
0.04
0.03
0.12
0.04
0.04
0.03
0.03
0.02
0.03
0.03
0.02
0.03
0.00
0.03
0.02
0.02
0.00
0.02
0.00
0.00
0.00
0.00
0.00
0.00
0.03
0.12
0.03
0.20
0.26
0.50
0.30
0.20
0.00
0.07
0.04
0.02
0.01
0.01
0.04
0.01
0.04
0.14
0.12
0.56
0.70
0.60
0.75
0.62
0.57
0.47
0.06
0.06
0.02
0.01
0.02
0.02
0.02
0.00
0.00
0.00
0.00
0.02
0.02
0.03
0.02
0.03
0.00
0.00
0.00
0.00
0.02
0.01
0.02
0.07
0.11
0.12
0.11
0.14
0.18
0.14
0.07
0.07
0.01
0.02
0.00
0.00
0.08
0.08
0.08
0.08
0.08
0.03
0.04
0.08
0.04
0.08
0.03
0.08
0.08
0.08
0.04
0.08
0.08
0.04
0.08
0.03
0.08
0.03
0.12
0.03
0.04
0.03
0.04
0.03
0.08
0.02
0.04
0.03
0.02
0.03
0.03
0.03
0.00
0.03
0.02
0.08
0.22
0.16
0.30
0.56
0.38
0.38
0.16
0.02
0.02
0.04
0.02
0.01
0.01
0.02
0.01
0.09
0.03
0.00
0.86
0.58
0.70
0.58
0.62
0.57
0.07
0.09
0.06
0.04
0.04
0.01
0.01
0.01
0.02
0.02
0.02
0.04
0.01
0.01
0.01
0.01
0.01
0.02
0.04
0.04
0.07
0.09
0.12
0.20
0.23
0.29
0.35
0.32
0.35
0.25
0.25
0.12
0.09
0.02
0.01
0.01
0.00
0.00
0.00
0.00
0.02
0.02
0.00
0.01
0.01
0.01
0.01
0.01
0.01
0.01
0.01
0.02
0.02
0.04
0.04
0.04
0.06
0.04
0.04
0.04
0.04
0.04
0.04
0.02
0.02
0.04
0.02
0.01
0.01
0.02
0.01
0.02
0.01
0.01
0.01
0.01
0.02
0.02
0.04
0.00
0.08
0.33
0.33
0.20
0.02
0.04
0.09
0.07
0.04
0.02
0.06
0.04
0.06
0.14
0.02
0.01
0.85
0.58
0.65
0.58
0.61
0.57
0.04
0.09
0.04
0.04
0.04
0.02
0.01
0.01
0.01
0.01
0.01
0.01
0.02
0.02
0.02
0.01
0.01
0.01
0.04
0.04
0.07
0.11
0.18
0.25
0.32
0.32
0.36
0.35
0.35
0.36
0.25
0.20
0.12
0.07
0.01
0.02
0.00
0.01
0.02
0.02
0.01
0.01
0.01
0.01
0.02
0.01
0.01
0.01
0.01
0.02
0.01
0.02
0.01
0.01
0.01
0.02
0.01
0.01
0.01
0.02
0.02
0.01
0.01
0.01
0.02
0.01
0.01
0.01
0.02
0.01
0.00
0.02
0.02
0.01
0.02
0.01
0.01
0.00
0.00
0.16
0.03
0.41
0.22
0.08
0.01
0.06
0.07
0.06
0.04
0.04
0.06
0.07
0.06
0.32
0.00
0.52
0.56
0.58
0.67
0.62
0.58
0.47
0.11
0.07
0.04
0.04
0.02
0.01
0.02
0.01
0.01
0.02
0.02
0.01
0.01
0.02
0.01
0.02
0.01
0.04
0.04
0.06
0.11
0.18
0.18
0.29
0.32
0.36
0.35
0.38
0.32
0.32
0.20
0.14
0.11
0.06
0.02
0.02
0.02
0.00
0.00
0.00
0.01
0.00
0.00
0.03
0.00
0.03
0.00
0.00
0.00
0.02
0.03
0.00
0.04
0.02
0.03
0.03
0.08
0.02
0.04
0.03
0.03
0.02
0.03
0.03
0.02
0.03
0.02
0.03
0.00
0.03
0.00
0.03
0.00
0.02
0.00
0.02
0.00
0.12
0.08
0.12
0.20
0.48
0.36
0.22
0.08
0.04
0.02
0.07
0.01
0.02
0.04
0.04
0.04
0.14
0.02
0.03
0.84
0.58
0.69
0.58
0.59
0.54
0.04
0.04
0.04
0.04
0.01
0.01
0.01
0.02
0.02
0.01
0.01
0.02
0.00
0.01
0.01
0.01
0.02
0.02
0.02
0.04
0.09
0.14
0.14
0.29
0.32
0.35
0.35
0.38
0.38
0.32
0.32
0.18
0.11
0.06
0.04
0.01
0.01
0.01
0.00
0.00
0.00
0.00
0.00
0.00
0.02
0.00
0.00
0.00
0.03
0.00
0.03
0.02
0.03
0.02
0.02
0.03
0.02
0.00
0.02
0.00
0.00
0.02
0.00
0.00
0.00
0.02
0.00
0.00
0.00
0.02
0.00
0.00
0.02
0.00
0.00
0.00
0.04
0.12
0.08
0.22
0.48
0.38
0.36
0.12
0.01
0.04
0.02
0.01
0.01
0.02
0.02
0.01
0.09
0.00
0.00
0.86
0.58
0.64
0.57
0.60
0.57
0.04
0.09
0.06
0.04
0.02
0.01
0.02
0.01
0.02
0.02
0.01
0.01
0.02
0.02
0.01
0.00
0.02
0.01
0.01
0.04
0.04
0.07
0.11
0.18
0.23
0.25
0.25
0.35
0.29
0.23
0.14
0.12
0.06
0.04
0.01
0.02
0.00
0.00
0.00
0.00
0.00
0.00
0.01
0.00
0.00
0.00
0.00
0.03
0.00
0.02
0.00
0.02
0.00
0.00
0.00
0.00
0.00
0.00
0.00
0.00
0.00
0.01
0.02
0.00
0.00
0.00
0.00
0.00
0.02
0.00
0.00
0.00
0.00
0.02
0.00
0.00
0.00
0.02
0.04
0.16
0.08
0.26
0.41
0.46
0.20
0.12
0.01
0.04
0.04
0.01
0.01
0.01
0.01
0.02
0.04
0.02
0.02
0.86
0.53
0.62
0.59
0.62
0.56
0.04
0.06
0.02
0.02
0.01
0.01
0.01
0.01
0.01
0.02
0.00
0.00
0.00
0.00
0.01
0.01
0.01
0.02
0.01
0.01
0.04
0.06
0.11
0.12
0.20
0.23
0.32
0.25
0.25
0.25
0.20
0.12
0.07
0.06
0.01
0.02
0.00
0.00
0.02
0.02
0.04
0.02
0.03
0.03
0.03
0.04
0.04
0.03
0.04
0.08
0.03
0.04
0.04
0.12
0.03
0.04
0.03
0.04
0.04
0.04
0.03
0.02
0.02
0.02
0.03
0.00
0.03
0.00
0.03
0.00
0.02
0.00
0.02
0.00
0.00
0.00
0.00
0.00
0.00
0.03
0.12
0.04
0.26
0.22
0.50
0.30
0.20
0.00
0.04
0.04
0.02
0.02
0.02
0.04
0.01
0.04
0.18
0.03
0.41
0.77
0.57
0.70
0.60
0.57
0.49
0.06
0.09
0.02
0.04
0.02
0.02
0.02
0.02
0.01
0.01
0.00
0.01
0.00
0.00
0.01
0.00
0.01
0.01
0.02
0.02
0.04
0.07
0.14
0.20
0.25
0.29
0.35
0.32
0.35
0.32
0.23
0.14
0.09
0.07
0.01
0.01
0.01
0.02
0.00
0.01
0.02
0.01
0.01
0.00
0.02
0.00
0.01
0.00
0.02
0.00
0.00
0.00
0.01
0.00
0.01
0.00
0.00
0.00
0.00
0.00
0.00
0.01
0.00
0.01
0.00
0.00
0.00
0.00
0.00
0.00
0.02
0.00
0.00
0.00
0.02
0.00
0.00
0.00
0.00
0.00
0.01
0.00
0.01
0.00
0.00
0.16
0.03
0.16
0.30
0.45
0.12
0.03
0.01
0.06
0.02
0.01
0.02
0.01
0.01
0.02
0.04
0.04
0.01
0.85
0.46
0.61
0.58
0.62
0.56
0.07
0.06
0.04
0.04
0.01
0.01
0.01
0.02
0.00
0.00
0.00
0.00
0.00
0.00
0.00
0.01
0.01
0.01
0.02
0.01
0.04
0.04
0.12
0.14
0.25
0.25
0.32
0.32
0.32
0.32
0.23
0.14
0.09
0.04
0.02
0.01
0.00
0.00
0.02
0.00
0.00
0.02
0.02
0.02
0.00
0.02
0.00
0.00
0.02
0.03
0.00
0.00
0.00
0.00
0.00
0.00
0.00
0.01
0.02
0.01
0.02
0.01
0.01
0.02
0.01
0.01
0.01
0.02
0.00
0.02
0.00
0.02
0.00
0.01
0.00
0.01
0.02
0.00
0.01
0.00
0.02
0.01
0.02
0.01
0.02
0.01
0.04
0.00
0.08
0.04
0.45
0.08
0.03
0.01
0.11
0.11
0.07
0.06
0.07
0.09
0.06
0.09
0.32
0.00
0.03
0.81
0.57
0.70
0.58
0.58
0.54
0.09
0.11
0.09
0.04
0.04
0.02
0.04
0.01
0.02
0.01
0.01
0.01
0.01
0.02
0.01
0.01
0.02
0.01
0.02
0.04
0.07
0.11
0.12
0.25
0.29
0.36
0.36
0.40
0.36
0.36
0.32
0.29
0.14
0.09
0.06
0.01
0.02
0.01
0.01
0.00
0.00
0.00
0.01
0.00
0.01
0.01
0.02
0.01
0.02
0.02
0.01
0.02
0.01
0.02
0.00
0.01
0.00
0.01
0.01
0.02
0.01
0.01
0.01
0.01
0.01
0.01
0.01
0.01
0.02
0.02
0.01
0.02
0.02
0.01
0.01
0.01
0.01
0.01
0.02
0.01
0.01
0.01
0.00
0.00
0.00
0.02
0.30
0.20
0.02
0.02
0.09
0.12
0.12
0.07
0.07
0.06
0.11
0.07
0.12
0.04
0.06
0.84
0.52
0.62
0.60
0.62
0.58
0.14
0.18
0.12
0.07
0.09
0.04
0.04
0.04
0.04
0.02
0.04
0.06
0.04
0.04
0.04
0.06
0.04
0.07
0.06
0.12
0.11
0.20
0.25
0.32
0.36
0.40
0.46
0.40
0.46
0.42
0.40
0.32
0.29
0.14
0.09
0.04
0.02
0.01
0.01
0.02
0.01
0.02
0.01
0.01
0.01
0.02
0.00
0.02
0.00
0.01
0.01
0.01
0.02
0.01
0.01
0.01
0.01
0.01
0.01
0.01
0.02
0.01
0.01
0.02
0.01
0.01
0.01
0.02
0.01
0.01
0.01
0.01
0.02
0.01
0.01
0.01
0.01
0.02
0.02
0.01
0.01
0.01
0.02
0.02
0.00
0.02
0.03
0.33
0.20
0.02
0.01
0.11
0.09
0.07
0.07
0.06
0.07
0.07
0.09
0.18
0.01
0.02
0.86
0.56
0.62
0.57
0.61
0.57
0.07
0.23
0.12
0.11
0.09
0.07
0.07
0.06
0.06
0.07
0.06
0.04
0.07
0.04
0.09
0.07
0.11
0.11
0.14
0.12
0.23
0.32
0.32
0.40
0.38
0.46
0.44
0.46
0.40
0.40
0.29
0.25
0.12
0.12
0.06
0.04
0.01
0.02
0.02
0.02
0.01
0.01
0.01
0.01
0.01
0.02
0.02
0.02
0.02
0.02
0.02
0.02
0.01
0.02
0.01
0.01
0.01
0.01
0.01
0.01
0.02
0.02
0.00
0.02
0.01
0.01
0.02
0.01
0.01
0.01
0.02
0.01
0.01
0.01
0.01
0.01
0.02
0.01
0.03
0.03
0.02
0.04
0.30
0.36
0.16
0.04
0.01
0.07
0.06
0.04
0.04
0.06
0.06
0.07
0.12
0.04
0.01
0.82
0.49
0.60
0.58
0.59
0.58
0.23
0.09
0.06
0.04
0.04
0.02
0.01
0.01
0.01
0.02
0.02
0.01
0.01
0.00
0.01
0.01
0.00
0.02
0.01
0.01
0.01
0.04
0.06
0.11
0.11
0.14
0.18
0.23
0.20
0.18
0.18
0.09
0.07
0.02
0.01
0.01
0.00
0.02
0.04
0.08
0.04
0.03
0.08
0.04
0.04
0.04
0.12
0.04
0.04
0.04
0.04
0.03
0.03
0.04
0.04
0.02
0.03
0.03
0.03
0.04
0.02
0.03
0.03
0.03
0.02
0.03
0.00
0.03
0.00
0.00
0.00
0.00
0.00
0.01
0.00
0.00
0.16
0.04
0.26
0.26
0.55
0.36
0.30
0.03
0.02
0.01
0.04
0.02
0.01
0.01
0.01
0.01
0.14
0.22
0.60
0.71
0.61
0.80
0.63
0.57
0.44
0.04
0.04
0.04
0.01
0.01
0.02
0.02
0.01
0.02
0.01
0.01
0.02
0.00
0.02
0.00
0.02
0.00
0.02
0.00
0.01
0.01
0.02
0.04
0.11
0.11
0.12
0.14
0.20
0.18
0.14
0.12
0.09
0.06
0.01
0.01
0.00
0.03
0.03
0.03
0.03
0.04
0.00
0.04
0.03
0.08
0.02
0.04
0.03
0.04
0.03
0.04
0.04
0.04
0.02
0.03
0.03
0.02
0.03
0.00
0.00
0.00
0.01
0.01
0.00
0.01
0.00
0.01
0.02
0.00
0.00
0.00
0.00
0.00
0.00
0.00
0.00
0.03
0.03
0.20
0.04
0.33
0.30
0.50
0.22
0.16
0.01
0.07
0.04
0.04
0.04
0.04
0.04
0.07
0.09
0.12
0.02
0.81
0.32
0.63
0.64
0.70
0.58
0.20
0.09
0.06
0.04
0.01
0.01
0.02
0.01
0.00
0.02
0.00
0.00
0.01
0.00
0.00
0.00
0.01
0.01
0.01
0.02
0.02
0.02
0.07
0.09
0.18
0.20
0.29
0.25
0.29
0.29
0.20
0.23
0.09
0.09
0.04
0.02
0.02
0.01
0.01
0.01
0.01
0.02
0.01
0.01
0.01
0.01
0.02
0.01
0.01
0.01
0.01
0.01
0.01
0.02
0.02
0.01
0.01
0.01
0.00
0.01
0.00
0.01
0.00
0.01
0.00
0.02
0.00
0.01
0.00
0.01
0.00
0.01
0.00
0.00
0.02
0.01
0.00
0.00
0.02
0.12
0.03
0.22
0.26
0.45
0.20
0.04
0.02
0.09
0.06
0.04
0.04
0.04
0.04
0.06
0.04
0.09
0.01
0.84
0.36
0.60
0.61
0.62
0.58
0.14
0.11
0.06
0.04
0.02
0.04
0.01
0.04
0.04
0.01
0.02
0.02
0.04
0.04
0.04
0.04
0.06
0.06
0.11
0.11
0.12
0.23
0.25
0.36
0.40
0.42
0.46
0.47
0.44
0.44
0.38
0.35
0.29
0.20
0.12
0.07
0.07
0.04
0.04
0.04
0.04
0.04
0.02
0.01
0.02
0.01
0.04
0.01
0.01
0.02
0.02
0.02
0.02
0.02
0.02
0.01
0.01
0.01
0.01
0.02
0.00
0.02
0.01
0.02
0.00
0.01
0.02
0.02
0.01
0.00
0.01
0.01
0.01
0.02
0.03
0.03
0.04
0.45
0.33
0.26
0.08
0.04
0.04
0.06
0.04
0.06
0.04
0.07
0.07
0.25
0.00
0.00
0.84
0.58
0.62
0.59
0.57
0.55
0.06
0.12
0.07
0.04
0.06
0.02
0.04
0.01
0.02
0.01
0.01
0.02
0.04
0.01
0.02
0.02
0.04
0.02
0.04
0.11
0.09
0.14
0.14
0.23
0.23
0.29
0.25
0.25
0.20
0.14
0.12
0.07
0.04
0.02
0.01
0.02
0.01
0.01
0.00
0.00
0.01
0.00
0.01
0.02
0.00
0.00
0.00
0.00
0.00
0.00
0.00
0.01
0.00
0.00
0.00
0.02
0.00
0.01
0.00
0.02
0.01
0.02
0.01
0.01
0.00
0.02
0.02
0.02
0.01
0.01
0.00
0.12
0.04
0.16
0.16
0.52
0.38
0.26
0.04
0.01
0.04
0.02
0.01
0.02
0.04
0.02
0.06
0.23
0.08
0.64
0.67
0.61
0.75
0.62
0.57
0.46
0.04
0.04
0.04
0.02
0.01
0.01
0.01
0.00
0.01
0.00
0.00
0.02
0.01
0.02
0.00
0.02
0.00
0.00
0.00
0.00
0.02
0.01
0.01
0.06
0.09
0.07
0.07
0.14
0.12
0.12
0.07
0.06
0.01
0.02
0.00
0.02
0.02
0.04
0.04
0.08
0.04
0.08
0.03
0.08
0.12
0.08
0.04
0.16
0.03
0.04
0.08
0.04
0.08
0.04
0.04
0.04
0.08
0.03
0.08
0.04
0.03
0.02
0.02
0.00
0.02
0.00
0.00
0.00
0.00
0.00
0.00
0.16
0.02
0.26
0.12
0.52
0.33
0.22
0.00
0.04
0.04
0.04
0.02
0.02
0.02
0.02
0.04
0.12
0.16
0.71
0.36
0.63
0.82
0.69
0.57
0.38
0.06
0.04
0.02
0.01
0.01
0.02
0.01
0.02
0.02
0.01
0.01
0.00
0.01
0.00
0.02
0.01
0.00
0.01
0.02
0.01
0.01
0.04
0.06
0.12
0.14
0.23
0.29
0.25
0.23
0.20
0.18
0.09
0.06
0.02
0.01
0.00
0.02
0.01
0.01
0.00
0.02
0.00
0.00
0.00
0.00
0.00
0.00
0.00
0.00
0.00
0.02
0.00
0.00
0.00
0.00
0.00
0.00
0.02
0.01
0.01
0.01
0.01
0.01
0.02
0.02
0.02
0.02
0.01
0.01
0.02
0.01
0.00
0.02
0.00
0.12
0.12
0.45
0.20
0.08
0.01
0.09
0.09
0.07
0.06
0.04
0.09
0.06
0.09
0.29
0.00
0.64
0.55
0.61
0.77
0.64
0.57
0.47
0.06
0.09
0.06
0.04
0.01
0.02
0.02
0.01
0.01
0.02
0.02
0.01
0.02
0.01
0.04
0.04
0.02
0.04
0.07
0.11
0.20
0.23
0.29
0.40
0.42
0.44
0.42
0.46
0.38
0.32
0.25
0.23
0.11
0.09
0.04
0.04
0.01
0.01
0.02
0.01
0.01
0.02
0.01
0.00
0.02
0.01
0.02
0.00
0.02
0.00
0.02
0.00
0.01
0.01
0.00
0.01
0.00
0.00
0.00
0.01
0.01
0.01
0.00
0.00
0.01
0.00
0.00
0.00
0.12
0.04
0.26
0.22
0.52
0.38
0.22
0.02
0.01
0.04
0.04
0.02
0.06
0.06
0.07
0.09
0.12
0.02
0.76
0.35
0.61
0.61
0.62
0.58
0.25
0.18
0.06
0.07
0.07
0.02
0.04
0.02
0.02
0.01
0.02
0.02
0.01
0.01
0.02
0.02
0.01
0.01
0.02
0.02
0.06
0.06
0.11
0.09
0.14
0.20
0.18
0.14
0.18
0.09
0.07
0.04
0.02
0.01
0.00
0.00
0.02
0.02
0.04
0.00
0.08
0.02
0.03
0.00
0.02
0.02
0.00
0.02
0.02
0.00
0.00
0.00
0.00
0.02
0.00
0.00
0.00
0.00
0.02
0.01
0.02
0.01
0.00
0.01
0.00
0.01
0.01
0.01
0.00
0.04
0.12
0.12
0.16
0.50
0.45
0.30
0.20
0.01
0.04
0.04
0.04
0.04
0.04
0.04
0.06
0.20
0.04
0.56
0.71
0.61
0.69
0.62
0.57
0.50
0.02
0.01
0.01
0.02
0.00
0.02
0.02
0.00
0.02
0.00
0.03
0.00
0.02
0.03
0.03
0.03
0.02
0.03
0.00
0.00
0.00
0.00
0.01
0.01
0.02
0.04
0.06
0.06
0.07
0.06
0.04
0.04
0.01
0.02
0.00
0.02
0.03
0.02
0.08
0.04
0.08
0.04
0.08
0.04
0.04
0.04
0.04
0.08
0.03
0.08
0.03
0.04
0.02
0.04
0.02
0.04
0.00
0.02
0.02
0.00
0.03
0.00
0.02
0.00
0.02
0.00
0.02
0.00
0.03
0.00
0.02
0.02
0.02
0.03
0.00
0.04
0.22
0.04
0.22
0.33
0.52
0.26
0.12
0.00
0.07
0.04
0.02
0.01
0.01
0.02
0.01
0.02
0.04
0.33
0.74
0.56
0.62
0.83
0.62
0.58
0.32
0.02
0.01
0.02
0.00
0.00
0.00
0.03
0.00
0.02
0.02
0.02
0.03
0.03
0.02
0.03
0.02
0.00
0.02
0.00
0.00
0.01
0.01
0.02
0.04
0.07
0.09
0.11
0.11
0.14
0.12
0.07
0.07
0.02
0.01
0.01
0.02
0.02
0.00
0.02
0.00
0.03
0.02
0.02
0.04
0.04
0.08
0.04
0.04
0.03
0.08
0.03
0.08
0.02
0.03
0.03
0.03
0.02
0.03
0.02
0.00
0.02
0.00
0.02
0.02
0.02
0.02
0.03
0.00
0.00
0.00
0.02
0.01
0.00
0.00
0.08
0.00
0.16
0.22
0.36
0.12
0.00
0.04
0.14
0.07
0.04
0.04
0.07
0.06
0.06
0.09
0.07
0.02
0.84
0.46
0.64
0.62
0.67
0.58
0.14
0.11
0.06
0.06
0.04
0.02
0.02
0.01
0.01
0.01
0.01
0.02
0.01
0.01
0.01
0.02
0.04
0.02
0.06
0.06
0.11
0.14
0.25
0.32
0.35
0.36
0.36
0.38
0.36
0.29
0.23
0.20
0.07
0.06
0.01
0.01
0.02
0.00
0.01
0.01
0.01
0.00
0.01
0.00
0.00
0.02
0.00
0.02
0.01
0.00
0.01
0.00
0.00
0.00
0.01
0.01
0.01
0.02
0.00
0.02
0.02
0.02
0.01
0.02
0.01
0.02
0.02
0.01
0.01
0.02
0.01
0.02
0.01
0.01
0.01
0.01
0.00
0.08
0.02
0.08
0.12
0.46
0.12
0.04
0.01
0.07
0.06
0.07
0.04
0.09
0.07
0.09
0.09
0.20
0.01
0.71
0.00
0.59
0.62
0.62
0.57
0.42
0.11
0.09
0.07
0.04
0.04
0.01
0.02
0.02
0.01
0.02
0.01
0.02
0.02
0.01
0.01
0.02
0.01
0.04
0.04
0.07
0.09
0.11
0.12
0.18
0.23
0.12
0.14
0.18
0.20
0.09
0.11
0.06
0.06
0.01
0.04
0.01
0.02
0.02
0.00
0.00
0.00
0.00
0.00
0.02
0.00
0.02
0.01
0.01
0.02
0.01
0.02
0.02
0.01
0.02
0.02
0.01
0.01
0.01
0.01
0.02
0.01
0.02
0.01
0.02
0.01
0.01
0.01
0.01
0.02
0.01
0.01
0.01
0.00
0.02
0.08
0.16
0.16
0.45
0.22
0.12
0.00
0.06
0.07
0.04
0.04
0.04
0.06
0.04
0.04
0.11
0.02
0.22
0.85
0.58
0.78
0.64
0.64
0.58
0.04
0.04
0.01
0.01
0.00
0.02
0.02
0.03
0.02
0.08
0.03
0.08
0.04
0.12
0.08
0.16
0.20
0.12
0.08
0.16
0.04
0.03
0.03
0.00
0.01
0.02
0.04
0.04
0.07
0.06
0.07
0.06
0.04
0.01
0.02
0.00
0.00
0.03
0.02
0.04
0.04
0.08
0.03
0.04
0.04
0.04
0.03
0.04
0.04
0.02
0.04
0.03
0.04
0.02
0.03
0.02
0.03
0.00
0.02
0.03
0.02
0.03
0.02
0.00
0.01
0.02
0.01
0.00
0.01
0.00
0.01
0.00
0.02
0.01
0.00
0.00
0.00
0.02
0.12
0.03
0.30
0.16
0.56
0.26
0.22
0.00
0.06
0.02
0.02
0.02
0.01
0.01
0.01
0.01
0.11
0.26
0.70
0.68
0.61
0.79
0.62
0.57
0.46
0.02
0.02
0.02
0.01
0.02
0.02
0.02
0.01
0.01
0.01
0.00
0.00
0.00
0.02
0.00
0.00
0.00
0.00
0.00
0.01
0.01
0.01
0.02
0.09
0.09
0.12
0.11
0.18
0.12
0.12
0.11
0.04
0.02
0.02
0.02
0.02
0.03
0.08
0.02
0.08
0.04
0.04
0.03
0.08
0.03
0.04
0.08
0.04
0.04
0.03
0.12
0.03
0.08
0.03
0.03
0.02
0.00
0.00
0.03
0.02
0.01
0.03
0.00
0.00
0.00
0.02
0.00
0.00
0.00
0.00
0.00
0.00
0.00
0.01
0.01
0.01
0.00
0.00
0.20
0.00
0.26
0.08
0.52
0.22
0.16
0.02
0.07
0.06
0.06
0.04
0.04
0.04
0.07
0.07
0.29
0.03
0.33
0.78
0.58
0.64
0.60
0.57
0.52
0.06
0.07
0.07
0.06
0.06
0.01
0.04
0.01
0.02
0.02
0.02
0.01
0.04
0.02
0.04
0.04
0.04
0.06
0.06
0.09
0.07
0.18
0.20
0.25
0.29
0.35
0.32
0.29
0.32
0.20
0.18
0.12
0.09
0.02
0.01
0.02
0.01
0.02
0.01
0.01
0.01
0.02
0.01
0.01
0.01
0.01
0.02
0.01
0.01
0.01
0.01
0.02
0.02
0.02
0.02
0.01
0.02
0.01
0.02
0.02
0.01
0.01
0.01
0.02
0.01
0.01
0.01
0.01
0.01
0.01
0.02
0.01
0.02
0.03
0.04
0.08
0.38
0.33
0.26
0.20
0.02
0.04
0.09
0.04
0.11
0.09
0.11
0.07
0.32
0.02
0.00
0.84
0.58
0.67
0.61
0.61
0.58
0.18
0.12
0.11
0.04
0.07
0.04
0.04
0.01
0.02
0.02
0.01
0.01
0.01
0.01
0.01
0.01
0.02
0.01
0.01
0.01
0.02
0.02
0.02
0.04
0.07
0.06
0.07
0.06
0.09
0.06
0.09
0.06
0.04
0.04
0.01
0.02
0.02
0.02
0.00
0.02
0.02
0.02
0.00
0.00
0.02
0.00
0.03
0.03
0.03
0.02
0.03
0.00
0.02
0.02
0.02
0.03
0.02
0.02
0.02
0.02
0.00
0.00
0.00
0.00
0.00
0.00
0.00
0.00
0.00
0.02
0.00
0.01
0.02
0.04
0.20
0.16
0.30
0.55
0.38
0.38
0.20
0.01
0.02
0.04
0.01
0.01
0.04
0.02
0.04
0.09
0.16
0.36
0.84
0.63
0.89
0.64
0.61
0.51
0.02
0.04
0.01
0.01
0.01
0.02
0.00
0.01
0.00
0.00
0.00
0.00
0.00
0.02
0.03
0.04
0.02
0.04
0.03
0.03
0.00
0.02
0.02
0.01
0.04
0.06
0.07
0.11
0.11
0.11
0.09
0.09
0.04
0.02
0.01
0.01
0.00
0.00
0.01
0.01
0.00
0.00
0.00
0.00
0.00
0.00
0.00
0.02
0.00
0.00
0.00
0.00
0.01
0.00
0.00
0.01
0.02
0.01
0.02
0.02
0.01
0.02
0.01
0.02
0.00
0.02
0.00
0.01
0.03
0.00
0.00
0.00
0.02
0.12
0.20
0.12
0.22
0.46
0.41
0.36
0.16
0.02
0.04
0.04
0.01
0.01
0.02
0.01
0.01
0.06
0.03
0.03
0.87
0.58
0.76
0.61
0.64
0.56
0.04
0.04
0.02
0.01
0.01
0.02
0.02
0.01
0.01
0.01
0.00
0.00
0.01
0.00
0.02
0.01
0.02
0.02
0.01
0.02
0.04
0.06
0.09
0.20
0.23
0.29
0.25
0.35
0.25
0.29
0.23
0.18
0.09
0.04
0.04
0.01
0.02
0.00
0.01
0.00
0.01
0.02
0.01
0.02
0.01
0.01
0.01
0.02
0.02
0.01
0.02
0.01
0.01
0.02
0.01
0.02
0.01
0.02
0.01
0.02
0.01
0.02
0.02
0.01
0.01
0.01
0.01
0.01
0.01
0.01
0.02
0.00
0.04
0.00
0.12
0.33
0.41
0.36
0.20
0.02
0.02
0.04
0.01
0.04
0.04
0.06
0.04
0.11
0.07
0.01
0.79
0.35
0.60
0.59
0.62
0.58
0.25
0.14
0.11
0.09
0.07
0.04
0.09
0.04
0.04
0.04
0.04
0.04
0.04
0.07
0.04
0.09
0.09
0.12
0.11
0.14
0.14
0.23
0.23
0.29
0.32
0.36
0.32
0.35
0.32
0.25
0.18
0.12
0.09
0.04
0.04
0.01
0.01
0.02
0.02
0.02
0.01
0.01
0.00
0.02
0.01
0.01
0.00
0.02
0.01
0.01
0.01
0.01
0.02
0.01
0.01
0.02
0.01
0.01
0.01
0.01
0.04
0.01
0.04
0.01
0.04
0.02
0.04
0.04
0.02
0.01
0.00
0.03
0.12
0.38
0.26
0.16
0.00
0.06
0.04
0.06
0.06
0.06
0.07
0.07
0.09
0.18
0.02
0.71
0.00
0.62
0.70
0.64
0.57
0.35
0.09
0.04
0.04
0.01
0.02
0.01
0.01
0.01
0.01
0.01
0.00
0.00
0.02
0.00
0.02
0.00
0.04
0.02
0.04
0.00
0.03
0.01
0.01
0.01
0.01
0.04
0.06
0.06
0.06
0.06
0.04
0.01
0.01
0.02
0.00
0.02
0.00
0.02
0.00
0.02
0.02
0.00
0.02
0.02
0.00
0.03
0.02
0.00
0.02
0.00
0.00
0.01
0.02
0.00
0.02
0.00
0.00
0.00
0.00
0.00
0.02
0.00
0.00
0.00
0.00
0.00
0.01
0.02
0.00
0.16
0.04
0.26
0.36
0.48
0.38
0.12
0.00
0.04
0.04
0.02
0.02
0.02
0.01
0.04
0.07
0.02
0.04
0.86
0.57
0.77
0.72
0.73
0.58
0.11
0.07
0.04
0.02
0.01
0.01
0.01
0.01
0.00
0.01
0.00
0.00
0.00
0.00
0.00
0.00
0.00
0.00
0.01
0.00
0.01
0.01
0.04
0.06
0.11
0.12
0.14
0.20
0.14
0.14
0.12
0.11
0.04
0.04
0.01
0.01
0.02
0.02
0.02
0.02
0.02
0.02
0.02
0.03
0.03
0.02
0.03
0.03
0.02
0.04
0.02
0.00
0.29
0.02
0.01
0.02
0.54
0.64
0.62
0.03
0.74
0.88
0.94
0.95
0.96
0.95
0.89
0.67
0.41
0.30
0.01
0.02
0.01
0.04
0.20
0.01
0.01
0.06
0.35
0.38
0.46
0.42
0.47
0.50
0.51
0.52
0.54
0.55
0.55
0.55
0.55
0.52
0.50
0.46
0.36
0.25
0.12
0.06
0.04
0.04
0.01
0.02
0.02
0.02
0.01
0.01
0.01
0.02
0.02
0.01
0.02
0.00
0.01
0.00
0.02
0.00
0.00
0.02
0.01
0.01
0.00
0.00
0.00
0.01
0.00
0.01
0.00
0.00
0.00
0.00
0.00
0.00
0.01
0.02
0.00
0.01
0.00
0.00
0.02
0.01
0.01
0.00
0.00
0.02
0.01
0.01
0.01
0.01
0.01
0.01
0.02
0.02
0.02
0.02
0.01
0.02
0.01
0.02
0.02
0.02
0.01
0.02
0.02
0.01
0.00
0.02
0.08
0.41
0.30
0.36
0.16
0.01
0.04
0.04
0.06
0.04
0.07
0.06
0.07
0.35
0.01
0.33
0.73
0.58
0.62
0.61
0.58
0.52
0.06
0.11
0.06
0.04
0.02
0.01
0.01
0.01
0.01
0.01
0.02
0.01
0.01
0.02
0.01
0.02
0.01
0.01
0.01
0.02
0.02
0.01
0.01
0.04
0.02
0.02
0.02
0.04
0.04
0.09
0.09
0.14
0.06
0.06
0.04
0.04
0.02
0.02
0.01
0.00
0.00
0.02
0.03
0.03
0.02
0.04
0.04
0.12
0.03
0.00
0.23
0.47
0.58
0.50
0.45
0.92
0.98
1.00
1.00
0.99
0.99
0.95
0.96
0.99
0.98
0.96
0.88
0.26
0.09
0.23
0.49
0.51
0.57
0.57
0.58
0.60
0.60
0.62
0.64
0.70
0.76
0.80
0.87
0.89
0.92
0.93
0.93
0.93
0.93
0.93
0.93
0.90
0.85
0.70
0.61
0.58
0.50
0.42
0.23
0.20
0.09
0.09
0.07
0.07
0.06
0.04
0.04
0.04
0.04
0.04
0.02
0.02
0.04
0.02
0.04
0.01
0.02
0.01
0.02
0.01
0.01
0.02
0.01
0.02
0.02
0.02
0.01
0.02
0.01
0.01
0.01
0.02
0.01
0.01
0.01
0.01
0.01
0.01
0.01
0.02
0.01
0.01
0.01
0.02
0.02
0.01
0.04
0.01
0.02
0.01
0.04
0.02
0.01
0.02
0.00
0.00
0.04
0.08
0.48
0.16
0.26
0.00
0.04
0.07
0.07
0.07
0.07
0.11
0.12
0.11
0.35
0.01
0.76
0.01
0.61
0.72
0.72
0.58
0.40
0.14
0.14
0.09
0.07
0.04
0.02
0.02
0.01
0.01
0.01
0.01
0.00
0.00
0.00
0.00
0.02
0.00
0.00
0.01
0.01
0.01
0.01
0.01
0.04
0.02
0.07
0.04
0.07
0.12
0.25
0.18
0.20
0.23
0.20
0.12
0.07
0.07
0.04
0.04
0.01
0.02
0.01
0.01
0.01
0.02
0.02
0.01
0.01
0.00
0.01
0.02
0.01
0.00
0.01
0.00
0.02
0.00
0.02
0.01
0.01
0.01
0.02
0.00
0.00
0.08
0.12
0.41
0.33
0.20
0.00
0.06
0.04
0.07
0.04
0.07
0.06
0.09
0.11
0.35
0.01
0.30
0.74
0.60
0.70
0.61
0.57
0.52
0.14
0.14
0.14
0.11
0.09
0.09
0.06
0.06
0.04
0.06
0.04
0.09
0.06
0.09
0.09
0.12
0.12
0.18
0.20
0.23
0.29
0.35
0.42
0.38
0.46
0.40
0.40
0.36
0.36
0.32
0.23
0.23
0.11
0.11
0.04
0.04
0.04
0.02
0.02
0.04
0.02
0.04
0.04
0.02
0.02
0.01
0.02
0.01
0.01
0.02
0.01
0.01
0.01
0.02
0.01
0.01
0.02
0.01
0.01
0.01
0.02
0.02
0.01
0.08
0.30
0.36
0.41
0.20
0.00
0.01
0.04
0.04
0.04
0.07
0.07
0.04
0.18
0.01
0.00
0.79
0.55
0.70
0.62
0.61
0.58
0.14
0.18
0.14
0.11
0.09
0.07
0.09
0.07
0.07
0.06
0.09
0.04
0.07
0.06
0.06
0.04
0.06
0.06
0.06
0.07
0.09
0.09
0.07
0.11
0.11
0.09
0.09
0.09
0.07
0.07
0.06
0.07
0.04
0.04
0.02
0.02
0.01
0.02
0.01
0.01
0.01
0.02
0.01
0.00
0.01
0.02
0.01
0.02
0.01
0.02
0.01
0.01
0.01
0.01
0.02
0.02
0.01
0.02
0.01
0.01
0.01
0.00
0.08
0.12
0.08
0.22
0.50
0.36
0.33
0.08
0.04
0.02
0.06
0.02
0.04
0.06
0.07
0.07
0.20
0.02
0.38
0.81
0.64
0.87
0.69
0.61
0.52
0.06
0.02
0.04
0.02
0.01
0.00
0.01
0.02
0.02
0.00
0.02
0.00
0.08
0.04
0.08
0.08
0.12
0.08
0.16
0.12
0.04
0.03
0.00
0.00
0.01
0.01
0.02
0.04
0.07
0.04
0.06
0.01
0.01
0.00
0.01
0.00
0.02
0.02
0.03
0.00
0.04
0.03
0.04
0.03
0.04
0.04
0.08
0.04
0.04
0.12
0.04
0.08
0.08
0.12
0.04
0.12
0.08
0.08
0.12
0.12
0.04
0.08
0.04
0.04
0.16
0.30
0.20
0.33
0.33
0.59
0.38
0.22
0.02
0.04
0.01
0.02
0.01
0.01
0.04
0.01
0.01
0.07
0.20
0.45
0.86
0.61
0.87
0.61
0.61
0.53
0.04
0.04
0.01
0.01
0.01
0.01
0.00
0.01
0.00
0.00
0.00
0.00
0.00
0.00
0.01
0.00
0.02
0.00
0.01
0.01
0.02
0.04
0.11
0.11
0.20
0.23
0.20
0.20
0.20
0.18
0.07
0.09
0.02
0.01
0.01
0.02
0.02
0.02
0.02
0.02
0.00
0.03
0.00
0.02
0.00
0.04
0.02
0.03
0.00
0.04
0.02
0.02
0.02
0.02
0.03
0.02
0.03
0.02
0.02
0.02
0.02
0.00
0.02
0.02
0.02
0.00
0.04
0.16
0.04
0.22
0.26
0.45
0.20
0.08
0.04
0.02
0.06
0.02
0.04
0.02
0.04
0.02
0.04
0.07
0.12
0.71
0.22
0.61
0.62
0.62
0.58
0.42
0.04
0.04
0.04
0.02
0.02
0.01
0.01
0.01
0.01
0.02
0.01
0.02
0.01
0.02
0.01
0.02
0.01
0.04
0.06
0.09
0.12
0.23
0.20
0.32
0.29
0.35
0.29
0.32
0.23
0.12
0.09
0.04
0.04
0.01
0.02
0.00
0.02
0.00
0.02
0.01
0.01
0.00
0.02
0.01
0.02
0.01
0.02
0.02
0.02
0.02
0.01
0.02
0.02
0.01
0.02
0.01
0.02
0.01
0.01
0.01
0.02
0.02
0.01
0.01
0.01
0.02
0.01
0.00
0.04
0.02
0.16
0.16
0.45
0.30
0.20
0.04
0.04
0.04
0.02
0.01
0.01
0.04
0.02
0.04
0.14
0.08
0.50
0.81
0.60
0.69
0.62
0.57
0.54
0.01
0.07
0.02
0.01
0.02
0.01
0.00
0.00
0.02
0.00
0.02
0.00
0.00
0.00
0.00
0.00
0.02
0.00
0.01
0.02
0.01
0.01
0.04
0.06
0.07
0.07
0.09
0.09
0.06
0.06
0.04
0.04
0.01
0.01
0.00
0.01
0.00
0.00
0.00
0.00
0.00
0.02
0.02
0.02
0.00
0.03
0.02
0.04
0.00
0.03
0.02
0.00
0.00
0.02
0.00
0.00
0.00
0.00
0.01
0.01
0.00
0.02
0.01
0.01
0.02
0.01
0.02
0.01
0.12
0.03
0.16
0.12
0.46
0.20
0.08
0.00
0.09
0.04
0.06
0.02
0.04
0.04
0.04
0.06
0.12
0.20
0.48
0.84
0.62
0.87
0.64
0.61
0.52
0.09
0.04
0.07
0.01
0.01
0.01
0.01
0.02
0.01
0.02
0.01
0.00
0.02
0.00
0.03
0.02
0.02
0.02
0.03
0.00
0.00
0.00
0.01
0.02
0.04
0.04
0.09
0.09
0.12
0.07
0.06
0.04
0.01
0.01
0.01
0.00
0.02
0.00
0.00
0.00
0.00
0.00
0.02
0.00
0.03
0.00
0.02
0.00
0.00
0.00
0.00
0.00
0.00
0.02
0.00
0.02
0.00
0.00
0.00
0.00
0.00
0.00
0.02
0.00
0.00
0.00
0.00
0.00
0.00
0.00
0.02
0.08
0.12
0.16
0.20
0.46
0.26
0.08
0.00
0.06
0.06
0.04
0.02
0.01
0.04
0.02
0.02
0.04
0.08
0.26
0.87
0.58
0.79
0.61
0.62
0.55
0.07
0.07
0.04
0.04
0.04
0.01
0.01
0.01
0.01
0.01
0.01
0.01
0.01
0.01
0.01
0.02
0.01
0.01
0.02
0.04
0.07
0.07
0.11
0.18
0.20
0.29
0.32
0.29
0.25
0.25
0.12
0.14
0.07
0.04
0.01
0.01
0.00
0.01
0.00
0.00
0.01
0.00
0.01
0.00
0.01
0.02
0.01
0.00
0.00
0.02
0.01
0.01
0.00
0.01
0.00
0.00
0.00
0.01
0.01
0.00
0.00
0.01
0.00
0.01
0.01
0.01
0.01
0.01
0.01
0.01
0.01
0.01
0.02
0.01
0.00
0.02
0.03
0.00
0.33
0.03
0.02
0.04
0.25
0.18
0.18
0.14
0.14
0.18
0.14
0.23
0.38
0.02
0.52
0.46
0.61
0.64
0.63
0.57
0.46
0.20
0.14
0.14
0.09
0.09
0.07
0.06
0.04
0.04
0.04
0.02
0.04
0.04
0.07
0.06
0.04
0.09
0.18
0.12
0.20
0.23
0.32
0.35
0.35
0.42
0.36
0.38
0.32
0.25
0.18
0.12
0.06
0.04
0.02
0.01
0.02
0.01
0.00
0.01
0.02
0.00
0.01
0.00
0.01
0.01
0.01
0.00
0.01
0.00
0.00
0.01
0.01
0.01
0.02
0.01
0.01
0.01
0.01
0.01
0.01
0.01
0.01
0.01
0.01
0.02
0.01
0.01
0.02
0.02
0.01
0.02
0.02
0.01
0.02
0.02
0.02
0.04
0.26
0.30
0.16
0.02
0.04
0.09
0.09
0.06
0.04
0.11
0.09
0.07
0.14
0.02
0.16
0.81
0.55
0.65
0.62
0.61
0.58
0.12
0.09
0.02
0.02
0.02
0.01
0.02
0.02
0.00
0.01
0.00
0.00
0.00
0.01
0.00
0.00
0.00
0.00
0.02
0.01
0.02
0.01
0.04
0.04
0.07
0.06
0.06
0.07
0.07
0.06
0.06
0.04
0.02
0.04
0.01
0.01
0.00
0.01
0.02
0.00
0.03
0.02
0.02
0.04
0.03
0.04
0.04
0.04
0.03
0.03
0.02
0.03
0.02
0.03
0.02
0.03
0.00
0.03
0.00
0.02
0.00
0.02
0.03
0.00
0.02
0.02
0.03
0.00
0.04
0.00
0.03
0.00
0.03
0.02
0.00
0.02
0.02
0.02
0.02
0.22
0.08
0.33
0.20
0.59
0.20
0.20
0.02
0.02
0.02
0.01
0.02
0.01
0.02
0.01
0.01
0.04
0.36
0.79
0.02
0.67
0.81
0.70
0.58
0.25
0.01
0.02
0.01
0.00
0.00
0.02
0.00
0.04
0.03
0.03
0.04
0.08
0.08
0.16
0.12
0.20
0.16
0.20
0.20
0.12
0.04
0.02
0.02
0.02
0.01
0.02
0.02
0.07
0.04
0.04
0.01
0.01
0.00
0.03
0.04
0.04
0.08
0.16
0.12
0.12
0.08
0.12
0.08
0.16
0.12
0.20
0.16
0.20
0.20
0.20
0.20
0.20
0.16
0.16
0.20
0.12
0.16
0.08
0.16
0.04
0.12
0.04
0.12
0.04
0.08
0.04
0.04
0.02
0.03
0.03
0.00
0.00
0.02
0.02
0.02
0.03
0.03
0.04
0.02
0.04
0.16
0.16
0.26
0.26
0.55
0.26
0.22
0.03
0.04
0.02
0.01
0.01
0.02
0.01
0.02
0.01
0.07
0.20
0.66
0.71
0.60
0.76
0.62
0.57
0.40
0.02
0.04
0.01
0.02
0.00
0.01
0.02
0.00
0.02
0.02
0.03
0.03
0.02
0.02
0.03
0.04
0.00
0.02
0.00
0.01
0.01
0.01
0.06
0.09
0.14
0.14
0.20
0.20
0.20
0.14
0.11
0.06
0.02
0.01
0.02
0.02
0.00
0.00
0.00
0.00
0.02
0.00
0.00
0.02
0.02
0.00
0.00
0.00
0.00
0.00
0.01
0.01
0.02
0.02
0.01
0.00
0.01
0.00
0.00
0.00
0.01
0.01
0.00
0.01
0.01
0.01
0.02
0.02
0.01
0.01
0.02
0.02
0.01
0.01
0.02
0.01
0.02
0.00
0.01
0.01
0.00
0.00
0.08
0.08
0.12
0.08
0.48
0.30
0.16
0.04
0.04
0.02
0.04
0.02
0.02
0.04
0.04
0.07
0.20
0.01
0.52
0.79
0.58
0.62
0.60
0.58
0.52
0.02
0.04
0.04
0.02
0.01
0.01
0.02
0.01
0.01
0.01
0.01
0.02
0.01
0.01
0.01
0.01
0.01
0.02
0.06
0.06
0.06
0.09
0.12
0.12
0.20
0.18
0.20
0.14
0.20
0.14
0.09
0.09
0.06
0.04
0.01
0.01
0.01
0.00
0.02
0.02
0.00
0.01
0.00
0.01
0.01
0.01
0.00
0.01
0.01
0.00
0.02
0.01
0.00
0.01
0.01
0.00
0.01
0.02
0.01
0.01
0.00
0.02
0.00
0.01
0.00
0.01
0.00
0.01
0.00
0.02
0.00
0.02
0.00
0.01
0.01
0.02
0.02
0.02
0.00
0.08
0.02
0.20
0.20
0.38
0.04
0.04
0.04
0.07
0.06
0.04
0.07
0.07
0.04
0.04
0.09
0.01
0.12
0.81
0.54
0.70
0.65
0.64
0.58
0.14
0.04
0.04
0.01
0.02
0.02
0.00
0.00
0.02
0.00
0.02
0.00
0.02
0.02
0.08
0.08
0.08
0.12
0.12
0.08
0.08
0.12
0.03
0.02
0.01
0.02
0.02
0.04
0.07
0.06
0.06
0.04
0.04
0.01
0.01
0.00
0.02
0.00
0.02
0.00
0.03
0.00
0.03
0.02
0.03
0.02
0.04
0.02
0.03
0.02
0.02
0.00
0.00
0.00
0.00
0.01
0.01
0.00
0.01
0.02
0.02
0.00
0.01
0.01
0.01
0.02
0.02
0.02
0.01
0.01
0.02
0.01
0.02
0.02
0.01
0.02
0.00
0.01
0.00
0.00
0.08
0.03
0.16
0.16
0.45
0.22
0.08
0.03
0.09
0.04
0.04
0.02
0.02
0.02
0.04
0.04
0.14
0.16
0.41
0.81
0.61
0.82
0.61
0.60
0.50
0.04
0.06
0.04
0.01
0.01
0.02
0.02
0.00
0.01
0.00
0.00
0.00
0.00
0.00
0.00
0.01
0.00
0.02
0.00
0.01
0.01
0.04
0.07
0.12
0.14
0.20
0.25
0.29
0.29
0.23
0.23
0.12
0.09
0.04
0.04
0.01
0.02
0.00
0.00
0.01
0.00
0.01
0.00
0.00
0.00
0.00
0.00
0.00
0.02
0.00
0.03
0.00
0.00
0.00
0.00
0.00
0.00
0.00
0.01
0.00
0.02
0.00
0.02
0.01
0.02
0.01
0.01
0.02
0.02
0.01
0.02
0.01
0.02
0.01
0.01
0.02
0.08
0.00
0.12
0.04
0.45
0.20
0.08
0.02
0.09
0.06
0.04
0.02
0.04
0.04
0.04
0.04
0.25
0.12
0.22
0.85
0.57
0.70
0.58
0.58
0.52
0.04
0.06
0.07
0.02
0.02
0.02
0.04
0.01
0.02
0.01
0.01
0.01
0.01
0.04
0.01
0.04
0.06
0.09
0.11
0.14
0.20
0.23
0.35
0.36
0.44
0.38
0.40
0.36
0.36
0.29
0.25
0.18
0.07
0.04
0.01
0.01
0.00
0.00
0.00
0.01
0.00
0.00
0.00
0.00
0.02
0.00
0.00
0.00
0.00
0.01
0.00
0.00
0.00
0.00
0.00
0.00
0.02
0.00
0.01
0.00
0.02
0.01
0.02
0.02
0.01
0.01
0.02
0.01
0.01
0.01
0.01
0.01
0.02
0.00
0.00
0.02
0.04
0.46
0.30
0.26
0.12
0.01
0.06
0.11
0.06
0.06
0.14
0.11
0.11
0.32
0.01
0.03
0.84
0.57
0.64
0.61
0.60
0.58
0.14
0.25
0.12
0.09
0.07
0.09
0.09
0.04
0.04
0.01
0.04
0.02
0.04
0.02
0.04
0.02
0.04
0.02
0.07
0.04
0.07
0.09
0.09
0.12
0.18
0.18
0.18
0.18
0.18
0.14
0.11
0.11
0.04
0.04
0.01
0.01
0.02
0.01
0.01
0.00
0.01
0.00
0.01
0.00
0.02
0.00
0.02
0.00
0.01
0.00
0.01
0.01
0.01
0.02
0.00
0.01
0.01
0.01
0.00
0.01
0.00
0.00
0.02
0.01
0.00
0.00
0.00
0.00
0.02
0.00
0.00
0.02
0.00
0.08
0.20
0.20
0.33
0.55
0.46
0.45
0.26
0.00
0.01
0.01
0.01
0.01
0.01
0.01
0.01
0.06
0.04
0.22
0.86
0.58
0.79
0.64
0.63
0.56
0.04
0.01
0.01
0.00
0.01
0.02
0.00
0.03
0.04
0.04
0.04
0.12
0.12
0.08
0.20
0.16
0.20
0.20
0.26
0.16
0.16
0.08
0.12
0.00
0.00
0.02
0.01
0.01
0.04
0.04
0.04
0.04
0.02
0.02
0.02
0.02
0.02
0.08
0.02
0.04
0.04
0.08
0.04
0.08
0.08
0.04
0.04
0.04
0.08
0.02
0.04
0.04
0.03
0.00
0.02
0.00
0.00
0.00
0.00
0.01
0.02
0.01
0.01
0.00
0.01
0.00
0.02
0.02
0.01
0.02
0.01
0.01
0.02
0.01
0.01
0.01
0.04
0.01
0.04
0.00
0.41
0.08
0.02
0.01
0.18
0.14
0.20
0.11
0.12
0.14
0.14
0.12
0.38
0.00
0.33
0.71
0.62
0.85
0.63
0.60
0.52
0.07
0.06
0.06
0.02
0.01
0.01
0.02
0.00
0.00
0.00
0.00
0.00
0.03
0.02
0.04
0.02
0.04
0.00
0.02
0.00
0.00
0.01
0.01
0.04
0.09
0.11
0.11
0.14
0.20
0.14
0.14
0.09
0.06
0.01
0.02
0.01
0.00
0.02
0.00
0.02
0.02
0.02
0.04
0.02
0.08
0.03
0.08
0.04
0.04
0.03
0.02
0.04
0.03
0.04
0.02
0.04
0.02
0.03
0.00
0.02
0.00
0.00
0.00
0.00
0.00
0.00
0.02
0.00
0.00
0.01
0.00
0.00
0.00
0.00
0.02
0.04
0.00
0.22
0.30
0.38
0.22
0.16
0.02
0.04
0.06
0.02
0.04
0.04
0.06
0.06
0.09
0.11
0.01
0.80
0.25
0.61
0.60
0.62
0.58
0.20
0.09
0.12
0.09
0.04
0.04
0.04
0.01
0.01
0.01
0.01
0.02
0.01
0.01
0.01
0.02
0.04
0.04
0.04
0.09
0.12
0.14
0.20
0.23
0.36
0.35
0.32
0.25
0.29
0.20
0.20
0.12
0.06
0.02
0.01
0.01
0.00
0.01
0.00
0.00
0.02
0.00
0.00
0.00
0.00
0.00
0.01
0.00
0.01
0.02
0.01
0.02
0.01
0.01
0.02
0.00
0.01
0.01
0.02
0.00
0.00
0.02
0.00
0.02
0.01
0.00
0.00
0.02
0.00
0.01
0.04
0.03
0.08
0.08
0.45
0.33
0.22
0.12
0.04
0.04
0.07
0.04
0.09
0.07
0.09
0.09
0.25
0.00
0.63
0.38
0.61
0.62
0.62
0.57
0.50
0.06
0.04
0.06
0.01
0.01
0.02
0.02
0.00
0.00
0.00
0.00
0.00
0.00
0.00
0.00
0.00
0.00
0.02
0.00
0.01
0.02
0.02
0.01
0.04
0.04
0.06
0.07
0.11
0.11
0.07
0.06
0.06
0.02
0.01
0.01
0.01
0.01
0.01
0.00
0.00
0.00
0.00
0.00
0.00
0.02
0.00
0.02
0.00
0.02
0.00
0.02
0.00
0.00
0.00
0.01
0.00
0.01
0.01
0.01
0.02
0.01
0.00
0.01
0.01
0.01
0.02
0.01
0.01
0.01
0.01
0.02
0.02
0.01
0.08
0.22
0.30
0.22
0.03
0.02
0.09
0.06
0.04
0.06
0.07
0.07
0.07
0.11
0.04
0.03
0.86
0.57
0.78
0.78
0.75
0.58
0.23
0.07
0.07
0.04
0.04
0.04
0.02
0.01
0.02
0.02
0.01
0.01
0.01
0.00
0.01
0.00
0.01
0.00
0.00
0.00
0.00
0.01
0.02
0.04
0.04
0.09
0.09
0.18
0.14
0.20
0.18
0.14
0.11
0.06
0.04
0.01
0.01
0.02
0.01
0.01
0.01
0.02
0.01
0.01
0.02
0.02
0.01
0.02
0.02
0.01
0.01
0.01
0.02
0.01
0.02
0.01
0.01
0.01
0.01
0.01
0.04
0.01
0.02
0.01
0.02
0.01
0.02
0.01
0.02
0.01
0.01
0.01
0.01
0.02
0.00
0.03
0.00
0.04
0.26
0.38
0.12
0.02
0.04
0.09
0.07
0.04
0.04
0.04
0.04
0.04
0.07
0.04
0.02
0.84
0.52
0.67
0.67
0.67
0.58
0.11
0.02
0.02
0.01
0.02
0.00
0.00
0.02
0.00
0.04
0.02
0.04
0.02
0.04
0.03
0.02
0.03
0.00
0.00
0.01
0.01
0.01
0.02
0.11
0.09
0.14
0.14
0.20
0.18
0.20
0.18
0.07
0.06
0.02
0.01
0.00
0.01
0.02
0.00
0.02
0.00
0.02
0.00
0.00
0.00
0.00
0.02
0.00
0.00
0.00
0.02
0.01
0.00
0.00
0.00
0.01
0.00
0.02
0.00
0.02
0.00
0.02
0.01
0.01
0.01
0.02
0.01
0.02
0.02
0.01
0.01
0.01
0.00
0.04
0.00
0.20
0.26
0.45
0.20
0.12
0.02
0.09
0.06
0.04
0.04
0.04
0.04
0.06
0.11
0.04
0.00
0.84
0.52
0.62
0.58
0.61
0.56
0.06
0.11
0.06
0.06
0.04
0.04
0.01
0.01
0.01
0.02
0.01
0.02
0.01
0.02
0.02
0.04
0.06
0.04
0.09
0.11
0.18
0.14
0.29
0.32
0.38
0.32
0.36
0.32
0.32
0.20
0.20
0.14
0.09
0.02
0.04
0.01
0.02
0.02
0.01
0.01
0.02
0.01
0.01
0.02
0.01
0.01
0.02
0.01
0.02
0.01
0.01
0.01
0.01
0.00
0.02
0.02
0.02
0.00
0.02
0.00
0.01
0.02
0.02
0.02
0.00
0.00
0.02
0.01
0.02
0.03
0.04
0.12
0.04
0.46
0.38
0.20
0.08
0.04
0.04
0.06
0.04
0.04
0.07
0.06
0.09
0.32
0.00
0.45
0.72
0.61
0.65
0.62
0.57
0.51
0.04
0.06
0.02
0.02
0.01
0.01
0.01
0.01
0.00
0.01
0.00
0.00
0.00
0.00
0.00
0.00
0.00
0.00
0.01
0.01
0.01
0.02
0.04
0.02
0.04
0.04
0.04
0.07
0.07
0.04
0.04
0.01
0.02
0.02
0.00
0.00
0.03
0.00
0.03
0.02
0.03
0.00
0.03
0.00
0.04
0.02
0.04
0.02
0.02
0.03
0.04
0.03
0.00
0.04
0.00
0.02
0.00
0.03
0.00
0.03
0.02
0.00
0.02
0.00
0.02
0.00
0.03
0.20
0.12
0.30
0.45
0.48
0.46
0.20
0.00
0.01
0.01
0.02
0.01
0.01
0.02
0.01
0.07
0.02
0.16
0.86
0.58
0.76
0.69
0.65
0.57
0.07
0.04
0.02
0.01
0.01
0.01
0.02
0.01
0.01
0.00
0.01
0.02
0.01
0.02
0.02
0.02
0.02
0.02
0.02
0.00
0.00
0.01
0.01
0.04
0.04
0.07
0.09
0.11
0.11
0.12
0.09
0.06
0.02
0.02
0.02
0.00
0.02
0.03
0.00
0.04
0.02
0.02
0.03
0.08
0.03
0.04
0.04
0.04
0.03
0.03
0.08
0.03
0.08
0.04
0.04
0.00
0.03
0.00
0.04
0.00
0.02
0.00
0.00
0.00
0.00
0.00
0.00
0.02
0.02
0.12
0.03
0.26
0.22
0.52
0.30
0.16
0.02
0.07
0.04
0.02
0.02
0.04
0.02
0.04
0.04
0.18
0.08
0.70
0.30
0.62
0.72
0.64
0.58
0.35
0.07
0.06
0.04
0.02
0.01
0.01
0.01
0.02
0.01
0.02
0.01
0.02
0.01
0.01
0.01
0.01
0.02
0.02
0.06
0.07
0.11
0.14
0.25
0.29
0.29
0.35
0.36
0.35
0.32
0.25
0.14
0.09
0.04
0.04
0.01
0.01
0.02
0.02
0.02
0.02
0.02
0.02
0.02
0.01
0.02
0.00
0.02
0.02
0.02
0.02
0.01
0.01
0.02
0.01
0.01
0.01
0.01
0.01
0.02
0.01
0.01
0.01
0.01
0.02
0.01
0.04
0.02
0.02
0.02
0.01
0.03
0.22
0.26
0.20
0.00
0.04
0.11
0.11
0.04
0.06
0.12
0.06
0.09
0.18
0.02
0.01
0.84
0.54
0.61
0.58
0.61
0.58
0.14
0.25
0.12
0.14
0.11
0.09
0.06
0.07
0.06
0.06
0.07
0.06
0.07
0.06
0.07
0.09
0.12
0.12
0.14
0.18
0.25
0.32
0.35
0.42
0.44
0.46
0.42
0.44
0.40
0.36
0.23
0.23
0.11
0.09
0.04
0.04
0.01
0.01
0.01
0.01
0.01
0.01
0.01
0.02
0.01
0.02
0.01
0.01
0.01
0.01
0.01
0.01
0.01
0.02
0.01
0.01
0.02
0.01
0.01
0.04
0.04
0.04
0.04
0.09
0.04
0.07
0.04
0.02
0.01
0.02
0.00
0.33
0.22
0.12
0.03
0.04
0.07
0.11
0.07
0.07
0.09
0.11
0.11
0.32
0.02
0.30
0.81
0.58
0.62
0.61
0.58
0.58
0.14
0.18
0.07
0.07
0.04
0.04
0.04
0.04
0.04
0.02
0.02
0.01
0.02
0.01
0.01
0.01
0.01
0.01
0.02
0.02
0.04
0.06
0.04
0.11
0.09
0.14
0.12
0.18
0.12
0.09
0.07
0.06
0.04
0.02
0.02
0.02
0.02
0.01
0.02
0.00
0.01
0.02
0.02
0.01
0.01
0.02
0.02
0.01
0.02
0.02
0.01
0.02
0.01
0.01
0.00
0.02
0.01
0.00
0.00
0.00
0.00
0.00
0.00
0.00
0.00
0.03
0.04
0.22
0.16
0.30
0.55
0.46
0.38
0.22
0.01
0.01
0.02
0.02
0.02
0.04
0.02
0.04
0.04
0.04
0.36
0.86
0.60
0.81
0.69
0.62
0.56
0.07
0.06
0.04
0.01
0.00
0.00
0.03
0.03
0.04
0.08
0.12
0.16
0.16
0.22
0.22
0.30
0.20
0.26
0.20
0.20
0.12
0.12
0.02
0.00
0.01
0.01
0.02
0.02
0.02
0.02
0.02
0.01
0.04
0.03
0.12
0.16
0.20
0.20
0.22
0.20
0.20
0.16
0.16
0.20
0.20
0.22
0.16
0.22
0.12
0.22
0.16
0.22
0.16
0.22
0.16
0.16
0.20
0.16
0.12
0.08
0.16
0.12
0.12
0.16
0.12
0.12
0.16
0.22
0.38
0.26
0.45
0.55
0.56
0.41
0.33
0.03
0.01
0.00
0.03
0.03
0.00
0.02
0.01
0.00
0.02
0.38
0.87
0.55
0.72
0.62
0.65
0.57
0.04
0.01
0.01
0.02
0.00
0.00
0.03
0.02
0.08
0.02
0.04
0.04
0.12
0.03
0.04
0.08
0.02
0.03
0.00
0.02
0.01
0.01
0.04
0.07
0.14
0.14
0.18
0.20
0.20
0.12
0.07
0.04
0.02
0.02
0.00
0.00
0.08
0.03
0.08
0.04
0.12
0.04
0.12
0.08
0.12
0.16
0.08
0.16
0.16
0.16
0.08
0.20
0.12
0.16
0.08
0.16
0.04
0.12
0.08
0.04
0.04
0.04
0.03
0.02
0.04
0.02
0.03
0.00
0.02
0.02
0.04
0.03
0.12
0.20
0.12
0.26
0.46
0.38
0.20
0.12
0.04
0.04
0.04
0.02
0.01
0.01
0.01
0.04
0.01
0.01
0.22
0.85
0.38
0.61
0.61
0.63
0.56
0.12
0.06
0.04
0.04
0.04
0.01
0.01
0.01
0.01
0.01
0.01
0.04
0.01
0.02
0.01
0.04
0.02
0.04
0.09
0.11
0.14
0.18
0.29
0.35
0.36
0.38
0.40
0.36
0.36
0.23
0.20
0.11
0.09
0.04
0.01
0.01
0.01
0.01
0.02
0.01
0.02
0.01
0.02
0.01
0.01
0.02
0.01
0.00
0.01
0.00
0.02
0.01
0.00
0.00
0.01
0.01
0.02
0.01
0.01
0.01
0.01
0.01
0.01
0.02
0.01
0.02
0.01
0.01
0.01
0.01
0.01
0.04
0.02
0.04
0.00
0.41
0.12
0.03
0.00
0.06
0.11
0.11
0.04
0.09
0.14
0.11
0.07
0.23
0.00
0.33
0.84
0.58
0.65
0.62
0.61
0.58
0.12
0.14
0.09
0.06
0.04
0.01
0.02
0.01
0.02
0.01
0.02
0.01
0.00
0.00
0.00
0.01
0.00
0.02
0.02
0.01
0.01
0.06
0.04
0.06
0.07
0.12
0.09
0.11
0.09
0.07
0.06
0.02
0.04
0.01
0.00
0.00
0.00
0.03
0.02
0.02
0.02
0.03
0.00
0.02
0.02
0.02
0.03
0.02
0.03
0.02
0.03
0.00
0.02
0.00
0.00
0.00
0.03
0.00
0.00
0.00
0.00
0.00
0.02
0.02
0.00
0.00
0.00
0.00
0.01
0.02
0.01
0.00
0.00
0.04
0.20
0.04
0.26
0.33
0.46
0.12
0.08
0.01
0.04
0.06
0.01
0.04
0.02
0.04
0.01
0.06
0.04
0.22
0.81
0.23
0.72
0.80
0.73
0.58
0.23
0.04
0.07
0.02
0.01
0.01
0.01
0.01
0.02
0.01
0.01
0.00
0.02
0.00
0.02
0.02
0.04
0.00
0.03
0.00
0.00
0.02
0.02
0.02
0.07
0.12
0.14
0.14
0.23
0.18
0.14
0.09
0.09
0.02
0.02
0.02
0.01
0.00
0.01
0.02
0.00
0.01
0.01
0.02
0.22
0.64
0.69
0.52
0.87
0.93
0.92
0.80
0.25
0.89
0.96
0.90
0.82
0.11
0.56
0.50
0.46
0.04
0.03
0.04
0.08
0.16
0.22
0.26
0.33
0.33
0.38
0.36
0.41
0.38
0.45
0.46
0.48
0.48
0.63
0.67
0.71
0.71
0.76
0.73
0.81
0.73
0.71
0.67
0.36
0.16
0.02
0.03
0.00
0.02
0.01
0.01
0.01
0.01
0.01
0.46
0.01
0.50
0.78
0.60
0.62
0.58
0.56
0.38
0.06
0.09
0.11
0.09
0.11
0.07
0.09
0.07
0.09
0.04
0.09
0.09
0.09
0.09
0.14
0.18
0.20
0.29
0.35
0.42
0.47
0.48
0.48
0.50
0.50
0.48
0.47
0.36
0.23
0.14
0.11
0.04
0.04
0.02
0.01
0.02
0.01
0.02
0.02
0.02
0.01
0.02
0.00
0.02
0.00
0.00
0.00
0.00
0.00
0.00
0.03
0.01
0.03
0.02
0.02
0.03
0.00
0.02
0.02
0.03
0.02
0.02
0.00
0.00
0.00
0.02
0.00
0.03
0.00
0.00
0.02
0.12
0.08
0.16
0.20
0.46
0.36
0.16
0.03
0.04
0.02
0.02
0.02
0.01
0.04
0.02
0.01
0.04
0.01
0.08
0.84
0.36
0.59
0.60
0.62
0.58
0.18
0.09
0.06
0.07
0.02
0.04
0.01
0.02
0.01
0.02
0.01
0.02
0.02
0.02
0.01
0.01
0.02
0.01
0.04
0.04
0.07
0.09
0.12
0.18
0.18
0.25
0.20
0.20
0.23
0.20
0.18
0.11
0.07
0.06
0.01
0.02
0.01
0.02
0.02
0.02
0.02
0.01
0.00
0.00
0.00
0.02
0.01
0.03
0.00
0.00
0.02
0.00
0.02
0.32
0.51
0.57
0.56
0.14
0.87
0.96
0.99
1.00
0.99
0.99
0.95
0.95
0.98
0.98
0.97
0.91
0.60
0.20
0.49
0.52
0.56
0.58
0.58
0.57
0.60
0.59
0.61
0.62
0.62
0.71
0.72
0.83
0.87
0.91
0.93
0.93
0.93
0.93
0.93
0.93
0.91
0.87
0.76
0.63
0.58
0.56
0.51
0.46
0.40
0.35
0.36
0.35
0.35
0.32
0.36
0.32
0.35
0.29
0.35
0.25
0.29
0.32
0.23
0.25
0.25
0.25
0.20
0.23
0.20
0.23
0.14
0.14
0.12
0.14
0.09
0.12
0.07
0.06
0.04
0.04
0.04
0.01
0.02
0.01
0.01
0.02
0.01
0.01
0.01
0.00
0.02
0.01
0.01
0.00
0.01
0.00
0.01
0.01
0.00
0.01
0.00
0.01
0.00
0.01
0.00
0.01
0.02
0.00
0.02
0.03
0.02
0.02
0.03
0.08
0.04
0.04
0.04
0.04
0.02
0.08
0.03
0.08
0.04
0.04
0.04
0.26
0.22
0.33
0.33
0.52
0.38
0.22
0.08
0.02
0.01
0.02
0.01
0.01
0.01
0.01
0.01
0.04
0.22
0.63
0.85
0.58
0.82
0.62
0.60
0.48
0.04
0.01
0.01
0.00
0.00
0.00
0.02
0.03
0.04
0.08
0.12
0.12
0.20
0.16
0.22
0.16
0.20
0.12
0.12
0.04
0.04
0.08
0.02
0.02
0.02
0.00
0.00
0.01
0.01
0.01
0.06
0.06
0.06
0.04
0.02
0.02
0.01
0.00
0.02
0.04
0.08
0.04
0.12
0.08
0.12
0.04
0.20
0.12
0.16
0.12
0.16
0.03
0.18
0.50
0.58
0.58
0.07
0.88
0.97
1.00
1.00
0.99
0.99
0.96
0.95
0.99
0.99
0.97
0.93
0.48
0.23
0.50
0.53
0.56
0.56
0.58
0.57
0.58
0.58
0.59
0.62
0.67
0.76
0.82
0.87
0.89
0.92
0.93
0.93
0.93
0.93
0.93
0.93
0.92
0.87
0.76
0.63
0.57
0.56
0.49
0.38
0.25
0.11
0.11
0.06
0.06
0.04
0.04
0.04
0.04
0.04
0.02
0.01
0.01
0.02
0.02
0.02
0.02
0.01
0.00
0.01
0.00
0.00
0.00
0.00
0.00
0.00
0.00
0.00
0.01
0.00
0.01
0.01
0.00
0.00
0.02
0.00
0.01
0.00
0.02
0.01
0.02
0.01
0.02
0.02
0.01
0.01
0.01
0.01
0.01
0.02
0.02
0.04
0.01
0.02
0.02
0.02
0.04
0.04
0.02
0.04
0.04
0.02
0.04
0.04
0.04
0.02
0.04
0.04
0.04
0.01
0.01
0.02
0.03
0.00
0.41
0.02
0.00
0.04
0.18
0.12
0.12
0.18
0.12
0.18
0.11
0.25
0.25
0.02
0.84
0.18
0.61
0.62
0.65
0.58
0.32
0.25
0.23
0.20
0.14
0.11
0.12
0.09
0.11
0.06
0.06
0.06
0.07
0.04
0.07
0.09
0.12
0.11
0.18
0.20
0.18
0.23
0.25
0.29
0.20
0.23
0.20
0.20
0.20
0.29
0.29
0.35
0.25
0.23
0.18
0.12
0.11
0.06
0.06
0.04
0.04
0.04
0.04
0.01
0.04
0.01
0.01
0.01
0.02
0.01
0.01
0.01
0.01
0.01
0.01
0.04
0.02
0.02
0.01
0.02
0.01
0.01
0.01
0.01
0.01
0.02
0.04
0.01
0.02
0.01
0.03
0.02
0.33
0.04
0.00
0.01
0.18
0.14
0.14
0.09
0.12
0.12
0.18
0.14
0.40
0.02
0.64
0.71
0.61
0.67
0.62
0.59
0.55
0.20
0.20
0.23
0.11
0.09
0.09
0.09
0.09
0.06
0.09
0.04
0.06
0.04
0.06
0.02
0.04
0.04
0.06
0.04
0.07
0.07
0.09
0.11
0.14
0.14
0.14
0.12
0.18
0.14
0.09
0.11
0.06
0.04
0.01
0.02
0.02
0.01
0.02
0.02
0.01
0.01
0.02
0.00
0.00
0.00
0.02
0.00
0.02
0.01
0.01
0.00
0.02
0.02
0.01
0.02
0.02
0.02
0.01
0.01
0.01
0.02
0.02
0.02
0.02
0.01
0.00
0.01
0.00
0.12
0.03
0.16
0.12
0.50
0.12
0.08
0.00
0.07
0.07
0.02
0.04
0.01
0.04
0.01
0.04
0.11
0.26
0.68
0.80
0.62
0.87
0.67
0.58
0.46
0.02
0.04
0.02
0.01
0.00
0.00
0.00
0.02
0.02
0.04
0.02
0.08
0.03
0.04
0.04
0.16
0.04
0.08
0.04
0.04
0.00
0.01
0.01
0.04
0.07
0.09
0.09
0.14
0.12
0.12
0.07
0.09
0.01
0.01
0.02
0.01
0.01
0.00
0.01
0.00
0.01
0.00
0.01
0.02
0.00
0.03
0.00
0.03
0.03
0.03
0.02
0.04
0.00
0.00
0.00
0.00
0.01
0.01
0.01
0.01
0.02
0.01
0.01
0.01
0.01
0.01
0.01
0.02
0.01
0.01
0.02
0.02
0.00
0.01
0.01
0.03
0.26
0.04
0.01
0.01
0.14
0.11
0.11
0.06
0.04
0.07
0.04
0.04
0.09
0.08
0.30
0.87
0.58
0.82
0.61
0.62
0.52
0.02
0.04
0.02
0.01
0.02
0.02
0.01
0.02
0.00
0.02
0.00
0.01
0.01
0.01
0.00
0.01
0.01
0.02
0.01
0.04
0.04
0.09
0.11
0.14
0.23
0.20
0.23
0.23
0.29
0.18
0.18
0.07
0.09
0.04
0.02
0.01
0.02
0.01
0.01
0.00
0.00
0.02
0.00
0.01
0.00
0.01
0.00
0.00
0.00
0.01
0.00
0.01
0.00
0.02
0.01
0.01
0.01
0.02
0.02
0.01
0.01
0.01
0.02
0.00
0.02
0.00
0.01
0.00
0.01
0.00
0.01
0.01
0.00
0.03
0.00
0.03
0.12
0.36
0.08
0.02
0.02
0.18
0.12
0.11
0.07
0.12
0.11
0.14
0.09
0.20
0.01
0.00
0.87
0.58
0.72
0.60
0.62
0.56
0.11
0.14
0.12
0.11
0.07
0.07
0.06
0.07
0.06
0.09
0.06
0.06
0.04
0.07
0.06
0.11
0.11
0.11
0.14
0.23
0.32
0.29
0.38
0.44
0.46
0.44
0.46
0.44
0.42
0.36
0.29
0.20
0.12
0.07
0.06
0.04
0.01
0.01
0.01
0.01
0.02
0.01
0.01
0.07
0.03
0.04
0.52
0.64
0.49
0.86
0.93
0.93
0.89
0.58
0.81
0.95
0.89
0.84
0.00
0.56
0.47
0.54
0.01
0.02
0.00
0.02
0.03
0.03
0.08
0.08
0.22
0.12
0.26
0.22
0.36
0.26
0.46
0.45
0.70
0.64
0.68
0.70
0.68
0.71
0.71
0.71
0.71
0.67
0.55
0.38
0.22
0.03
0.02
0.02
0.01
0.01
0.42
0.29
0.32
0.70
0.62
0.64
0.57
0.55
0.40
0.01
0.07
0.07
0.04
0.04
0.07
0.04
0.06
0.06
0.06
0.04
0.06
0.04
0.09
0.11
0.11
0.20
0.23
0.32
0.35
0.46
0.44
0.46
0.44
0.42
0.25
0.14
0.07
0.02
0.01
0.02
0.03
0.04
0.04
0.08
0.03
0.12
0.08
0.08
0.08
0.04
0.08
0.04
0.08
0.03
0.08
0.02
0.04
0.02
0.04
0.00
0.04
0.03
0.02
0.03
0.04
0.03
0.04
0.04
0.03
0.02
0.02
0.02
0.02
0.16
0.22
0.22
0.33
0.52
0.45
0.36
0.22
0.01
0.01
0.02
0.01
0.02
0.02
0.02
0.01
0.04
0.01
0.22
0.87
0.47
0.64
0.67
0.65
0.58
0.14
0.04
0.04
0.01
0.01
0.00
0.00
0.02
0.02
0.04
0.03
0.04
0.12
0.16
0.16
0.12
0.20
0.08
0.12
0.08
0.08
0.03
0.00
0.01
0.01
0.02
0.01
0.01
0.04
0.04
0.02
0.01
0.02
0.02
0.03
0.12
0.08
0.16
0.20
0.20
0.16
0.22
0.20
0.22
0.22
0.30
0.26
0.30
0.30
0.26
0.30
0.22
0.22
0.00
0.25
0.51
0.58
0.51
0.38
0.90
0.98
1.00
1.00
0.99
0.99
0.96
0.95
0.99
0.99
0.97
0.91
0.64
0.01
0.12
0.46
0.51
0.58
0.57
0.58
0.60
0.61
0.62
0.64
0.71
0.77
0.85
0.87
0.92
0.93
0.93
0.93
0.93
0.93
0.93
0.93
0.89
0.85
0.70
0.61
0.58
0.51
0.40
0.23
0.09
0.06
0.04
0.02
0.02
0.02
0.04
0.01
0.02
0.01
0.02
0.01
0.01
0.01
0.02
0.02
0.01
0.01
0.00
0.00
0.00
0.00
0.02
0.00
0.00
0.00
0.00
0.00
0.00
0.02
0.00
0.02
0.01
0.00
0.00
0.00
0.01
0.00
0.01
0.00
0.02
0.01
0.02
0.01
0.02
0.01
0.02
0.02
0.01
0.01
0.02
0.01
0.02
0.01
0.02
0.02
0.02
0.01
0.01
0.02
0.02
0.02
0.02
0.12
0.04
0.48
0.22
0.20
0.00
0.04
0.04
0.07
0.06
0.04
0.07
0.09
0.06
0.29
0.02
0.30
0.84
0.57
0.75
0.61
0.59
0.55
0.11
0.09
0.11
0.06
0.06
0.04
0.02
0.01
0.01
0.02
0.02
0.02
0.00
0.00
0.00
0.01
0.01
0.01
0.01
0.06
0.07
0.09
0.11
0.18
0.14
0.18
0.20
0.18
0.23
0.23
0.32
0.23
0.25
0.14
0.12
0.07
0.04
0.04
0.04
0.01
0.02
0.01
0.02
0.02
0.01
0.01
0.00
0.02
0.02
0.01
0.01
0.29
0.53
0.58
0.58
0.49
0.72
0.95
0.99
1.00
0.99
0.99
0.95
0.94
0.97
0.98
0.98
0.95
0.82
0.02
0.12
0.47
0.50
0.56
0.58
0.58
0.60
0.61
0.62
0.64
0.70
0.75
0.79
0.86
0.89
0.91
0.93
0.93
0.93
0.93
0.93
0.93
0.92
0.88
0.79
0.65
0.60
0.58
0.52
0.48
0.36
0.32
0.23
0.23
0.18
0.14
0.14
0.12
0.18
0.11
0.09
0.09
0.09
0.06
0.06
0.04
0.04
0.02
0.04
0.01
0.02
0.01
0.01
0.02
0.01
0.01
0.02
0.01
0.01
0.01
0.01
0.01
0.02
0.02
0.01
0.01
0.01
0.01
0.02
0.02
0.02
0.01
0.01
0.02
0.01
0.02
0.02
0.02
0.01
0.01
0.02
0.01
0.01
0.01
0.01
0.01
0.02
0.04
0.01
0.04
0.01
0.01
0.03
0.02
0.41
0.12
0.22
0.00
0.04
0.06
0.09
0.09
0.09
0.09
0.12
0.12
0.35
0.01
0.55
0.71
0.61
0.76
0.65
0.58
0.52
0.12
0.14
0.09
0.04
0.07
0.04
0.02
0.01
0.01
0.02
0.02
0.02
0.01
0.00
0.00
0.00
0.00
0.00
0.00
0.01
0.00
0.01
0.00
0.01
0.02
0.02
0.01
0.04
0.07
0.14
0.20
0.14
0.14
0.09
0.07
0.04
0.02
0.01
0.01
0.02
0.01
0.01
0.01
0.01
0.00
0.00
0.00
0.00
0.00
0.00
0.02
0.00
0.02
0.00
0.03
0.00
0.00
0.00
0.01
0.01
0.01
0.01
0.01
0.02
0.01
0.01
0.02
0.00
0.12
0.12
0.46
0.26
0.20
0.00
0.04
0.06
0.06
0.06
0.04
0.07
0.07
0.09
0.23
0.04
0.59
0.77
0.62
0.82
0.64
0.60
0.54
0.12
0.14
0.09
0.06
0.04
0.04
0.02
0.01
0.01
0.02
0.02
0.02
0.01
0.00
0.01
0.00
0.01
0.00
0.02
0.01
0.01
0.04
0.09
0.12
0.14
0.14
0.18
0.20
0.18
0.12
0.07
0.06
0.01
0.01
0.02
0.00
0.00
0.00
0.00
0.00
0.01
0.00
0.00
0.00
0.00
0.00
0.02
0.02
0.00
0.02
0.03
0.04
0.03
0.03
0.04
0.02
0.04
0.02
0.03
0.00
0.03
0.00
0.02
0.02
0.00
0.00
0.00
0.02
0.00
0.02
0.00
0.16
0.03
0.16
0.16
0.48
0.22
0.04
0.02
0.07
0.04
0.06
0.01
0.01
0.01
0.02
0.01
0.04
0.12
0.30
0.88
0.58
0.74
0.61
0.62
0.54
0.04
0.01
0.02
0.02
0.02
0.00
0.01
0.00
0.02
0.00
0.02
0.00
0.02
0.00
0.02
0.00
0.02
0.00
0.00
0.02
0.04
0.07
0.11
0.20
0.23
0.23
0.32
0.23
0.29
0.18
0.11
0.09
0.07
0.01
0.01
0.00
0.01
0.00
0.00
0.00
0.00
0.00
0.00
0.02
0.00
0.00
0.00
0.01
0.01
0.00
0.02
0.00
0.01
0.01
0.02
0.01
0.01
0.02
0.01
0.00
0.02
0.01
0.02
0.02
0.01
0.01
0.01
0.02
0.01
0.01
0.01
0.01
0.02
0.02
0.00
0.03
0.33
0.30
0.08
0.00
0.06
0.09
0.09
0.04
0.04
0.04
0.07
0.04
0.07
0.04
0.03
0.81
0.29
0.60
0.61
0.62
0.58
0.23
0.11
0.07
0.06
0.07
0.04
0.04
0.01
0.01
0.01
0.02
0.01
0.01
0.01
0.01
0.02
0.04
0.06
0.09
0.12
0.12
0.18
0.18
0.35
0.32
0.36
0.29
0.35
0.29
0.25
0.12
0.11
0.06
0.04
0.02
0.01
0.01
0.02
0.02
0.02
0.02
0.01
0.01
0.01
0.02
0.00
0.01
0.00
0.00
0.02
0.01
0.01
0.00
0.00
0.00
0.01
0.01
0.02
0.01
0.02
0.01
0.01
0.02
0.01
0.02
0.01
0.01
0.01
0.02
0.01
0.01
0.01
0.01
0.00
0.03
0.00
0.12
0.08
0.46
0.16
0.04
0.00
0.07
0.07
0.04
0.04
0.02
0.04
0.04
0.06
0.12
0.16
0.46
0.81
0.58
0.73
0.61
0.58
0.54
0.02
0.07
0.04
0.01
0.01
0.02
0.00
0.00
0.00
0.00
0.00
0.02
0.03
0.03
0.04
0.08
0.03
0.04
0.03
0.04
0.00
0.01
0.01
0.02
0.06
0.04
0.09
0.11
0.09
0.07
0.04
0.04
0.02
0.02
0.02
0.00
0.03
0.02
0.03
0.02
0.03
0.02
0.03
0.04
0.02
0.03
0.02
0.04
0.02
0.02
0.00
0.03
0.00
0.00
0.00
0.00
0.00
0.00
0.00
0.00
0.00
0.01
0.01
0.01
0.00
0.02
0.00
0.01
0.01
0.02
0.01
0.01
0.02
0.02
0.01
0.02
0.01
0.01
0.01
0.01
0.01
0.02
0.02
0.08
0.02
0.20
0.08
0.38
0.03
0.00
0.02
0.11
0.06
0.06
0.04
0.04
0.04
0.04
0.02
0.11
0.22
0.71
0.60
0.61
0.78
0.62
0.58
0.35
0.04
0.02
0.02
0.02
0.02
0.00
0.02
0.02
0.00
0.02
0.02
0.02
0.03
0.00
0.03
0.00
0.02
0.00
0.00
0.02
0.01
0.04
0.06
0.11
0.14
0.20
0.20
0.23
0.25
0.14
0.11
0.07
0.06
0.01
0.01
0.02
0.01
0.01
0.01
0.01
0.01
0.01
0.01
0.02
0.02
0.01
0.01
0.02
0.00
0.01
0.01
0.02
0.01
0.01
0.02
0.02
0.01
0.01
0.01
0.01
0.02
0.01
0.01
0.01
0.04
0.01
0.02
0.01
0.02
0.01
0.01
0.01
0.01
0.01
0.01
0.01
0.01
0.01
0.01
0.01
0.01
0.01
0.01
0.01
0.01
0.02
0.01
0.01
0.01
0.02
0.01
0.02
0.01
0.00
0.00
0.00
0.08
0.04
0.00
0.02
0.14
0.12
0.09
0.04
0.06
0.04
0.06
0.04
0.06
0.00
0.08
0.87
0.58
0.71
0.59
0.62
0.55
0.06
0.06
0.04
0.01
0.02
0.02
0.01
0.00
0.01
0.01
0.00
0.01
0.00
0.01
0.00
0.01
0.01
0.02
0.01
0.04
0.04
0.11
0.14
0.23
0.29
0.32
0.36
0.25
0.35
0.29
0.25
0.12
0.09
0.04
0.06
0.01
0.01
0.01
0.01
0.01
0.02
0.01
0.01
0.01
0.02
0.02
0.00
0.01
0.00
0.01
0.00
0.01
0.00
0.00
0.02
0.00
0.02
0.03
0.00
0.00
0.00
0.00
0.01
0.00
0.01
0.01
0.01
0.01
0.02
0.01
0.01
0.02
0.01
0.04
0.02
0.02
0.02
0.04
0.01
0.02
0.01
0.01
0.01
0.02
0.04
0.02
0.01
0.01
0.01
0.01
0.02
0.01
0.02
0.01
0.01
0.01
0.01
0.00
0.02
0.02
0.16
0.04
0.00
0.02
0.07
0.11
0.07
0.06
0.04
0.07
0.04
0.09
0.20
0.02
0.52
0.80
0.57
0.64
0.61
0.57
0.54
0.01
0.07
0.01
0.02
0.00
0.01
0.00
0.01
0.00
0.00
0.01
0.00
0.01
0.00
0.01
0.00
0.02
0.01
0.02
0.02
0.04
0.04
0.07
0.09
0.11
0.12
0.11
0.14
0.12
0.11
0.07
0.07
0.04
0.02
0.02
0.02
0.01
0.00
0.00
0.01
0.00
0.00
0.02
0.00
0.01
0.00
0.02
0.00
0.01
0.00
0.02
0.01
0.00
0.02
0.01
0.01
0.00
0.01
0.00
0.00
0.00
0.02
0.00
0.00
0.00
0.00
0.00
0.02
0.00
0.00
0.00
0.00
0.00
0.03
0.00
0.03
0.00
0.03
0.00
0.02
0.02
0.03
0.02
0.00
0.03
0.02
0.03
0.02
0.08
0.12
0.20
0.16
0.20
0.22
0.02
0.01
0.01
0.09
0.07
0.04
0.02
0.01
0.01
0.02
0.01
0.04
0.30
0.56
0.86
0.58
0.78
0.61
0.59
0.51
0.01
0.01
0.01
0.01
0.00
0.01
0.03
0.02
0.03
0.02
0.04
0.04
0.08
0.04
0.08
0.08
0.04
0.12
0.03
0.04
0.01
0.01
0.02
0.04
0.07
0.09
0.12
0.18
0.20
0.18
0.14
0.11
0.04
0.04
0.01
0.01
0.00
0.00
0.00
0.02
0.02
0.00
0.02
0.00
0.00
0.00
0.02
0.02
0.00
0.02
0.00
0.03
0.00
0.02
0.00
0.00
0.01
0.02
0.01
0.01
0.01
0.00
0.02
0.02
0.00
0.01
0.00
0.02
0.01
0.02
0.02
0.02
0.02
0.01
0.01
0.01
0.01
0.01
0.01
0.02
0.01
0.01
0.01
0.00
0.02
0.03
0.03
0.08
0.02
0.26
0.02
0.06
0.04
0.11
0.07
0.11
0.04
0.01
0.02
0.04
0.02
0.09
0.26
0.71
0.63
0.61
0.76
0.63
0.58
0.32
0.04
0.02
0.01
0.01
0.01
0.01
0.02
0.00
0.01
0.00
0.00
0.01
0.01
0.01
0.00
0.02
0.02
0.01
0.02
0.04
0.02
0.09
0.12
0.20
0.23
0.29
0.32
0.29
0.35
0.25
0.20
0.12
0.11
0.04
0.02
0.00
0.00
0.00
0.00
0.00
0.00
0.02
0.02
0.00
0.00
0.00
0.02
0.00
0.02
0.02
0.03
0.00
0.03
0.03
0.00
0.03
0.00
0.02
0.00
0.00
0.00
0.00
0.01
0.00
0.00
0.00
0.01
0.00
0.00
0.01
0.01
0.02
0.02
0.01
0.01
0.01
0.01
0.01
0.02
0.02
0.01
0.01
0.02
0.00
0.00
0.03
0.04
0.08
0.03
0.08
0.00
0.02
0.04
0.11
0.11
0.07
0.02
0.02
0.02
0.01
0.01
0.06
0.16
0.22
0.87
0.58
0.70
0.58
0.61
0.54
0.01
0.02
0.01
0.02
0.02
0.00
0.02
0.00
0.00
0.03
0.00
0.00
0.00
0.00
0.02
0.01
0.01
0.01
0.01
0.06
0.07
0.12
0.18
0.23
0.35
0.38
0.36
0.38
0.40
0.35
0.25
0.14
0.12
0.04
0.02
0.01
0.02
0.00
0.01
0.00
0.01
0.00
0.00
0.01
0.00
0.00
0.00
0.01
0.03
0.00
0.00
0.02
0.00
0.00
0.00
0.00
0.00
0.00
0.01
0.00
0.01
0.00
0.02
0.02
0.01
0.01
0.00
0.00
0.02
0.02
0.01
0.02
0.01
0.01
0.00
0.02
0.01
0.02
0.00
0.00
0.01
0.01
0.00
0.02
0.00
0.03
0.04
0.04
0.03
0.12
0.00
0.01
0.04
0.06
0.11
0.04
0.04
0.04
0.04
0.04
0.01
0.14
0.04
0.46
0.84
0.58
0.62
0.58
0.58
0.54
0.01
0.04
0.04
0.01
0.01
0.00
0.02
0.00
0.01
0.00
0.01
0.02
0.01
0.00
0.02
0.02
0.01
0.01
0.02
0.04
0.07
0.11
0.12
0.18
0.20
0.23
0.18
0.25
0.23
0.20
0.14
0.12
0.07
0.04
0.04
0.01
0.01
0.01
0.02
0.00
0.01
0.00
0.01
0.00
0.01
0.00
0.01
0.02
0.02
0.00
0.00
0.00
0.00
0.02
0.00
0.01
0.00
0.00
0.01
0.02
0.01
0.02
0.01
0.02
0.01
0.01
0.01
0.01
0.01
0.01
0.01
0.02
0.01
0.02
0.02
0.02
0.02
0.02
0.02
0.01
0.01
0.01
0.00
0.00
0.04
0.03
0.02
0.04
0.00
0.04
0.04
0.14
0.18
0.11
0.06
0.04
0.04
0.04
0.04
0.11
0.08
0.38
0.85
0.58
0.79
0.60
0.60
0.51
0.01
0.02
0.02
0.01
0.00
0.00
0.00
0.00
0.03
0.02
0.02
0.02
0.03
0.04
0.00
0.08
0.03
0.02
0.00
0.02
0.01
0.01
0.01
0.04
0.07
0.12
0.11
0.18
0.20
0.23
0.18
0.14
0.09
0.07
0.02
0.02
0.02
0.01
0.02
0.02
0.01
0.01
0.01
0.02
0.01
0.01
0.02
0.02
0.02
0.01
0.02
0.01
0.00
0.01
0.01
0.01
0.01
0.01
0.01
0.02
0.01
0.02
0.01
0.01
0.01
0.01
0.02
0.01
0.02
0.01
0.04
0.01
0.02
0.02
0.02
0.02
0.04
0.04
0.02
0.04
0.04
0.04
0.01
0.01
0.01
0.00
0.01
0.04
0.04
0.11
0.09
0.23
0.20
0.11
0.09
0.04
0.06
0.04
0.06
0.14
0.16
0.70
0.70
0.59
0.77
0.61
0.57
0.48
0.04
0.06
0.04
0.01
0.01
0.01
0.02
0.00
0.01
0.00
0.01
0.00
0.02
0.01
0.02
0.01
0.01
0.01
0.02
0.01
0.06
0.07
0.11
0.18
0.23
0.29
0.32
0.36
0.35
0.32
0.32
0.25
0.14
0.11
0.07
0.04
0.02
0.01
0.01
0.01
0.01
0.01
0.02
0.02
0.01
0.02
0.01
0.01
0.01
0.02
0.01
0.02
0.01
0.01
0.01
0.02
0.02
0.02
0.01
0.02
0.01
0.01
0.01
0.01
0.01
0.02
0.01
0.01
0.02
0.02
0.01
0.02
0.01
0.01
0.01
0.02
0.01
0.02
0.01
0.01
0.02
0.02
0.02
0.00
0.02
0.00
0.01
0.08
0.01
0.09
0.11
0.18
0.12
0.07
0.04
0.04
0.04
0.01
0.09
0.02
0.03
0.87
0.55
0.62
0.58
0.61
0.55
0.02
0.04
0.02
0.01
0.01
0.02
0.01
0.01
0.02
0.02
0.01
0.01
0.01
0.01
0.01
0.01
0.04
0.04
0.07
0.09
0.14
0.25
0.25
0.38
0.40
0.47
0.42
0.42
0.40
0.44
0.35
0.32
0.20
0.09
0.06
0.02
0.02
0.02
0.02
0.01
0.01
0.00
0.02
0.01
0.02
0.02
0.01
0.01
0.01
0.00
0.00
0.01
0.00
0.02
0.00
0.01
0.01
0.02
0.02
0.01
0.02
0.01
0.02
0.02
0.01
0.01
0.01
0.01
0.02
0.02
0.01
0.01
0.02
0.01
0.02
0.01
0.02
0.02
0.01
0.02
0.00
0.02
0.03
0.02
0.01
0.16
0.02
0.11
0.04
0.14
0.14
0.12
0.09
0.04
0.07
0.04
0.07
0.09
0.00
0.72
0.02
0.58
0.60
0.61
0.58
0.35
0.04
0.02
0.01
0.01
0.02
0.01
0.00
0.01
0.00
0.00
0.00
0.00
0.01
0.02
0.01
0.01
0.01
0.04
0.04
0.06
0.09
0.11
0.14
0.18
0.25
0.25
0.25
0.25
0.23
0.20
0.14
0.12
0.09
0.04
0.02
0.01
0.01
0.02
0.00
0.01
0.00
0.01
0.00
0.00
0.00
0.02
0.01
0.00
0.00
0.00
0.01
0.02
0.00
0.00
0.00
0.02
0.02
0.00
0.02
0.00
0.03
0.00
0.03
0.00
0.02
0.00
0.02
0.02
0.00
0.02
0.02
0.00
0.00
0.02
0.01
0.00
0.00
0.00
0.02
0.12
0.08
0.20
0.12
0.08
0.08
0.02
0.01
0.09
0.07
0.06
0.04
0.02
0.01
0.02
0.01
0.07
0.20
0.36
0.87
0.57
0.74
0.59
0.61
0.53
0.01
0.02
0.01
0.02
0.00
0.02
0.03
0.03
0.03
0.04
0.08
0.03
0.04
0.03
0.04
0.02
0.04
0.03
0.03
0.00
0.00
0.01
0.01
0.02
0.04
0.06
0.11
0.11
0.12
0.11
0.11
0.06
0.04
0.02
0.01
0.03
0.03
0.03
0.08
0.03
0.04
0.03
0.08
0.04
0.03
0.02
0.04
0.02
0.02
0.02
0.02
0.00
0.00
0.00
0.00
0.01
0.00
0.00
0.00
0.00
0.00
0.02
0.00
0.02
0.00
0.02
0.00
0.02
0.02
0.00
0.00
0.02
0.00
0.00
0.02
0.00
0.00
0.00
0.00
0.00
0.08
0.04
0.16
0.20
0.00
0.26
0.00
0.04
0.02
0.07
0.06
0.04
0.02
0.01
0.01
0.00
0.01
0.02
0.20
0.87
0.55
0.64
0.60
0.62
0.54
0.01
0.01
0.01
0.00
0.00
0.02
0.02
0.03
0.02
0.08
0.03
0.04
0.03
0.04
0.03
0.02
0.02
0.00
0.01
0.01
0.01
0.04
0.06
0.11
0.12
0.18
0.20
0.25
0.23
0.23
0.18
0.11
0.07
0.04
0.01
0.00
0.00
0.02
0.00
0.04
0.00
0.03
0.02
0.04
0.03
0.08
0.04
0.08
0.08
0.12
0.04
0.04
0.04
0.04
0.03
0.03
0.08
0.03
0.03
0.02
0.04
0.00
0.02
0.02
0.02
0.00
0.00
0.02
0.00
0.00
0.00
0.00
0.01
0.00
0.02
0.00
0.01
0.00
0.02
0.02
0.04
0.02
0.12
0.03
0.12
0.01
0.06
0.12
0.11
0.09
0.04
0.06
0.04
0.04
0.04
0.06
0.01
0.03
0.86
0.54
0.62
0.58
0.62
0.56
0.06
0.04
0.04
0.01
0.02
0.01
0.01
0.02
0.01
0.01
0.02
0.01
0.01
0.01
0.02
0.01
0.01
0.02
0.04
0.07
0.11
0.14
0.20
0.32
0.35
0.38
0.38
0.38
0.36
0.32
0.32
0.20
0.12
0.06
0.04
0.01
0.02
0.02
0.02
0.02
0.02
0.01
0.02
0.01
0.00
0.01
0.02
0.01
0.01
0.02
0.01
0.01
0.01
0.02
0.02
0.02
0.01
0.02
0.02
0.01
0.01
0.01
0.01
0.01
0.04
0.01
0.02
0.02
0.01
0.01
0.04
0.04
0.04
0.04
0.01
0.01
0.00
0.00
0.03
0.22
0.02
0.02
0.04
0.23
0.12
0.12
0.11
0.09
0.14
0.09
0.11
0.32
0.02
0.20
0.78
0.57
0.62
0.60
0.57
0.55
0.09
0.12
0.09
0.11
0.04
0.06
0.06
0.04
0.02
0.02
0.01
0.01
0.01
0.04
0.02
0.02
0.06
0.04
0.07
0.11
0.14
0.18
0.20
0.23
0.32
0.23
0.32
0.29
0.32
0.20
0.18
0.12
0.07
0.07
0.04
0.02
0.01
0.01
0.01
0.01
0.01
0.04
0.02
0.04
0.02
0.04
0.04
0.04
0.04
0.04
0.06
0.04
0.09
0.06
0.07
0.04
0.07
0.06
0.06
0.04
0.06
0.04
0.04
0.04
0.06
0.04
0.02
0.04
0.01
0.04
0.02
0.04
0.01
0.02
0.02
0.00
0.00
0.08
0.02
0.33
0.00
0.02
0.09
0.20
0.14
0.11
0.07
0.09
0.07
0.06
0.12
0.01
0.03
0.85
0.58
0.73
0.62
0.63
0.56
0.09
0.04
0.04
0.02
0.02
0.01
0.01
0.02
0.02
0.00
0.01
0.00
0.00
0.00
0.00
0.00
0.03
0.00
0.00
0.01
0.00
0.02
0.01
0.04
0.04
0.12
0.12
0.14
0.14
0.23
0.12
0.11
0.06
0.04
0.01
0.01
0.00
0.00
0.00
0.00
0.02
0.02
0.00
0.00
0.00
0.00
0.00
0.00
0.00
0.00
0.00
0.00
0.00
0.00
0.00
0.00
0.00
0.01
0.00
0.00
0.00
0.00
0.02
0.00
0.02
0.00
0.00
0.00
0.00
0.00
0.02
0.02
0.00
0.02
0.02
0.08
0.16
0.12
0.20
0.33
0.20
0.04
0.01
0.12
0.07
0.06
0.02
0.04
0.01
0.04
0.02
0.11
0.16
0.26
0.86
0.58
0.79
0.61
0.61
0.53
0.04
0.04
0.02
0.01
0.01
0.02
0.02
0.01
0.01
0.00
0.00
0.00
0.00
0.00
0.02
0.00
0.00
0.00
0.00
0.02
0.02
0.02
0.04
0.09
0.09
0.12
0.12
0.14
0.14
0.12
0.11
0.07
0.04
0.01
0.01
0.02
0.00
0.03
0.03
0.03
0.03
0.02
0.02
0.03
0.02
0.02
0.03
0.04
0.08
0.03
0.04
0.03
0.04
0.03
0.08
0.04
0.04
0.03
0.08
0.03
0.03
0.08
0.04
0.03
0.04
0.04
0.04
0.08
0.02
0.04
0.02
0.03
0.03
0.02
0.02
0.02
0.03
0.03
0.16
0.22
0.22
0.22
0.36
0.41
0.16
0.00
0.04
0.04
0.02
0.01
0.01
0.01
0.01
0.02
0.04
0.02
0.04
0.86
0.51
0.64
0.61
0.63
0.56
0.04
0.02
0.01
0.01
0.01
0.00
0.00
0.02
0.00
0.02
0.02
0.02
0.03
0.04
0.02
0.03
0.02
0.00
0.00
0.02
0.01
0.02
0.06
0.09
0.12
0.20
0.20
0.23
0.23
0.25
0.20
0.11
0.09
0.04
0.01
0.01
0.00
0.02
0.00
0.02
0.00
0.03
0.00
0.00
0.00
0.02
0.02
0.00
0.03
0.00
0.03
0.00
0.02
0.00
0.03
0.00
0.02
0.00
0.00
0.02
0.00
0.00
0.00
0.00
0.00
0.00
0.00
0.02
0.00
0.03
0.00
0.00
0.00
0.02
0.00
0.00
0.00
0.00
0.03
0.08
0.08
0.16
0.30
0.22
0.12
0.02
0.09
0.07
0.04
0.02
0.02
0.02
0.01
0.01
0.18
0.08
0.20
0.85
0.58
0.62
0.58
0.57
0.52
0.01
0.04
0.01
0.01
0.01
0.01
0.01
0.02
0.01
0.01
0.01
0.02
0.01
0.01
0.04
0.01
0.04
0.01
0.07
0.09
0.11
0.14
0.23
0.25
0.25
0.29
0.25
0.32
0.20
0.20
0.12
0.11
0.02
0.04
0.02
0.01
0.00
0.00
0.00
0.00
0.00
0.00
0.00
0.00
0.00
0.02
0.00
0.02
0.00
0.00
0.00
0.00
0.02
0.00
0.00
0.01
0.00
0.01
0.00
0.02
0.01
0.02
0.01
0.01
0.02
0.01
0.02
0.02
0.01
0.02
0.01
0.01
0.01
0.02
0.01
0.00
0.01
0.08
0.08
0.20
0.08
0.38
0.12
0.04
0.00
0.14
0.04
0.09
0.04
0.07
0.04
0.06
0.07
0.25
0.03
0.38
0.79
0.59
0.72
0.61
0.58
0.53
0.04
0.04
0.04
0.02
0.01
0.02
0.02
0.00
0.00
0.00
0.03
0.02
0.03
0.03
0.12
0.08
0.12
0.04
0.12
0.04
0.04
0.00
0.00
0.02
0.02
0.04
0.04
0.06
0.09
0.09
0.09
0.04
0.02
0.02
0.01
0.00
0.03
0.02
0.04
0.03
0.04
0.02
0.08
0.02
0.02
0.02
0.03
0.02
0.02
0.03
0.00
0.02
0.00
0.03
0.02
0.04
0.00
0.04
0.00
0.02
0.02
0.02
0.02
0.00
0.03
0.00
0.03
0.00
0.02
0.00
0.02
0.00
0.00
0.00
0.02
0.02
0.02
0.00
0.00
0.03
0.04
0.22
0.08
0.26
0.16
0.41
0.02
0.01
0.06
0.18
0.06
0.09
0.04
0.04
0.04
0.04
0.06
0.07
0.03
0.84
0.44
0.70
0.67
0.71
0.58
0.18
0.07
0.04
0.02
0.01
0.02
0.02
0.02
0.00
0.02
0.00
0.00
0.00
0.00
0.00
0.00
0.00
0.00
0.02
0.01
0.01
0.01
0.02
0.04
0.12
0.11
0.14
0.20
0.18
0.23
0.18
0.20
0.07
0.07
0.01
0.01
0.01
0.00
0.00
0.00
0.00
0.00
0.02
0.00
0.00
0.00
0.01
0.03
0.00
0.02
0.00
0.02
0.00
0.02
0.00
0.00
0.02
0.00
0.02
0.00
0.00
0.00
0.00
0.01
0.00
0.02
0.00
0.00
0.03
0.02
0.00
0.00
0.00
0.00
0.00
0.00
0.00
0.00
0.01
0.02
0.00
0.00
0.04
0.16
0.08
0.26
0.26
0.45
0.08
0.02
0.04
0.09
0.02
0.06
0.01
0.02
0.01
0.02
0.06
0.00
0.02
0.87
0.56
0.69
0.61
0.62
0.57
0.04
0.06
0.01
0.01
0.02
0.01
0.00
0.00
0.00
0.00
0.00
0.00
0.00
0.00
0.01
0.01
0.02
0.01
0.01
0.02
0.04
0.04
0.09
0.14
0.14
0.29
0.23
0.29
0.25
0.32
0.29
0.20
0.12
0.09
0.06
0.02
0.01
0.01
0.02
0.01
0.02
0.02
0.02
0.02
0.01
0.00
0.01
0.02
0.02
0.01
0.01
0.02
0.01
0.02
0.00
0.02
0.01
0.02
0.01
0.02
0.01
0.02
0.01
0.02
0.01
0.02
0.01
0.01
0.01
0.01
0.04
0.01
0.01
0.01
0.02
0.02
0.01
0.02
0.01
0.01
0.01
0.00
0.03
0.00
0.08
0.02
0.41
0.00
0.01
0.02
0.18
0.09
0.11
0.06
0.07
0.06
0.07
0.07
0.29
0.01
0.52
0.67
0.57
0.63
0.60
0.58
0.47
0.11
0.07
0.11
0.07
0.07
0.02
0.07
0.06
0.06
0.04
0.06
0.06
0.04
0.04
0.06
0.09
0.07
0.11
0.12
0.14
0.14
0.25
0.29
0.32
0.36
0.38
0.38
0.35
0.36
0.29
0.23
0.14
0.14
0.07
0.04
0.04
0.02
0.01
0.01
0.02
0.02
0.02
0.01
0.02
0.01
0.02
0.04
0.04
0.01
0.02
0.02
0.01
0.02
0.01
0.01
0.01
0.01
0.01
0.02
0.01
0.02
0.01
0.04
0.01
0.02
0.02
0.04
0.01
0.04
0.04
0.01
0.04
0.02
0.04
0.02
0.02
0.00
0.00
0.00
0.02
0.16
0.02
0.00
0.02
0.20
0.11
0.12
0.07
0.09
0.07
0.07
0.09
0.29
0.03
0.30
0.81
0.58
0.67
0.61
0.57
0.54
0.06
0.07
0.04
0.02
0.02
0.01
0.02
0.02
0.01
0.00
0.02
0.00
0.02
0.03
0.04
0.02
0.03
0.02
0.02
0.02
0.00
0.01
0.02
0.01
0.04
0.04
0.06
0.07
0.11
0.07
0.11
0.06
0.06
0.02
0.01
0.01
0.01
0.00
0.00
0.00
0.02
0.01
0.00
0.01
0.01
0.02
0.00
0.01
0.00
0.01
0.00
0.01
0.01
0.00
0.01
0.00
0.02
0.00
0.02
0.02
0.02
0.00
0.01
0.01
0.00
0.00
0.00
0.00
0.00
0.01
0.00
0.00
0.00
0.01
0.00
0.02
0.12
0.01
0.22
0.04
0.41
0.00
0.00
0.04
0.18
0.07
0.06
0.04
0.04
0.02
0.04
0.04
0.01
0.20
0.87
0.54
0.74
0.70
0.71
0.58
0.09
0.04
0.02
0.02
0.02
0.01
0.00
0.01
0.00
0.00
0.00
0.00
0.03
0.00
0.03
0.04
0.02
0.00
0.00
0.00
0.02
0.01
0.04
0.04
0.12
0.09
0.14
0.12
0.20
0.14
0.18
0.12
0.06
0.04
0.01
0.01
0.00
0.01
0.00
0.01
0.00
0.01
0.00
0.00
0.00
0.00
0.00
0.02
0.00
0.03
0.00
0.02
0.02
0.02
0.00
0.02
0.00
0.00
0.00
0.00
0.00
0.00
0.00
0.01
0.00
0.00
0.00
0.02
0.00
0.01
0.00
0.00
0.00
0.00
0.00
0.00
0.04
0.12
0.08
0.26
0.20
0.48
0.03
0.04
0.01
0.07
0.04
0.01
0.01
0.01
0.01
0.02
0.01
0.11
0.30
0.71
0.63
0.61
0.76
0.62
0.58
0.40
0.01
0.02
0.01
0.02
0.01
0.02
0.00
0.00
0.00
0.00
0.00
0.03
0.00
0.00
0.01
0.02
0.00
0.00
0.00
0.02
0.01
0.01
0.04
0.11
0.09
0.18
0.14
0.23
0.18
0.18
0.11
0.07
0.02
0.02
0.01
0.00
0.02
0.04
0.03
0.04
0.03
0.04
0.03
0.04
0.03
0.03
0.04
0.03
0.08
0.03
0.08
0.02
0.04
0.00
0.03
0.00
0.02
0.00
0.02
0.00
0.00
0.00
0.00
0.01
0.01
0.00
0.02
0.00
0.02
0.00
0.02
0.01
0.01
0.01
0.01
0.00
0.03
0.04
0.02
0.08
0.26
0.08
0.02
0.01
0.09
0.12
0.07
0.07
0.04
0.04
0.04
0.02
0.11
0.02
0.02
0.87
0.57
0.62
0.57
0.60
0.56
0.01
0.07
0.04
0.02
0.01
0.01
0.01
0.01
0.02
0.01
0.01
0.01
0.02
0.02
0.02
0.01
0.04
0.04
0.07
0.09
0.12
0.20
0.18
0.29
0.35
0.35
0.29
0.32
0.25
0.25
0.18
0.20
0.09
0.06
0.01
0.01
0.01
0.02
0.01
0.02
0.02
0.01
0.02
0.02
0.01
0.02
0.01
0.00
0.01
0.01
0.01
0.02
0.01
0.02
0.02
0.01
0.02
0.01
0.01
0.01
0.01
0.01
0.01
0.01
0.02
0.01
0.02
0.02
0.01
0.01
0.02
0.01
0.02
0.00
0.02
0.04
0.01
0.30
0.01
0.01
0.06
0.23
0.18
0.14
0.11
0.12
0.11
0.11
0.14
0.07
0.01
0.81
0.50
0.62
0.59
0.61
0.58
0.09
0.07
0.04
0.02
0.01
0.01
0.01
0.01
0.01
0.01
0.00
0.01
0.00
0.01
0.00
0.00
0.02
0.01
0.00
0.02
0.02
0.01
0.01
0.02
0.06
0.04
0.04
0.07
0.06
0.04
0.06
0.01
0.02
0.01
0.00
0.02
0.03
0.02
0.03
0.03
0.04
0.02
0.03
0.02
0.03
0.00
0.04
0.00
0.03
0.00
0.00
0.00
0.00
0.01
0.00
0.00
0.01
0.00
0.00
0.02
0.00
0.02
0.00
0.02
0.00
0.02
0.00
0.00
0.02
0.02
0.00
0.00
0.08
0.08
0.04
0.20
0.08
0.41
0.02
0.00
0.01
0.12
0.06
0.04
0.02
0.01
0.04
0.02
0.04
0.02
0.20
0.85
0.51
0.72
0.76
0.71
0.58
0.18
0.04
0.04
0.02
0.01
0.02
0.02
0.02
0.02
0.00
0.02
0.00
0.01
0.00
0.02
0.02
0.00
0.00
0.01
0.01
0.02
0.01
0.04
0.06
0.07
0.14
0.14
0.18
0.20
0.23
0.18
0.18
0.11
0.07
0.04
0.02
0.01
0.01
0.01
0.02
0.01
0.02
0.01
0.02
0.02
0.00
0.02
0.01
0.00
0.00
0.01
0.00
0.01
0.00
0.00
0.00
0.02
0.00
0.00
0.00
0.00
0.00
0.00
0.00
0.00
0.00
0.00
0.00
0.00
0.00
0.00
0.02
0.00
0.00
0.02
0.04
0.00
0.16
0.08
0.16
0.00
0.01
0.11
0.20
0.06
0.06
0.04
0.04
0.04
0.04
0.07
0.02
0.04
0.87
0.58
0.74
0.60
0.62
0.56
0.02
0.04
0.01
0.01
0.00
0.02
0.00
0.00
0.02
0.00
0.02
0.00
0.02
0.00
0.00
0.02
0.01
0.00
0.01
0.01
0.04
0.06
0.09
0.12
0.20
0.20
0.25
0.29
0.25
0.29
0.18
0.14
0.07
0.06
0.02
0.01
0.01
0.01
0.01
0.00
0.00
0.01
0.00
0.00
0.00
0.00
0.00
0.02
0.00
0.03
0.02
0.03
0.00
0.00
0.03
0.03
0.02
0.00
0.02
0.00
0.00
0.00
0.00
0.00
0.00
0.00
0.00
0.00
0.00
0.02
0.00
0.01
0.01
0.01
0.01
0.02
0.04
0.00
0.12
0.08
0.38
0.02
0.03
0.01
0.09
0.04
0.02
0.02
0.01
0.01
0.01
0.01
0.04
0.12
0.76
0.04
0.58
0.61
0.61
0.56
0.12
0.04
0.02
0.01
0.01
0.01
0.02
0.01
0.01
0.01
0.01
0.01
0.02
0.01
0.01
0.02
0.01
0.01
0.06
0.04
0.09
0.12
0.18
0.23
0.32
0.35
0.29
0.32
0.25
0.29
0.12
0.11
0.07
0.04
0.02
0.00
0.01
0.00
0.00
0.00
0.00
0.02
0.00
0.00
0.00
0.03
0.00
0.02
0.02
0.04
0.00
0.03
0.03
0.03
0.00
0.03
0.00
0.00
0.00
0.00
0.00
0.00
0.00
0.01
0.00
0.01
0.02
0.00
0.00
0.00
0.00
0.00
0.00
0.00
0.01
0.00
0.00
0.12
0.00
0.20
0.12
0.36
0.03
0.02
0.04
0.09
0.04
0.04
0.04
0.04
0.04
0.04
0.11
0.00
0.36
0.84
0.56
0.63
0.60
0.58
0.57
0.04
0.06
0.02
0.01
0.02
0.02
0.00
0.02
0.02
0.00
0.02
0.00
0.02
0.02
0.00
0.02
0.00
0.00
0.00
0.00
0.01
0.02
0.02
0.02
0.04
0.04
0.06
0.06
0.09
0.09
0.06
0.04
0.02
0.02
0.00
0.01
0.00
0.00
0.03
0.00
0.00
0.00
0.00
0.00
0.00
0.02
0.00
0.00
0.01
0.00
0.01
0.00
0.01
0.00
0.02
0.02
0.02
0.01
0.01
0.01
0.02
0.04
0.04
0.06
0.04
0.09
0.06
0.09
0.09
0.09
0.09
0.11
0.12
0.09
0.14
0.06
0.06
0.07
0.01
0.04
0.01
0.07
0.14
0.29
0.38
0.29
0.23
0.20
0.11
0.18
0.12
0.18
0.04
0.02
0.84
0.54
0.74
0.74
0.71
0.58
0.18
0.04
0.04
0.02
0.01
0.00
0.00
0.03
0.03
0.04
0.04
0.04
0.16
0.08
0.12
0.08
0.16
0.08
0.16
0.08
0.04
0.04
0.02
0.00
0.01
0.01
0.02
0.04
0.09
0.07
0.07
0.04
0.04
0.02
0.02
0.00
0.00
0.04
0.04
0.03
0.04
0.03
0.03
0.03
0.04
0.03
0.03
0.04
0.04
0.03
0.12
0.08
0.12
0.08
0.12
0.12
0.08
0.12
0.08
0.08
0.04
0.08
0.04
0.08
0.04
0.08
0.04
0.04
0.08
0.04
0.04
0.03
0.04
0.04
0.04
0.08
0.20
0.08
0.22
0.12
0.45
0.00
0.00
0.01
0.12
0.06
0.06
0.02
0.04
0.04
0.04
0.04
0.14
0.16
0.73
0.02
0.62
0.71
0.64
0.58
0.29
0.02
0.01
0.01
0.02
0.00
0.00
0.00
0.02
0.02
0.02
0.00
0.03
0.02
0.02
0.02
0.00
0.02
0.01
0.01
0.02
0.01
0.07
0.06
0.11
0.12
0.23
0.20
0.23
0.23
0.12
0.11
0.06
0.04
0.02
0.01
0.02
0.02
0.03
0.02
0.03
0.00
0.04
0.04
0.03
0.03
0.04
0.03
0.02
0.04
0.04
0.04
0.02
0.08
0.03
0.08
0.04
0.04
0.03
0.04
0.03
0.02
0.02
0.04
0.02
0.00
0.02
0.02
0.02
0.02
0.03
0.00
0.02
0.00
0.00
0.03
0.00
0.08
0.12
0.08
0.16
0.20
0.33
0.12
0.08
0.00
0.09
0.04
0.02
0.02
0.01
0.02
0.01
0.01
0.12
0.16
0.36
0.84
0.58
0.64
0.57
0.57
0.53
0.02
0.07
0.04
0.02
0.01
0.02
0.01
0.01
0.02
0.02
0.01
0.01
0.02
0.01
0.01
0.01
0.04
0.04
0.06
0.09
0.14
0.14
0.23
0.29
0.35
0.35
0.36
0.36
0.36
0.29
0.23
0.18
0.07
0.06
0.04
0.02
0.01
0.02
0.00
0.01
0.02
0.01
0.01
0.01
0.01
0.00
0.02
0.02
0.01
0.00
0.01
0.01
0.01
0.01
0.02
0.01
0.01
0.01
0.02
0.01
0.01
0.02
0.02
0.02
0.01
0.01
0.01
0.01
0.02
0.02
0.01
0.02
0.01
0.02
0.02
0.01
0.02
0.02
0.00
0.02
0.00
0.03
0.12
0.20
0.02
0.01
0.11
0.18
0.07
0.09
0.11
0.11
0.09
0.09
0.25
0.02
0.00
0.84
0.56
0.62
0.61
0.60
0.58
0.20
0.11
0.09
0.04
0.06
0.02
0.02
0.01
0.01
0.02
0.01
0.01
0.01
0.01
0.01
0.01
0.02
0.04
0.04
0.04
0.06
0.07
0.07
0.12
0.11
0.14
0.14
0.18
0.14
0.18
0.14
0.14
0.11
0.09
0.07
0.04
0.04
0.01
0.02
0.02
0.01
0.02
0.01
0.01
0.02
0.01
0.01
0.01
0.01
0.02
0.01
0.02
0.01
0.01
0.01
0.02
0.01
0.01
0.01
0.01
0.01
0.02
0.01
0.01
0.01
0.02
0.01
0.01
0.01
0.02
0.02
0.01
0.02
0.02
0.02
0.02
0.01
0.01
0.00
0.08
0.08
0.08
0.33
0.02
0.02
0.02
0.11
0.09
0.06
0.04
0.02
0.02
0.04
0.01
0.11
0.26
0.64
0.71
0.62
0.82
0.62
0.57
0.48
0.04
0.04
0.02
0.01
0.02
0.02
0.01
0.02
0.02
0.01
0.00
0.00
0.00
0.02
0.02
0.02
0.03
0.02
0.02
0.00
0.00
0.02
0.01
0.04
0.04
0.09
0.11
0.14
0.18
0.20
0.12
0.12
0.07
0.04
0.04
0.02
0.01
0.02
0.02
0.02
0.01
0.01
0.02
0.02
0.02
0.01
0.01
0.02
0.00
0.01
0.00
0.01
0.00
0.02
0.00
0.02
0.00
0.02
0.02
0.01
0.01
0.01
0.02
0.01
0.00
0.00
0.00
0.00
0.00
0.00
0.00
0.00
0.01
0.02
0.00
0.01
0.00
0.00
0.12
0.00
0.16
0.20
0.20
0.00
0.01
0.11
0.14
0.09
0.06
0.04
0.04
0.04
0.04
0.07
0.01
0.03
0.87
0.58
0.74
0.61
0.65
0.56
0.07
0.04
0.02
0.04
0.01
0.01
0.02
0.01
0.00
0.01
0.00
0.00
0.00
0.03
0.00
0.00
0.00
0.00
0.01
0.00
0.01
0.02
0.06
0.09
0.14
0.20
0.23
0.25
0.23
0.29
0.20
0.18
0.11
0.07
0.01
0.01
0.00
0.01
0.02
0.00
0.02
0.00
0.00
0.02
0.00
0.03
0.00
0.03
0.02
0.03
0.00
0.02
0.03
0.03
0.02
0.02
0.02
0.00
0.02
0.00
0.03
0.00
0.00
0.01
0.00
0.00
0.00
0.00
0.00
0.01
0.01
0.00
0.02
0.00
0.02
0.00
0.02
0.00
0.02
0.04
0.04
0.20
0.16
0.46
0.02
0.03
0.01
0.12
0.04
0.04
0.01
0.02
0.01
0.01
0.01
0.12
0.16
0.71
0.66
0.60
0.74
0.61
0.57
0.46
0.04
0.06
0.04
0.02
0.01
0.01
0.02
0.01
0.02
0.01
0.02
0.01
0.01
0.02
0.01
0.02
0.04
0.07
0.07
0.11
0.14
0.20
0.29
0.36
0.38
0.40
0.42
0.38
0.40
0.35
0.29
0.20
0.12
0.06
0.02
0.02
0.02
0.01
0.02
0.02
0.02
0.01
0.02
0.01
0.01
0.02
0.01
0.00
0.00
0.01
0.01
0.00
0.00
0.00
0.00
0.00
0.01
0.02
0.00
0.00
0.00
0.00
0.02
0.00
0.00
0.00
0.02
0.02
0.02
0.00
0.00
0.02
0.00
0.01
0.02
0.01
0.00
0.00
0.03
0.08
0.08
0.04
0.30
0.04
0.01
0.01
0.14
0.09
0.07
0.04
0.04
0.06
0.07
0.09
0.25
0.01
0.56
0.67
0.57
0.62
0.61
0.58
0.46
0.07
0.07
0.06
0.04
0.04
0.01
0.02
0.02
0.01
0.01
0.01
0.02
0.02
0.02
0.01
0.01
0.02
0.04
0.04
0.06
0.09
0.11
0.12
0.14
0.23
0.23
0.23
0.23
0.23
0.18
0.12
0.07
0.07
0.04
0.02
0.01
0.01
0.01
0.02
0.01
0.01
0.01
0.02
0.02
0.02
0.01
0.02
0.01
0.02
0.01
0.01
0.01
0.02
0.01
0.02
0.01
0.01
0.01
0.02
0.02
0.02
0.01
0.01
0.00
0.01
0.01
0.01
0.02
0.01
0.01
0.00
0.01
0.00
0.01
0.08
0.12
0.08
0.20
0.22
0.26
0.04
0.00
0.06
0.07
0.04
0.02
0.02
0.02
0.01
0.01
0.11
0.16
0.33
0.85
0.58
0.76
0.61
0.60
0.54
0.01
0.01
0.01
0.00
0.00
0.02
0.02
0.04
0.03
0.04
0.03
0.08
0.03
0.04
0.04
0.08
0.08
0.03
0.04
0.03
0.03
0.00
0.00
0.01
0.02
0.06
0.06
0.11
0.11
0.11
0.09
0.09
0.04
0.01
0.01
0.00
0.02
0.03
0.00
0.04
0.02
0.03
0.03
0.04
0.03
0.02
0.02
0.03
0.02
0.00
0.03
0.00
0.00
0.00
0.03
0.00
0.02
0.00
0.00
0.00
0.00
0.00
0.00
0.00
0.00
0.00
0.00
0.00
0.02
0.02
0.01
0.02
0.00
0.02
0.00
0.02
0.02
0.08
0.08
0.12
0.20
0.36
0.08
0.04
0.00
0.12
0.06
0.04
0.01
0.02
0.02
0.02
0.04
0.09
0.22
0.50
0.80
0.59
0.82
0.61
0.58
0.50
0.04
0.02
0.01
0.02
0.01
0.01
0.00
0.01
0.00
0.00
0.02
0.01
0.00
0.01
0.02
0.00
0.00
0.00
0.00
0.00
0.01
0.01
0.04
0.06
0.09
0.11
0.18
0.12
0.14
0.12
0.12
0.04
0.04
0.01
0.02
0.01
0.02
0.00
0.02
0.00
0.00
0.01
0.02
0.00
0.02
0.00
0.00
0.00
0.00
0.00
0.00
0.02
0.00
0.02
0.00
0.00
0.00
0.02
0.01
0.00
0.01
0.01
0.02
0.02
0.02
0.02
0.01
0.02
0.02
0.01
0.02
0.01
0.01
0.01
0.02
0.01
0.00
0.00
0.02
0.04
0.02
0.33
0.00
0.00
0.04
0.18
0.09
0.06
0.06
0.02
0.06
0.04
0.07
0.11
0.02
0.82
0.46
0.62
0.64
0.70
0.58
0.12
0.07
0.06
0.04
0.04
0.02
0.01
0.02
0.01
0.01
0.02
0.01
0.01
0.02
0.02
0.01
0.02
0.04
0.07
0.11
0.11
0.18
0.20
0.35
0.32
0.40
0.40
0.42
0.36
0.38
0.29
0.20
0.14
0.11
0.04
0.01
0.01
0.02
0.01
0.01
0.02
0.01
0.01
0.00
0.02
0.00
0.02
0.01
0.01
0.02
0.02
0.01
0.02
0.01
0.01
0.01
0.01
0.02
0.02
0.02
0.01
0.02
0.01
0.02
0.01
0.04
0.02
0.01
0.01
0.01
0.01
0.01
0.02
0.01
0.01
0.01
0.01
0.00
0.00
0.01
0.02
0.02
0.26
0.01
0.02
0.11
0.18
0.11
0.07
0.09
0.06
0.11
0.07
0.14
0.02
0.01
0.84
0.53
0.61
0.58
0.60
0.58
0.07
0.14
0.07
0.04
0.04
0.01
0.02
0.01
0.04
0.01
0.01
0.01
0.02
0.04
0.02
0.02
0.04
0.07
0.06
0.11
0.11
0.18
0.14
0.23
0.23
0.20
0.25
0.20
0.18
0.14
0.11
0.04
0.06
0.02
0.01
0.01
0.01
0.00
0.01
0.00
0.00
0.00
0.00
0.00
0.01
0.00
0.00
0.00
0.01
0.02
0.00
0.00
0.01
0.01
0.01
0.02
0.02
0.01
0.02
0.02
0.01
0.01
0.01
0.01
0.02
0.01
0.02
0.01
0.01
0.00
0.01
0.00
0.02
0.00
0.03
0.08
0.04
0.26
0.12
0.41
0.04
0.00
0.01
0.11
0.02
0.02
0.01
0.01
0.01
0.01
0.02
0.00
0.22
0.85
0.51
0.64
0.62
0.62
0.56
0.02
0.01
0.01
0.00
0.03
0.00
0.12
0.08
0.08
0.16
0.16
0.20
0.16
0.22
0.20
0.22
0.20
0.22
0.20
0.20
0.16
0.12
0.08
0.00
0.00
0.01
0.01
0.04
0.02
0.07
0.04
0.04
0.01
0.01
0.00
0.02
0.04
0.08
0.08
0.16
0.12
0.08
0.08
0.16
0.08
0.16
0.12
0.16
0.12
0.20
0.16
0.20
0.16
0.16
0.20
0.12
0.20
0.16
0.20
0.16
0.16
0.20
0.12
0.12
0.20
0.20
0.12
0.12
0.12
0.12
0.08
0.12
0.04
0.08
0.03
0.08
0.03
0.03
0.04
0.16
0.16
0.04
0.26
0.16
0.45
0.03
0.03
0.04
0.06
0.04
0.01
0.02
0.00
0.01
0.00
0.01
0.04
0.22
0.88
0.58
0.72
0.60
0.62
0.52
0.01
0.00
0.00
0.03
0.03
0.08
0.08
0.08
0.12
0.12
0.08
0.08
0.12
0.08
0.16
0.04
0.08
0.03
0.08
0.00
0.02
0.01
0.01
0.04
0.07
0.09
0.11
0.14
0.14
0.12
0.12
0.09
0.04
0.01
0.02
0.00
0.00
0.03
0.02
0.04
0.04
0.02
0.02
0.00
0.04
0.02
0.02
0.02
0.04
0.00
0.04
0.03
0.04
0.03
0.04
0.03
0.04
0.04
0.04
0.08
0.03
0.12
0.04
0.08
0.04
0.16
0.08
0.08
0.08
0.16
0.08
0.08
0.08
0.08
0.08
0.03
0.04
0.02
0.04
0.08
0.20
0.04
0.16
0.36
0.12
0.02
0.00
0.11
0.06
0.04
0.01
0.01
0.02
0.01
0.02
0.12
0.12
0.41
0.84
0.58
0.67
0.58
0.57
0.50
0.01
0.02
0.01
0.01
0.01
0.01
0.01
0.00
0.00
0.01
0.01
0.01
0.00
0.01
0.01
0.01
0.01
0.04
0.06
0.04
0.09
0.11
0.20
0.23
0.32
0.32
0.32
0.25
0.29
0.20
0.18
0.12
0.07
0.04
0.01
0.02
0.01
0.01
0.00
0.02
0.00
0.02
0.02
0.01
0.01
0.02
0.01
0.02
0.01
0.02
0.01
0.01
0.01
0.02
0.01
0.02
0.02
0.04
0.01
0.01
0.01
0.02
0.01
0.04
0.02
0.01
0.01
0.01
0.01
0.04
0.01
0.02
0.04
0.01
0.04
0.01
0.01
0.03
0.01
0.03
0.02
0.26
0.01
0.02
0.04
0.18
0.11
0.11
0.04
0.06
0.07
0.07
0.07
0.12
0.02
0.71
0.02
0.61
0.62
0.61
0.58
0.42
0.07
0.02
0.04
0.01
0.02
0.01
0.01
0.00
0.01
0.00
0.00
0.00
0.00
0.02
0.00
0.01
0.00
0.02
0.02
0.01
0.01
0.04
0.02
0.04
0.06
0.07
0.07
0.12
0.12
0.11
0.11
0.07
0.07
0.04
0.04
0.01
0.02
0.00
0.01
0.02
0.01
0.01
0.01
0.02
0.00
0.02
0.01
0.01
0.01
0.01
0.02
0.01
0.01
0.01
0.02
0.01
0.02
0.01
0.01
0.01
0.02
0.02
0.01
0.01
0.01
0.01
0.01
0.01
0.01
0.01
0.02
0.01
0.01
0.01
0.01
0.02
0.00
0.01
0.04
0.00
0.26
0.02
0.01
0.01
0.20
0.12
0.11
0.06
0.06
0.07
0.09
0.06
0.23
0.12
0.70
0.33
0.65
0.85
0.71
0.57
0.46
0.11
0.07
0.07
0.04
0.06
0.01
0.04
0.01
0.01
0.01
0.02
0.01
0.00
0.00
0.00
0.01
0.00
0.02
0.00
0.02
0.01
0.02
0.04
0.09
0.11
0.18
0.14
0.20
0.25
0.23
0.23
0.14
0.12
0.06
0.04
0.01
0.01
0.02
0.01
0.01
0.01
0.01
0.01
0.01
0.01
0.01
0.01
0.01
0.02
0.01
0.02
0.01
0.02
0.01
0.02
0.02
0.01
0.01
0.02
0.01
0.01
0.01
0.02
0.01
0.04
0.01
0.04
0.01
0.02
0.02
0.01
0.04
0.02
0.04
0.02
0.01
0.02
0.00
0.02
0.22
0.01
0.01
0.07
0.29
0.14
0.12
0.07
0.04
0.09
0.04
0.07
0.12
0.08
0.71
0.26
0.62
0.75
0.65
0.58
0.35
0.04
0.04
0.02
0.01
0.01
0.01
0.01
0.01
0.01
0.02
0.02
0.02
0.01
0.01
0.01
0.01
0.02
0.01
0.04
0.01
0.04
0.04
0.12
0.12
0.20
0.23
0.23
0.25
0.23
0.23
0.14
0.12
0.04
0.04
0.01
0.01
0.02
0.00
0.02
0.02
0.00
0.00
0.02
0.02
0.00
0.02
0.02
0.02
0.02
0.03
0.02
0.04
0.00
0.02
0.00
0.00
0.00
0.00
0.00
0.01
0.00
0.00
0.00
0.02
0.01
0.02
0.00
0.02
0.02
0.02
0.01
0.02
0.01
0.01
0.02
0.02
0.02
0.02
0.01
0.16
0.01
0.02
0.12
0.25
0.11
0.09
0.04
0.06
0.06
0.07
0.07
0.02
0.01
0.86
0.51
0.61
0.58
0.61
0.57
0.04
0.11
0.04
0.04
0.01
0.02
0.01
0.01
0.01
0.01
0.02
0.01
0.01
0.01
0.01
0.01
0.02
0.02
0.04
0.07
0.09
0.14
0.20
0.29
0.25
0.32
0.35
0.36
0.29
0.35
0.20
0.14
0.09
0.07
0.02
0.01
0.02
0.01
0.01
0.02
0.02
0.01
0.02
0.00
0.01
0.01
0.01
0.02
0.01
0.02
0.00
0.02
0.02
0.00
0.03
0.00
0.02
0.03
0.03
0.00
0.04
0.00
0.00
0.00
0.03
0.00
0.01
0.00
0.00
0.02
0.01
0.02
0.02
0.03
0.12
0.03
0.38
0.02
0.03
0.01
0.07
0.04
0.02
0.02
0.01
0.02
0.01
0.04
0.04
0.04
0.78
0.11
0.60
0.59
0.59
0.57
0.14
0.01
0.01
0.01
0.00
0.02
0.02
0.03
0.04
0.08
0.04
0.08
0.08
0.04
0.08
0.04
0.08
0.03
0.02
0.01
0.00
0.01
0.02
0.04
0.04
0.06
0.06
0.07
0.07
0.09
0.07
0.04
0.04
0.01
0.02
0.00
0.00
0.04
0.04
0.04
0.03
0.04
0.04
0.02
0.04
0.02
0.04
0.00
0.12
0.02
0.04
0.03
0.08
0.04
0.02
0.12
0.03
0.03
0.03
0.08
0.04
0.08
0.03
0.08
0.02
0.04
0.04
0.04
0.04
0.04
0.22
0.16
0.20
0.22
0.45
0.33
0.20
0.08
0.02
0.04
0.01
0.01
0.01
0.01
0.01
0.02
0.02
0.04
0.26
0.87
0.56
0.73
0.64
0.62
0.57
0.04
0.02
0.02
0.00
0.02
0.04
0.04
0.12
0.08
0.16
0.12
0.16
0.20
0.22
0.12
0.20
0.16
0.16
0.20
0.12
0.08
0.03
0.02
0.00
0.01
0.02
0.02
0.04
0.04
0.06
0.06
0.01
0.01
0.00
0.02
0.04
0.03
0.12
0.12
0.12
0.08
0.08
0.08
0.08
0.12
0.12
0.12
0.08
0.12
0.08
0.08
0.08
0.12
0.08
0.04
0.03
0.08
0.08
0.03
0.04
0.04
0.04
0.02
0.08
0.03
0.04
0.04
0.04
0.02
0.08
0.20
0.20
0.20
0.33
0.46
0.30
0.20
0.04
0.01
0.04
0.02
0.01
0.02
0.01
0.01
0.02
0.06
0.04
0.12
0.87
0.57
0.72
0.61
0.62
0.56
0.06
0.09
0.04
0.04
0.04
0.04
0.04
0.04
0.01
0.01
0.02
0.01
0.04
0.01
0.02
0.01
0.02
0.02
0.02
0.02
0.04
0.06
0.09
0.12
0.20
0.25
0.20
0.25
0.23
0.20
0.12
0.09
0.04
0.02
0.01
0.00
0.00
0.03
0.02
0.02
0.02
0.02
0.02
0.03
0.02
0.03
0.02
0.04
0.03
0.08
0.08
0.04
0.04
0.03
0.03
0.03
0.02
0.00
0.03
0.00
0.03
0.00
0.02
0.00
0.01
0.01
0.00
0.01
0.00
0.02
0.03
0.00
0.04
0.08
0.38
0.04
0.00
0.02
0.20
0.12
0.09
0.04
0.04
0.09
0.06
0.09
0.29
0.02
0.38
0.74
0.58
0.70
0.61
0.57
0.50
0.07
0.09
0.09
0.06
0.04
0.06
0.04
0.04
0.02
0.04
0.04
0.04
0.02
0.06
0.04
0.04
0.09
0.11
0.12
0.18
0.25
0.32
0.38
0.40
0.46
0.42
0.44
0.42
0.42
0.32
0.29
0.18
0.11
0.07
0.04
0.04
0.01
0.02
0.01
0.01
0.01
0.02
0.01
0.01
0.02
0.02
0.01
0.01
0.01
0.01
0.01
0.02
0.01
0.02
0.01
0.01
0.02
0.02
0.02
0.01
0.04
0.02
0.04
0.02
0.02
0.01
0.02
0.00
0.01
0.03
0.04
0.33
0.04
0.01
0.01
0.12
0.11
0.12
0.06
0.09
0.06
0.09
0.11
0.18
0.01
0.67
0.16
0.58
0.60
0.61
0.58
0.40
0.18
0.06
0.07
0.04
0.04
0.04
0.04
0.02
0.02
0.04
0.01
0.04
0.02
0.02
0.01
0.06
0.04
0.09
0.09
0.12
0.12
0.20
0.25
0.25
0.32
0.32
0.29
0.25
0.23
0.14
0.11
0.06
0.04
0.02
0.01
0.02
0.01
0.02
0.01
0.01
0.02
0.01
0.01
0.02
0.02
0.01
0.00
0.02
0.01
0.02
0.00
0.02
0.00
0.00
0.01
0.01
0.02
0.02
0.00
0.00
0.02
0.00
0.01
0.00
0.01
0.02
0.08
0.04
0.20
0.20
0.48
0.30
0.16
0.00
0.04
0.02
0.01
0.02
0.02
0.04
0.02
0.04
0.12
0.16
0.70
0.59
0.61
0.74
0.64
0.58
0.46
0.02
0.02
0.01
0.01
0.00
0.02
0.00
0.00
0.00
0.02
0.02
0.03
0.04
0.04
0.04
0.12
0.08
0.04
0.04
0.08
0.00
0.00
0.01
0.01
0.04
0.06
0.06
0.07
0.11
0.09
0.04
0.04
0.01
0.01
0.02
0.00
0.04
0.03
0.03
0.02
0.03
0.02
0.03
0.03
0.02
0.03
0.02
0.03
0.03
0.04
0.00
0.08
0.03
0.04
0.02
0.04
0.02
0.02
0.03
0.00
0.03
0.02
0.04
0.02
0.04
0.00
0.04
0.02
0.12
0.12
0.08
0.22
0.33
0.45
0.16
0.04
0.02
0.04
0.04
0.01
0.01
0.01
0.02
0.02
0.02
0.01
0.26
0.86
0.50
0.69
0.71
0.70
0.56
0.12
0.02
0.02
0.02
0.02
0.00
0.00
0.00
0.01
0.02
0.00
0.00
0.00
0.03
0.00
0.00
0.03
0.00
0.00
0.02
0.01
0.02
0.04
0.09
0.11
0.14
0.18
0.18
0.20
0.18
0.12
0.04
0.04
0.01
0.01
0.00
0.00
0.03
0.00
0.02
0.00
0.02
0.00
0.02
0.00
0.02
0.03
0.02
0.04
0.03
0.08
0.03
0.12
0.08
0.12
0.04
0.12
0.04
0.08
0.04
0.08
0.08
0.03
0.04
0.04
0.03
0.03
0.04
0.00
0.04
0.02
0.08
0.20
0.08
0.26
0.22
0.50
0.20
0.08
0.01
0.07
0.07
0.04
0.04
0.01
0.04
0.01
0.04
0.11
0.22
0.64
0.73
0.61
0.78
0.62
0.58
0.44
0.02
0.02
0.01
0.01
0.00
0.00
0.00
0.00
0.03
0.00
0.03
0.02
0.03
0.00
0.02
0.00
0.00
0.00
0.01
0.01
0.04
0.07
0.14
0.18
0.25
0.32
0.32
0.29
0.25
0.20
0.14
0.09
0.04
0.04
0.02
0.02
0.01
0.01
0.01
0.01
0.01
0.01
0.01
0.01
0.01
0.01
0.01
0.01
0.02
0.01
0.01
0.02
0.02
0.00
0.01
0.02
0.02
0.01
0.01
0.02
0.00
0.02
0.02
0.01
0.00
0.02
0.00
0.02
0.00
0.01
0.00
0.00
0.03
0.04
0.00
0.16
0.26
0.36
0.12
0.03
0.04
0.04
0.06
0.04
0.06
0.04
0.04
0.04
0.09
0.04
0.02
0.80
0.29
0.60
0.61
0.62
0.58
0.29
0.09
0.09
0.07
0.04
0.02
0.04
0.01
0.01
0.01
0.01
0.01
0.01
0.01
0.01
0.04
0.01
0.04
0.04
0.09
0.09
0.14
0.12
0.18
0.25
0.25
0.32
0.29
0.23
0.18
0.18
0.09
0.06
0.02
0.02
0.02
0.02
0.01
0.02
0.02
0.02
0.01
0.00
0.00
0.02
0.01
0.00
0.01
0.00
0.01
0.00
0.01
0.02
0.00
0.01
0.01
0.01
0.00
0.02
0.01
0.01
0.02
0.02
0.02
0.01
0.02
0.02
0.01
0.00
0.01
0.01
0.00
0.16
0.02
0.22
0.12
0.50
0.22
0.12
0.03
0.02
0.04
0.04
0.01
0.01
0.04
0.04
0.02
0.14
0.22
0.41
0.84
0.58
0.72
0.62
0.58
0.57
0.04
0.04
0.04
0.01
0.01
0.01
0.02
0.00
0.00
0.02
0.00
0.02
0.03
0.02
0.08
0.04
0.08
0.08
0.08
0.08
0.02
0.00
0.00
0.01
0.01
0.04
0.04
0.06
0.06
0.04
0.02
0.01
0.01
0.00
0.00
0.03
0.04
0.16
0.12
0.12
0.08
0.08
0.04
0.12
0.12
0.08
0.08
0.08
0.08
0.03
0.08
0.02
0.04
0.00
0.04
0.03
0.03
0.02
0.02
0.02
0.00
0.02
0.00
0.00
0.00
0.02
0.02
0.00
0.00
0.00
0.00
0.00
0.00
0.00
0.01
0.00
0.04
0.08
0.02
0.20
0.30
0.38
0.12
0.03
0.01
0.09
0.04
0.04
0.01
0.04
0.02
0.02
0.04
0.02
0.16
0.85
0.48
0.70
0.72
0.71
0.58
0.14
0.07
0.06
0.04
0.02
0.01
0.02
0.01
0.02
0.01
0.02
0.00
0.02
0.01
0.01
0.00
0.02
0.01
0.02
0.01
0.02
0.02
0.06
0.11
0.14
0.20
0.20
0.29
0.23
0.25
0.20
0.18
0.07
0.04
0.02
0.02
0.01
0.00
0.01
0.00
0.02
0.00
0.01
0.02
0.01
0.00
0.00
0.02
0.00
0.00
0.02
0.00
0.00
0.00
0.03
0.01
0.00
0.01
0.02
0.01
0.01
0.00
0.02
0.02
0.01
0.01
0.02
0.02
0.02
0.02
0.01
0.01
0.01
0.01
0.01
0.00
0.03
0.01
0.04
0.08
0.41
0.04
0.00
0.04
0.11
0.14
0.04
0.06
0.04
0.06
0.04
0.07
0.20
0.16
0.70
0.46
0.62
0.77
0.64
0.57
0.46
0.07
0.11
0.07
0.07
0.02
0.04
0.04
0.01
0.01
0.01
0.02
0.01
0.01
0.01
0.01
0.01
0.02
0.01
0.04
0.04
0.09
0.12
0.18
0.29
0.32
0.38
0.36
0.42
0.36
0.35
0.23
0.20
0.11
0.04
0.06
0.04
0.02
0.01
0.02
0.01
0.01
0.01
0.04
0.01
0.02
0.01
0.01
0.01
0.01
0.01
0.01
0.01
0.01
0.04
0.02
0.04
0.02
0.04
0.02
0.02
0.02
0.02
0.04
0.04
0.04
0.01
0.04
0.04
0.04
0.04
0.04
0.04
0.04
0.04
0.01
0.01
0.01
0.01
0.03
0.26
0.03
0.01
0.04
0.20
0.14
0.12
0.12
0.11
0.12
0.12
0.20
0.35
0.01
0.45
0.71
0.59
0.67
0.62
0.57
0.53
0.12
0.23
0.12
0.18
0.11
0.11
0.06
0.12
0.07
0.11
0.09
0.09
0.11
0.11
0.11
0.12
0.14
0.11
0.18
0.23
0.29
0.29
0.40
0.36
0.40
0.38
0.42
0.38
0.35
0.29
0.20
0.12
0.09
0.07
0.02
0.04
0.01
0.01
0.01
0.02
0.02
0.01
0.01
0.02
0.01
0.01
0.01
0.01
0.01
0.01
0.02
0.02
0.02
0.02
0.04
0.04
0.04
0.04
0.02
0.04
0.02
0.04
0.01
0.04
0.02
0.04
0.04
0.02
0.02
0.04
0.04
0.01
0.04
0.04
0.02
0.01
0.02
0.03
0.01
0.08
0.04
0.36
0.08
0.04
0.01
0.07
0.06
0.06
0.04
0.04
0.06
0.06
0.07
0.09
0.08
0.76
0.14
0.61
0.62
0.62
0.58
0.42
0.11
0.06
0.06
0.04
0.04
0.01
0.04
0.01
0.01
0.02
0.01
0.01
0.01
0.00
0.00
0.02
0.01
0.01
0.02
0.01
0.02
0.02
0.02
0.06
0.06
0.09
0.07
0.09
0.12
0.09
0.07
0.06
0.04
0.01
0.01
0.01
0.01
0.00
0.01
0.00
0.00
0.00
0.01
0.01
0.00
0.00
0.00
0.00
0.00
0.01
0.00
0.00
0.00
0.00
0.00
0.00
0.03
0.02
0.02
0.03
0.03
0.04
0.00
0.08
0.03
0.04
0.04
0.03
0.04
0.03
0.03
0.04
0.03
0.02
0.08
0.02
0.03
0.02
0.04
0.02
0.03
0.02
0.03
0.08
0.22
0.16
0.30
0.41
0.45
0.22
0.08
0.01
0.04
0.01
0.02
0.02
0.02
0.01
0.02
0.02
0.02
0.20
0.86
0.49
0.64
0.67
0.67
0.57
0.04
0.01
0.01
0.00
0.00
0.00
0.03
0.04
0.03
0.12
0.12
0.16
0.08
0.20
0.20
0.22
0.20
0.20
0.20
0.16
0.16
0.04
0.03
0.02
0.02
0.04
0.04
0.07
0.09
0.12
0.12
0.07
0.06
0.02
0.02
0.01
0.02
0.02
0.00
0.00
0.01
0.02
0.01
0.00
0.00
0.01
0.00
0.01
0.00
0.00
0.03
0.02
0.02
0.00
0.02
0.00
0.03
0.03
0.02
0.02
0.03
0.03
0.03
0.02
0.04
0.04
0.00
0.03
0.03
0.02
0.02
0.02
0.02
0.03
0.00
0.03
0.03
0.00
0.08
0.03
0.03
0.00
0.08
0.04
0.04
0.03
0.04
0.03
0.03
0.08
0.16
0.12
0.16
0.12
0.46
0.22
0.12
0.04
0.04
0.04
0.01
0.02
0.01
0.01
0.02
0.01
0.09
0.12
0.52
0.81
0.57
0.74
0.60
0.57
0.50
0.02
0.01
0.01
0.02
0.00
0.00
0.02
0.00
0.04
0.02
0.04
0.04
0.04
0.02
0.04
0.02
0.02
0.00
0.00
0.00
0.01
0.01
0.04
0.07
0.14
0.12
0.20
0.18
0.23
0.20
0.18
0.14
0.04
0.02
0.02
0.01
0.02
0.00
0.02
0.02
0.02
0.00
0.00
0.02
0.00
0.03
0.00
0.03
0.02
0.02
0.00
0.03
0.00
0.02
0.00
0.00
0.00
0.00
0.02
0.00
0.02
0.00
0.02
0.01
0.02
0.01
0.00
0.02
0.00
0.00
0.02
0.02
0.01
0.01
0.02
0.00
0.01
0.01
0.01
0.00
0.01
0.01
0.00
0.02
0.02
0.04
0.26
0.16
0.04
0.00
0.04
0.06
0.04
0.04
0.02
0.04
0.04
0.06
0.20
0.00
0.30
0.85
0.56
0.61
0.58
0.57
0.55
0.04
0.12
0.04
0.06
0.02
0.02
0.01
0.01
0.02
0.01
0.02
0.01
0.01
0.01
0.01
0.02
0.04
0.02
0.07
0.06
0.09
0.12
0.23
0.18
0.29
0.29
0.35
0.32
0.29
0.29
0.18
0.18
0.06
0.06
0.01
0.01
0.01
0.00
0.00
0.01
0.01
0.00
0.00
0.00
0.00
0.00
0.02
0.01
0.01
0.01
0.00
0.01
0.02
0.02
0.01
0.01
0.01
0.01
0.02
0.01
0.01
0.02
0.01
0.01
0.01
0.01
0.02
0.01
0.02
0.01
0.01
0.02
0.01
0.01
0.02
0.01
0.01
0.01
0.00
0.08
0.02
0.20
0.04
0.33
0.08
0.03
0.02
0.09
0.06
0.04
0.04
0.06
0.04
0.06
0.06
0.04
0.03
0.79
0.40
0.62
0.62
0.62
0.58
0.14
0.07
0.04
0.04
0.02
0.01
0.02
0.01
0.01
0.01
0.00
0.00
0.00
0.02
0.02
0.03
0.02
0.04
0.03
0.04
0.00
0.03
0.00
0.02
0.02
0.04
0.06
0.09
0.11
0.14
0.14
0.14
0.09
0.07
0.04
0.02
0.01
0.02
0.01
0.00
0.02
0.00
0.00
0.00
0.00
0.00
0.01
0.00
0.00
0.00
0.01
0.01
0.01
0.01
0.01
0.01
0.01
0.01
0.02
0.01
0.02
0.01
0.02
0.01
0.01
0.02
0.00
0.01
0.01
0.01
0.02
0.02
0.02
0.01
0.02
0.01
0.02
0.01
0.02
0.12
0.00
0.08
0.04
0.45
0.04
0.04
0.00
0.06
0.06
0.04
0.01
0.01
0.02
0.02
0.02
0.12
0.22
0.70
0.63
0.61
0.77
0.62
0.58
0.40
0.06
0.04
0.04
0.02
0.01
0.01
0.01
0.00
0.01
0.00
0.00
0.03
0.02
0.00
0.03
0.03
0.02
0.02
0.00
0.01
0.01
0.01
0.04
0.07
0.09
0.18
0.14
0.20
0.20
0.20
0.14
0.12
0.07
0.02
0.02
0.00
0.01
0.02
0.01
0.00
0.01
0.00
0.01
0.00
0.00
0.00
0.00
0.00
0.00
0.00
0.00
0.00
0.00
0.01
0.00
0.00
0.01
0.02
0.00
0.01
0.01
0.01
0.01
0.02
0.01
0.01
0.01
0.02
0.02
0.02
0.01
0.02
0.01
0.01
0.02
0.03
0.03
0.04
0.38
0.16
0.03
0.00
0.09
0.07
0.06
0.04
0.01
0.04
0.02
0.04
0.14
0.04
0.46
0.76
0.58
0.75
0.61
0.57
0.49
0.04
0.04
0.01
0.02
0.01
0.01
0.02
0.02
0.00
0.02
0.02
0.02
0.01
0.02
0.01
0.01
0.01
0.01
0.04
0.04
0.07
0.09
0.20
0.23
0.35
0.40
0.36
0.35
0.40
0.35
0.25
0.20
0.12
0.07
0.02
0.01
0.01
0.01
0.01
0.01
0.01
0.02
0.01
0.01
0.01
0.01
0.01
0.02
0.01
0.00
0.00
0.01
0.01
0.02
0.01
0.00
0.02
0.00
0.01
0.00
0.02
0.01
0.02
0.01
0.01
0.01
0.01
0.01
0.02
0.01
0.02
0.02
0.00
0.04
0.00
0.08
0.22
0.38
0.08
0.02
0.04
0.07
0.11
0.06
0.07
0.04
0.07
0.04
0.11
0.04
0.01
0.81
0.32
0.60
0.58
0.61
0.58
0.23
0.09
0.06
0.04
0.04
0.01
0.04
0.01
0.01
0.01
0.02
0.01
0.01
0.01
0.02
0.02
0.02
0.04
0.04
0.06
0.09
0.14
0.14
0.23
0.29
0.32
0.35
0.23
0.25
0.23
0.18
0.07
0.07
0.02
0.02
0.00
0.02
0.03
0.00
0.00
0.01
0.00
0.00
0.00
0.02
0.00
0.00
0.01
0.00
0.00
0.00
0.02
0.02
0.00
0.00
0.00
0.02
0.00
0.00
0.02
0.02
0.02
0.02
0.03
0.00
0.00
0.00
0.02
0.02
0.00
0.00
0.03
0.16
0.04
0.30
0.30
0.52
0.20
0.16
0.02
0.02
0.02
0.01
0.01
0.02
0.01
0.02
0.01
0.01
0.22
0.81
0.29
0.61
0.61
0.62
0.56
0.06
0.01
0.01
0.00
0.00
0.00
0.03
0.02
0.03
0.00
0.04
0.04
0.08
0.04
0.12
0.03
0.08
0.03
0.04
0.02
0.02
0.00
0.01
0.04
0.04
0.06
0.09
0.11
0.14
0.12
0.12
0.06
0.04
0.01
0.02
0.00
0.02
0.03
0.02
0.03
0.04
0.02
0.04
0.04
0.08
0.03
0.04
0.02
0.03
0.02
0.03
0.02
0.03
0.02
0.03
0.02
0.02
0.02
0.02
0.00
0.02
0.03
0.00
0.03
0.02
0.03
0.00
0.02
0.00
0.02
0.02
0.20
0.12
0.26
0.20
0.56
0.30
0.20
0.04
0.04
0.01
0.02
0.00
0.02
0.02
0.02
0.00
0.09
0.30
0.60
0.81
0.59
0.78
0.61
0.57
0.48
0.02
0.01
0.04
0.02
0.01
0.01
0.02
0.00
0.00
0.00
0.00
0.02
0.02
0.00
0.00
0.00
0.00
0.02
0.02
0.01
0.02
0.09
0.07
0.14
0.20
0.23
0.25
0.25
0.29
0.23
0.20
0.12
0.09
0.02
0.02
0.02
0.01
0.00
0.01
0.00
0.00
0.00
0.01
0.00
0.00
0.00
0.00
0.00
0.00
0.01
0.00
0.00
0.02
0.00
0.00
0.01
0.01
0.01
0.01
0.02
0.02
0.00
0.02
0.01
0.01
0.02
0.01
0.02
0.01
0.01
0.01
0.01
0.01
0.01
0.01
0.00
0.00
0.00
0.03
0.26
0.20
0.02
0.00
0.11
0.09
0.09
0.04
0.02
0.06
0.04
0.04
0.07
0.02
0.00
0.86
0.58
0.70
0.60
0.63
0.57
0.09
0.07
0.07
0.04
0.04
0.01
0.01
0.01
0.01
0.01
0.01
0.01
0.01
0.01
0.01
0.01
0.01
0.02
0.04
0.06
0.09
0.11
0.20
0.23
0.35
0.36
0.38
0.36
0.42
0.38
0.35
0.23
0.18
0.11
0.04
0.04
0.02
0.01
0.02
0.01
0.02
0.01
0.02
0.01
0.01
0.02
0.02
0.02
0.01
0.01
0.01
0.01
0.02
0.02
0.01
0.02
0.01
0.01
0.01
0.02
0.02
0.01
0.02
0.02
0.00
0.01
0.00
0.02
0.01
0.02
0.02
0.01
0.01
0.01
0.02
0.01
0.01
0.01
0.00
0.12
0.01
0.08
0.08
0.36
0.04
0.02
0.04
0.11
0.11
0.09
0.07
0.09
0.09
0.09
0.11
0.14
0.01
0.76
0.01
0.59
0.61
0.62
0.58
0.40
0.18
0.12
0.12
0.06
0.07
0.04
0.04
0.04
0.04
0.02
0.04
0.04
0.04
0.04
0.02
0.04
0.06
0.09
0.09
0.18
0.18
0.25
0.32
0.38
0.35
0.36
0.35
0.36
0.29
0.29
0.25
0.11
0.09
0.06
0.04
0.01
0.01
0.01
0.02
0.01
0.01
0.02
0.01
0.01
0.01
0.02
0.01
0.01
0.02
0.01
0.01
0.02
0.01
0.01
0.01
0.01
0.02
0.01
0.01
0.01
0.01
0.01
0.01
0.01
0.01
0.01
0.02
0.02
0.02
0.01
0.02
0.01
0.01
0.01
0.01
0.02
0.03
0.00
0.08
0.03
0.45
0.22
0.16
0.03
0.06
0.04
0.04
0.02
0.02
0.04
0.04
0.04
0.18
0.08
0.41
0.81
0.57
0.63
0.60
0.57
0.54
0.04
0.06
0.04
0.02
0.01
0.01
0.01
0.02
0.00
0.00
0.00
0.02
0.00
0.02
0.02
0.02
0.00
0.08
0.03
0.04
0.02
0.02
0.00
0.01
0.01
0.01
0.02
0.06
0.04
0.09
0.06
0.04
0.01
0.02
0.00
0.02
0.04
0.08
0.04
0.08
0.08
0.08
0.12
0.12
0.08
0.16
0.08
0.16
0.04
0.08
0.12
0.12
0.12
0.12
0.12
0.08
0.12
0.08
0.12
0.03
0.04
0.03
0.04
0.02
0.04
0.04
0.03
0.03
0.02
0.02
0.02
0.03
0.00
0.04
0.03
0.22
0.08
0.33
0.30
0.56
0.30
0.12
0.02
0.06
0.01
0.04
0.02
0.01
0.02
0.02
0.02
0.12
0.22
0.63
0.78
0.60
0.82
0.61
0.58
0.49
0.04
0.02
0.01
0.02
0.00
0.01
0.01
0.00
0.02
0.00
0.00
0.00
0.03
0.00
0.02
0.00
0.02
0.00
0.00
0.01
0.01
0.01
0.04
0.04
0.09
0.12
0.12
0.11
0.18
0.12
0.09
0.06
0.02
0.02
0.00
0.02
0.04
0.03
0.12
0.03
0.08
0.03
0.04
0.04
0.08
0.08
0.04
0.04
0.08
0.12
0.08
0.12
0.12
0.16
0.08
0.20
0.16
0.16
0.16
0.20
0.12
0.16
0.12
0.12
0.16
0.08
0.12
0.08
0.12
0.04
0.12
0.04
0.04
0.03
0.03
0.03
0.02
0.04
0.02
0.04
0.03
0.22
0.08
0.22
0.22
0.55
0.33
0.16
0.12
0.02
0.01
0.02
0.00
0.01
0.02
0.02
0.00
0.04
0.12
0.12
0.87
0.56
0.70
0.57
0.61
0.54
0.01
0.01
0.01
0.00
0.00
0.00
0.00
0.02
0.02
0.00
0.02
0.04
0.04
0.02
0.04
0.02
0.02
0.00
0.01
0.01
0.02
0.06
0.07
0.11
0.23
0.25
0.32
0.29
0.32
0.29
0.23
0.14
0.11
0.07
0.02
0.02
0.00
0.00
0.00
0.02
0.00
0.00
0.00
0.01
0.00
0.00
0.00
0.00
0.00
0.00
0.00
0.02
0.00
0.04
0.00
0.02
0.00
0.02
0.02
0.02
0.00
0.00
0.00
0.00
0.02
0.01
0.00
0.01
0.00
0.00
0.00
0.02
0.00
0.01
0.00
0.02
0.02
0.08
0.00
0.12
0.20
0.45
0.20
0.08
0.02
0.06
0.09
0.04
0.04
0.04
0.06
0.06
0.09
0.04
0.01
0.78
0.12
0.59
0.59
0.61
0.58
0.20
0.11
0.07
0.07
0.04
0.04
0.04
0.04
0.02
0.02
0.02
0.04
0.02
0.04
0.02
0.04
0.07
0.09
0.09
0.12
0.14
0.20
0.29
0.29
0.36
0.36
0.38
0.32
0.32
0.29
0.25
0.20
0.23
0.06
0.04
0.04
0.04
0.01
0.01
0.02
0.02
0.04
0.01
0.04
0.02
0.04
0.02
0.04
0.01
0.04
0.04
0.02
0.04
0.02
0.04
0.02
0.04
0.02
0.04
0.02
0.04
0.04
0.04
0.02
0.02
0.01
0.02
0.02
0.02
0.04
0.01
0.02
0.01
0.01
0.04
0.01
0.16
0.04
0.45
0.16
0.08
0.00
0.11
0.04
0.06
0.04
0.06
0.04
0.07
0.07
0.29
0.03
0.50
0.71
0.59
0.72
0.62
0.57
0.53
0.07
0.04
0.06
0.04
0.04
0.02
0.02
0.02
0.01
0.02
0.02
0.02
0.01
0.01
0.00
0.00
0.02
0.01
0.02
0.00
0.01
0.01
0.01
0.02
0.06
0.06
0.12
0.11
0.20
0.14
0.18
0.09
0.09
0.04
0.02
0.01
0.02
0.01
0.01
0.01
0.00
0.01
0.02
0.01
0.01
0.02
0.02
0.01
0.01
0.01
0.02
0.02
0.01
0.01
0.02
0.02
0.01
0.01
0.02
0.02
0.01
0.02
0.01
0.01
0.02
0.01
0.02
0.01
0.02
0.01
0.01
0.02
0.02
0.02
0.00
0.00
0.03
0.03
0.16
0.30
0.33
0.08
0.03
0.04
0.11
0.06
0.04
0.02
0.02
0.02
0.04
0.06
0.06
0.08
0.84
0.38
0.64
0.73
0.71
0.58
0.20
0.07
0.06
0.02
0.01
0.01
0.02
0.01
0.02
0.00
0.02
0.00
0.01
0.01
0.01
0.02
0.01
0.02
0.01
0.02
0.04
0.07
0.06
0.18
0.18
0.25
0.32
0.36
0.35
0.36
0.35
0.29
0.23
0.18
0.12
0.09
0.07
0.02
0.04
0.01
0.02
0.02
0.01
0.01
0.01
0.01
0.02
0.01
0.01
0.01
0.01
0.02
0.01
0.02
0.00
0.02
0.01
0.01
0.01
0.00
0.01
0.00
0.02
0.01
0.01
0.01
0.01
0.01
0.02
0.02
0.02
0.02
0.01
0.01
0.02
0.00
0.08
0.00
0.20
0.30
0.38
0.04
0.03
0.06
0.09
0.11
0.04
0.06
0.04
0.06
0.04
0.07
0.04
0.00
0.86
0.55
0.71
0.61
0.64
0.58
0.12
0.07
0.09
0.04
0.02
0.04
0.02
0.01
0.01
0.01
0.02
0.01
0.02
0.01
0.01
0.02
0.02
0.01
0.01
0.04
0.04
0.07
0.09
0.14
0.20
0.25
0.25
0.32
0.32
0.23
0.25
0.12
0.09
0.02
0.01
0.01
0.01
0.00
0.01
0.00
0.00
0.00
0.00
0.00
0.00
0.00
0.00
0.01
0.00
0.02
0.02
0.00
0.00
0.01
0.02
0.00
0.00
0.01
0.01
0.00
0.01
0.00
0.02
0.00
0.01
0.02
0.01
0.01
0.01
0.02
0.01
0.02
0.01
0.01
0.01
0.00
0.02
0.04
0.04
0.38
0.20
0.04
0.01
0.11
0.07
0.11
0.06
0.06
0.07
0.07
0.07
0.23
0.02
0.00
0.84
0.56
0.62
0.58
0.58
0.56
0.12
0.18
0.11
0.11
0.09
0.09
0.09
0.11
0.04
0.04
0.04
0.07
0.04
0.07
0.04
0.09
0.07
0.11
0.18
0.18
0.20
0.20
0.36
0.32
0.36
0.38
0.40
0.36
0.40
0.32
0.32
0.20
0.14
0.11
0.06
0.04
0.02
0.02
0.02
0.02
0.01
0.01
0.01
0.01
0.01
0.02
0.01
0.01
0.01
0.01
0.02
0.02
0.01
0.02
0.01
0.02
0.02
0.01
0.02
0.00
0.02
0.02
0.01
0.01
0.01
0.01
0.02
0.01
0.02
0.01
0.00
0.03
0.02
0.16
0.26
0.41
0.38
0.20
0.02
0.04
0.04
0.02
0.04
0.06
0.06
0.04
0.11
0.07
0.02
0.78
0.09
0.60
0.62
0.62
0.58
0.35
0.06
0.06
0.02
0.01
0.02
0.01
0.00
0.02
0.02
0.00
0.02
0.02
0.02
0.03
0.03
0.04
0.00
0.08
0.03
0.03
0.00
0.00
0.01
0.01
0.04
0.04
0.04
0.06
0.04
0.04
0.01
0.01
0.00
0.00
0.03
0.08
0.16
0.12
0.20
0.16
0.16
0.08
0.16
0.16
0.16
0.16
0.12
0.12
0.08
0.12
0.08
0.12
0.04
0.08
0.04
0.04
0.08
0.04
0.08
0.04
0.04
0.08
0.08
0.03
0.12
0.03
0.12
0.02
0.12
0.04
0.08
0.04
0.12
0.20
0.30
0.20
0.36
0.48
0.52
0.36
0.20
0.00
0.01
0.01
0.01
0.00
0.02
0.01
0.01
0.01
0.12
0.22
0.88
0.58
0.76
0.60
0.61
0.53
0.01
0.01
0.01
0.00
0.02
0.02
0.04
0.03
0.03
0.03
0.12
0.08
0.04
0.08
0.08
0.08
0.04
0.08
0.02
0.03
0.00
0.01
0.01
0.04
0.06
0.06
0.11
0.09
0.12
0.12
0.07
0.04
0.01
0.01
0.00
0.00
0.08
0.02
0.12
0.03
0.04
0.03
0.04
0.04
0.04
0.08
0.04
0.08
0.04
0.08
0.08
0.12
0.08
0.12
0.08
0.12
0.12
0.12
0.08
0.08
0.08
0.04
0.04
0.08
0.08
0.04
0.08
0.04
0.08
0.03
0.12
0.04
0.22
0.20
0.22
0.30
0.55
0.45
0.30
0.16
0.04
0.02
0.04
0.01
0.02
0.01
0.01
0.01
0.06
0.04
0.16
0.87
0.58
0.76
0.59
0.61
0.53
0.04
0.04
0.04
0.01
0.01
0.00
0.01
0.00
0.00
0.00
0.00
0.00
0.00
0.00
0.00
0.01
0.00
0.02
0.02
0.02
0.01
0.04
0.07
0.14
0.14
0.20
0.25
0.20
0.29
0.18
0.20
0.09
0.06
0.01
0.02
0.01
0.00
0.00
0.00
0.03
0.00
0.00
0.00
0.00
0.02
0.00
0.02
0.00
0.03
0.00
0.02
0.00
0.02
0.02
0.00
0.00
0.02
0.00
0.02
0.00
0.00
0.00
0.02
0.00
0.02
0.00
0.02
0.00
0.02
0.01
0.01
0.00
0.08
0.00
0.16
0.08
0.46
0.22
0.16
0.01
0.09
0.07
0.04
0.07
0.07
0.09
0.07
0.11
0.32
0.00
0.60
0.64
0.58
0.64
0.62
0.58
0.48
0.12
0.12
0.09
0.09
0.07
0.06
0.04
0.04
0.04
0.02
0.04
0.01
0.04
0.02
0.04
0.04
0.09
0.07
0.12
0.14
0.20
0.25
0.35
0.38
0.40
0.42
0.36
0.38
0.35
0.29
0.25
0.14
0.07
0.04
0.04
0.02
0.01
0.01
0.01
0.01
0.02
0.02
0.02
0.00
0.01
0.02
0.02
0.02
0.02
0.01
0.02
0.02
0.01
0.02
0.00
0.02
0.02
0.01
0.01
0.02
0.01
0.02
0.01
0.01
0.01
0.00
0.01
0.01
0.00
0.02
0.04
0.03
0.16
0.45
0.38
0.41
0.20
0.01
0.02
0.04
0.01
0.04
0.06
0.07
0.04
0.23
0.01
0.00
0.84
0.56
0.62
0.60
0.60
0.58
0.07
0.12
0.09
0.07
0.06
0.04
0.04
0.02
0.04
0.02
0.01
0.01
0.02
0.01
0.01
0.01
0.01
0.01
0.01
0.04
0.04
0.07
0.07
0.14
0.11
0.18
0.14
0.25
0.18
0.23
0.12
0.11
0.07
0.04
0.04
0.01
0.01
0.01
0.01
0.00
0.02
0.01
0.02
0.02
0.00
0.00
0.00
0.02
0.02
0.00
0.02
0.02
0.04
0.02
0.03
0.02
0.04
0.03
0.08
0.03
0.04
0.04
0.04
0.04
0.08
0.08
0.03
0.04
0.04
0.04
0.16
0.30
0.22
0.36
0.56
0.46
0.33
0.12
0.01
0.01
0.02
0.01
0.02
0.01
0.02
0.02
0.09
0.16
0.59
0.71
0.63
0.86
0.67
0.57
0.42
0.04
0.06
0.02
0.01
0.01
0.02
0.01
0.02
0.01
0.02
0.01
0.02
0.00
0.02
0.00
0.02
0.00
0.01
0.01
0.01
0.02
0.04
0.07
0.09
0.12
0.14
0.23
0.14
0.18
0.12
0.12
0.07
0.04
0.01
0.01
0.00
0.02
0.00
0.02
0.00
0.03
0.00
0.03
0.00
0.02
0.02
0.00
0.02
0.00
0.02
0.00
0.02
0.00
0.03
0.00
0.03
0.02
0.02
0.00
0.00
0.02
0.00
0.02
0.02
0.03
0.02
0.00
0.00
0.02
0.00
0.02
0.00
0.02
0.00
0.00
0.02
0.16
0.08
0.16
0.20
0.46
0.33
0.16
0.03
0.11
0.04
0.06
0.04
0.04
0.07
0.04
0.06
0.12
0.02
0.02
0.86
0.57
0.77
0.61
0.62
0.57
0.07
0.11
0.07
0.07
0.04
0.04
0.01
0.01
0.02
0.01
0.01
0.01
0.02
0.00
0.01
0.01
0.01
0.01
0.02
0.01
0.06
0.07
0.11
0.18
0.25
0.25
0.32
0.29
0.29
0.29
0.23
0.20
0.09
0.09
0.01
0.01
0.02
0.02
0.02
0.00
0.00
0.00
0.00
0.00
0.00
0.00
0.00
0.03
0.02
0.03
0.00
0.02
0.00
0.03
0.02
0.02
0.00
0.00
0.03
0.00
0.02
0.00
0.02
0.00
0.02
0.00
0.00
0.00
0.02
0.00
0.00
0.00
0.00
0.00
0.00
0.00
0.01
0.03
0.12
0.04
0.20
0.26
0.45
0.16
0.08
0.04
0.06
0.04
0.02
0.02
0.01
0.04
0.02
0.04
0.04
0.03
0.84
0.46
0.62
0.62
0.64
0.57
0.09
0.04
0.02
0.02
0.02
0.01
0.02
0.00
0.02
0.00
0.01
0.00
0.00
0.00
0.00
0.01
0.00
0.01
0.01
0.04
0.01
0.04
0.07
0.12
0.14
0.20
0.23
0.23
0.25
0.20
0.20
0.09
0.06
0.02
0.02
0.00
0.02
0.03
0.04
0.04
0.04
0.03
0.03
0.03
0.08
0.03
0.08
0.03
0.04
0.03
0.08
0.03
0.04
0.02
0.08
0.03
0.04
0.04
0.04
0.03
0.03
