0.07
0.52
0.58
0.73
0.47
0.14
0.03
0.02
0.01
0.02
0.02
0.00
0.00
0.02
0.01
0.04
0.02
0.02
0.02
0.03
0.03
0.03
0.07
0.10
0.09
0.14
0.17
0.19
0.22
0.21
0.22
0.21
0.22
0.19
0.11
0.08
0.04
0.02
0.01
0.04
0.04
0.02
0.06
0.04
0.06
0.02
0.04
0.02
0.04
0.04
0.04
0.00
0.06
0.00
0.04
0.06
0.04
0.01
0.02
0.16
0.38
0.70
0.91
0.92
0.94
0.94
0.93
0.91
0.91
0.85
0.89
0.88
0.90
0.85
0.37
0.00
0.52
0.69
0.67
0.69
0.69
0.69
0.70
0.70
0.74
0.77
0.79
0.82
0.86
0.89
0.92
0.93
0.94
0.95
0.95
0.95
0.95
0.94
0.90
0.86
0.76
0.68
0.56
0.33
0.09
0.06
0.02
0.01
0.00
0.01
0.02
0.01
0.02
0.04
0.04
0.02
0.03
0.03
0.04
0.05
0.03
0.04
0.07
0.05
0.07
0.05
0.08
0.08
0.07
0.07
0.10
0.10
0.10
0.10
0.08
0.08
0.09
0.09
0.09
0.09
0.11
0.09
0.09
0.09
0.09
0.11
0.09
0.11
0.09
0.15
0.11
0.09
0.14
0.14
0.15
0.11
0.11
0.09
0.11
0.11
0.09
0.09
0.10
0.04
0.09
0.03
0.08
0.04
0.07
0.05
0.09
0.17
0.17
0.17
0.15
0.14
0.17
0.19
0.19
0.22
0.25
0.37
0.33
0.50
0.25
0.65
0.63
0.25
0.22
0.20
0.17
0.17
0.16
0.16
0.14
0.15
0.15
0.17
0.17
0.16
0.17
0.16
0.19
0.22
0.20
0.25
0.25
0.25
0.28
0.28
0.32
0.32
0.35
0.31
0.31
0.32
0.32
0.28
0.26
0.21
0.19
0.16
0.14
0.09
0.09
0.10
0.08
0.07
0.07
0.07
0.07
0.07
0.05
0.05
0.07
0.09
0.21
0.41
0.76
0.78
0.44
0.37
0.95
1.00
1.00
1.00
1.00
0.95
0.89
0.98
1.00
1.00
0.99
0.79
0.09
0.20
0.24
0.35
0.47
0.52
0.61
0.63
0.68
0.77
0.80
0.83
0.85
0.88
0.90
0.91
0.92
0.92
0.93
0.93
0.93
0.93
0.92
0.91
0.88
0.81
0.63
0.41
0.25
0.19
0.14
0.10
0.07
0.07
0.07
0.05
0.05
0.04
0.03
0.04
0.03
0.03
0.03
0.02
0.02
0.04
0.04
0.02
0.04
0.01
0.00
0.02
0.02
0.02
0.04
0.06
0.07
0.04
0.06
0.07
0.06
0.06
0.07
0.06
0.06
0.06
0.04
0.06
0.06
0.04
0.06
0.07
0.04
0.04
0.04
0.07
0.06
0.06
0.06
0.06
0.04
0.06
0.04
0.06
0.07
0.10
0.25
0.21
0.16
0.46
0.46
0.11
0.11
0.04
0.03
0.02
0.02
0.02
0.04
0.04
0.02
0.07
0.02
0.05
0.84
0.24
0.48
0.32
0.70
0.50
0.10
0.09
0.08
0.07
0.05
0.05
0.04
0.03
0.04
0.03
0.03
0.03
0.03
0.03
0.04
0.07
0.07
0.08
0.09
0.14
0.15
0.16
0.20
0.22
0.21
0.22
0.22
0.22
0.24
0.22
0.19
0.17
0.15
0.09
0.07
0.05
0.03
0.03
0.02
0.02
0.04
0.03
0.02
0.03
0.03
0.04
0.04
0.03
0.03
0.03
0.04
0.03
0.03
0.04
0.02
0.02
0.03
0.04
0.02
0.02
0.02
0.02
0.04
0.00
0.04
0.00
0.02
0.16
0.01
0.02
0.07
0.11
0.09
0.09
0.08
0.08
0.10
0.08
0.10
0.19
0.05
0.33
0.07
0.58
0.58
0.76
0.61
0.25
0.16
0.14
0.11
0.11
0.09
0.09
0.10
0.11
0.09
0.09
0.09
0.14
0.14
0.16
0.15
0.16
0.19
0.22
0.22
0.25
0.30
0.33
0.35
0.35
0.35
0.35
0.31
0.25
0.24
0.19
0.19
0.15
0.09
0.08
0.10
0.08
0.08
0.08
0.10
0.09
0.09
0.07
0.07
0.10
0.10
0.10
0.10
0.09
0.10
0.10
0.08
0.07
0.07
0.07
0.07
0.05
0.07
0.07
0.07
0.07
0.07
0.05
0.02
0.04
0.04
0.04
0.11
0.00
0.02
0.07
0.09
0.10
0.08
0.08
0.08
0.09
0.10
0.09
0.17
0.10
0.21
0.07
0.61
0.44
0.73
0.56
0.28
0.19
0.17
0.15
0.14
0.15
0.17
0.16
0.14
0.15
0.15
0.16
0.11
0.15
0.15
0.19
0.20
0.19
0.21
0.24
0.25
0.25
0.26
0.28
0.31
0.30
0.31
0.25
0.25
0.22
0.19
0.11
0.10
0.07
0.07
0.04
0.02
0.02
0.02
0.02
0.04
0.02
0.02
0.02
0.02
0.02
0.02
0.04
0.03
0.02
0.04
0.02
0.03
0.04
0.02
0.02
0.01
0.04
0.02
0.01
0.02
0.02
0.01
0.01
0.06
0.06
0.02
0.11
0.21
0.43
0.10
0.07
0.01
0.03
0.02
0.04
0.02
0.01
0.04
0.02
0.02
0.05
0.04
0.67
0.02
0.50
0.44
0.65
0.48
0.19
0.04
0.03
0.02
0.04
0.02
0.01
0.01
0.01
0.04
0.01
0.02
0.01
0.02
0.01
0.04
0.02
0.02
0.05
0.05
0.08
0.09
0.14
0.16
0.19
0.19
0.17
0.16
0.11
0.08
0.05
0.02
0.01
0.04
0.06
0.09
0.07
0.10
0.10
0.07
0.07
0.07
0.06
0.06
0.07
0.04
0.09
0.06
0.06
0.04
0.06
0.06
0.07
0.06
0.04
0.07
0.07
0.07
0.04
0.07
0.06
0.07
0.07
0.04
0.07
0.09
0.07
0.10
0.21
0.07
0.21
0.16
0.46
0.16
0.11
0.01
0.03
0.04
0.00
0.00
0.00
0.01
0.01
0.02
0.02
0.09
0.76
0.22
0.65
0.51
0.80
0.44
0.10
0.05
0.05
0.02
0.02
0.04
0.04
0.03
0.04
0.02
0.03
0.04
0.02
0.05
0.05
0.07
0.07
0.09
0.14
0.19
0.20
0.22
0.25
0.26
0.30
0.28
0.26
0.26
0.25
0.20
0.14
0.10
0.07
0.03
0.02
0.01
0.00
0.00
0.00
0.01
0.00
0.02
0.01
0.01
0.04
0.00
0.02
0.00
0.02
0.02
0.04
0.04
0.02
0.04
0.02
0.06
0.02
0.07
0.06
0.04
0.06
0.06
0.06
0.04
0.04
0.04
0.04
0.04
0.00
0.04
0.07
0.10
0.04
0.07
0.21
0.21
0.07
0.07
0.03
0.04
0.05
0.04
0.04
0.02
0.02
0.04
0.07
0.02
0.04
0.76
0.35
0.66
0.44
0.78
0.48
0.11
0.08
0.07
0.04
0.04
0.03
0.04
0.02
0.02
0.02
0.02
0.02
0.03
0.02
0.04
0.04
0.05
0.07
0.10
0.11
0.16
0.19
0.22
0.25
0.26
0.26
0.25
0.24
0.22
0.17
0.09
0.07
0.05
0.02
0.01
0.01
0.00
0.01
0.01
0.02
0.02
0.02
0.01
0.02
0.00
0.02
0.02
0.02
0.01
0.04
0.02
0.02
0.02
0.01
0.02
0.01
0.04
0.02
0.02
0.02
0.02
0.02
0.01
0.02
0.02
0.04
0.04
0.02
0.02
0.02
0.02
0.01
0.06
0.02
0.07
0.11
0.21
0.07
0.07
0.03
0.04
0.03
0.02
0.02
0.02
0.02
0.04
0.05
0.02
0.03
0.70
0.28
0.48
0.30
0.61
0.47
0.11
0.09
0.05
0.05
0.03
0.05
0.05
0.02
0.04
0.03
0.04
0.04
0.05
0.07
0.07
0.08
0.10
0.09
0.16
0.19
0.20
0.22
0.24
0.26
0.26
0.25
0.25
0.24
0.21
0.16
0.11
0.08
0.03
0.03
0.04
0.01
0.00
0.00
0.02
0.00
0.02
0.02
0.00
0.00
0.00
0.02
0.00
0.02
0.00
0.00
0.00
0.00
0.01
0.00
0.01
0.01
0.02
0.01
0.01
0.02
0.00
0.01
0.00
0.01
0.01
0.02
0.02
0.00
0.04
0.10
0.04
0.16
0.10
0.41
0.11
0.10
0.01
0.02
0.02
0.04
0.03
0.04
0.04
0.02
0.05
0.07
0.02
0.66
0.21
0.55
0.38
0.65
0.55
0.16
0.09
0.09
0.10
0.10
0.10
0.08
0.09
0.07
0.07
0.08
0.08
0.08
0.08
0.08
0.08
0.10
0.09
0.14
0.16
0.19
0.22
0.22
0.25
0.26
0.25
0.26
0.22
0.20
0.17
0.09
0.07
0.04
0.04
0.02
0.00
0.04
0.02
0.00
0.00
0.02
0.00
0.02
0.02
0.01
0.01
0.01
0.02
0.04
0.04
0.02
0.04
0.02
0.02
0.01
0.02
0.04
0.04
0.02
0.02
0.02
0.02
0.04
0.04
0.02
0.02
0.02
0.02
0.02
0.04
0.04
0.00
0.06
0.01
0.04
0.30
0.21
0.04
0.06
0.05
0.04
0.04
0.02
0.03
0.02
0.03
0.02
0.08
0.04
0.02
0.78
0.50
0.76
0.45
0.66
0.40
0.05
0.07
0.05
0.03
0.03
0.03
0.03
0.02
0.02
0.02
0.02
0.03
0.03
0.05
0.05
0.07
0.07
0.09
0.09
0.15
0.16
0.20
0.22
0.25
0.25
0.25
0.22
0.22
0.19
0.09
0.07
0.02
0.04
0.04
0.06
0.07
0.07
0.07
0.07
0.07
0.06
0.06
0.06
0.09
0.07
0.06
0.07
0.06
0.07
0.06
0.06
0.07
0.07
0.07
0.04
0.06
0.06
0.07
0.04
0.04
0.07
0.04
0.04
0.04
0.06
0.06
0.06
0.04
0.04
0.02
0.04
0.06
0.11
0.02
0.11
0.16
0.41
0.09
0.09
0.04
0.04
0.03
0.02
0.04
0.02
0.02
0.04
0.04
0.02
0.02
0.75
0.28
0.65
0.40
0.77
0.48
0.08
0.07
0.05
0.05
0.03
0.03
0.02
0.04
0.03
0.03
0.02
0.05
0.05
0.04
0.05
0.07
0.08
0.09
0.14
0.15
0.19
0.22
0.25
0.26
0.30
0.30
0.28
0.28
0.25
0.21
0.17
0.09
0.07
0.04
0.02
0.03
0.02
0.02
0.04
0.02
0.04
0.04
0.04
0.02
0.03
0.02
0.02
0.03
0.04
0.04
0.04
0.04
0.02
0.03
0.03
0.02
0.03
0.04
0.02
0.03
0.03
0.02
0.05
0.02
0.03
0.02
0.04
0.04
0.03
0.04
0.05
0.04
0.02
0.03
0.01
0.04
0.01
0.02
0.25
0.09
0.00
0.02
0.07
0.07
0.08
0.05
0.04
0.08
0.07
0.08
0.17
0.02
0.00
0.58
0.47
0.48
0.56
0.52
0.28
0.09
0.11
0.11
0.11
0.09
0.09
0.11
0.09
0.09
0.11
0.11
0.15
0.14
0.16
0.16
0.19
0.20
0.21
0.22
0.26
0.28
0.32
0.35
0.35
0.37
0.37
0.32
0.26
0.25
0.22
0.17
0.09
0.10
0.07
0.07
0.04
0.04
0.04
0.04
0.04
0.03
0.05
0.05
0.05
0.04
0.04
0.05
0.07
0.05
0.05
0.05
0.07
0.07
0.07
0.07
0.07
0.08
0.07
0.07
0.07
0.07
0.07
0.07
0.07
0.07
0.07
0.07
0.05
0.04
0.02
0.02
0.04
0.06
0.09
0.16
0.06
0.04
0.05
0.07
0.07
0.05
0.07
0.07
0.08
0.07
0.14
0.04
0.07
0.70
0.44
0.58
0.40
0.58
0.51
0.11
0.09
0.09
0.07
0.07
0.05
0.05
0.07
0.07
0.04
0.07
0.07
0.05
0.07
0.07
0.07
0.07
0.08
0.10
0.15
0.16
0.19
0.22
0.22
0.25
0.25
0.24
0.21
0.19
0.11
0.08
0.05
0.03
0.01
0.02
0.04
0.06
0.04
0.06
0.06
0.06
0.06
0.06
0.04
0.07
0.06
0.06
0.04
0.06
0.07
0.06
0.06
0.06
0.07
0.07
0.06
0.07
0.09
0.07
0.09
0.07
0.09
0.09
0.11
0.09
0.10
0.10
0.10
0.10
0.11
0.11
0.30
0.11
0.37
0.30
0.55
0.30
0.21
0.04
0.02
0.00
0.02
0.04
0.06
0.06
0.06
0.00
0.02
0.11
0.77
0.14
0.51
0.43
0.72
0.38
0.04
0.01
0.02
0.02
0.07
0.09
0.06
0.09
0.07
0.07
0.06
0.04
0.07
0.06
0.04
0.02
0.00
0.01
0.03
0.05
0.10
0.11
0.16
0.19
0.21
0.22
0.22
0.20
0.17
0.14
0.08
0.04
0.02
0.00
0.06
0.09
0.10
0.11
0.10
0.11
0.10
0.16
0.10
0.11
0.16
0.11
0.25
0.16
0.21
0.21
0.16
0.21
0.25
0.21
0.21
0.11
0.21
0.16
0.16
0.21
0.16
0.21
0.16
0.21
0.21
0.21
0.25
0.30
0.25
0.25
0.25
0.30
0.33
0.47
0.30
0.47
0.58
0.56
0.43
0.41
0.07
0.04
0.06
0.09
0.09
0.09
0.07
0.04
0.02
0.25
0.07
0.80
0.37
0.58
0.35
0.56
0.37
0.03
0.03
0.02
0.02
0.02
0.02
0.02
0.02
0.01
0.04
0.02
0.04
0.04
0.03
0.02
0.02
0.04
0.07
0.10
0.14
0.15
0.19
0.22
0.24
0.26
0.25
0.24
0.21
0.16
0.09
0.07
0.03
0.01
0.02
0.07
0.07
0.09
0.09
0.07
0.07
0.06
0.06
0.06
0.06
0.04
0.06
0.02
0.04
0.04
0.02
0.04
0.00
0.00
0.02
0.00
0.02
0.00
0.01
0.01
0.00
0.00
0.01
0.01
0.02
0.01
0.01
0.00
0.01
0.01
0.02
0.01
0.06
0.00
0.06
0.04
0.41
0.09
0.02
0.01
0.07
0.07
0.04
0.03
0.03
0.07
0.03
0.07
0.09
0.03
0.46
0.02
0.47
0.35
0.66
0.48
0.22
0.09
0.10
0.09
0.07
0.07
0.08
0.07
0.07
0.08
0.07
0.07
0.09
0.08
0.09
0.14
0.15
0.19
0.19
0.21
0.25
0.26
0.28
0.31
0.31
0.32
0.30
0.26
0.25
0.20
0.17
0.09
0.08
0.05
0.03
0.04
0.02
0.02
0.02
0.02
0.02
0.04
0.04
0.04
0.04
0.04
0.02
0.02
0.04
0.02
0.04
0.04
0.02
0.02
0.04
0.02
0.04
0.04
0.02
0.02
0.04
0.04
0.04
0.04
0.03
0.02
0.04
0.04
0.02
0.00
0.02
0.00
0.04
0.21
0.02
0.02
0.02
0.10
0.07
0.09
0.07
0.07
0.10
0.08
0.10
0.19
0.05
0.16
0.02
0.52
0.44
0.70
0.58
0.26
0.14
0.09
0.09
0.08
0.07
0.08
0.07
0.05
0.07
0.05
0.04
0.07
0.04
0.05
0.03
0.04
0.05
0.08
0.10
0.09
0.11
0.19
0.20
0.22
0.22
0.21
0.21
0.19
0.15
0.09
0.07
0.05
0.04
0.00
0.00
0.02
0.04
0.04
0.04
0.01
0.00
0.00
0.02
0.00
0.00
0.01
0.00
0.00
0.00
0.01
0.01
0.01
0.01
0.01
0.01
0.00
0.01
0.01
0.02
0.01
0.01
0.02
0.01
0.02
0.01
0.02
0.01
0.01
0.02
0.07
0.02
0.10
0.06
0.46
0.10
0.06
0.01
0.05
0.04
0.03
0.04
0.02
0.02
0.04
0.04
0.09
0.02
0.64
0.05
0.56
0.56
0.78
0.48
0.19
0.05
0.05
0.02
0.03
0.04
0.02
0.02
0.02
0.04
0.03
0.02
0.02
0.02
0.04
0.03
0.05
0.05
0.08
0.09
0.14
0.15
0.19
0.22
0.24
0.25
0.24
0.22
0.19
0.16
0.09
0.07
0.03
0.04
0.01
0.04
0.02
0.04
0.04
0.02
0.04
0.00
0.01
0.01
0.01
0.00
0.02
0.01
0.01
0.01
0.01
0.04
0.02
0.02
0.01
0.02
0.02
0.01
0.02
0.02
0.02
0.02
0.01
0.02
0.02
0.02
0.02
0.02
0.04
0.04
0.02
0.01
0.04
0.01
0.04
0.02
0.33
0.04
0.00
0.04
0.08
0.07
0.07
0.05
0.05
0.05
0.05
0.07
0.16
0.04
0.37
0.01
0.58
0.56
0.78
0.58
0.25
0.14
0.11
0.09
0.09
0.10
0.09
0.09
0.10
0.10
0.09
0.08
0.09
0.11
0.09
0.11
0.15
0.15
0.19
0.20
0.22
0.25
0.26
0.30
0.32
0.32
0.35
0.32
0.30
0.22
0.22
0.17
0.14
0.10
0.08
0.05
0.07
0.04
0.04
0.07
0.05
0.05
0.04
0.05
0.04
0.05
0.07
0.05
0.04
0.07
0.07
0.07
0.07
0.05
0.07
0.04
0.05
0.05
0.05
0.05
0.05
0.04
0.05
0.04
0.04
0.02
0.04
0.04
0.04
0.02
0.02
0.02
0.01
0.04
0.02
0.33
0.07
0.00
0.00
0.10
0.10
0.07
0.05
0.05
0.07
0.07
0.10
0.19
0.03
0.07
0.67
0.47
0.52
0.48
0.56
0.40
0.14
0.17
0.16
0.15
0.15
0.16
0.14
0.16
0.17
0.15
0.15
0.16
0.16
0.17
0.19
0.22
0.20
0.22
0.25
0.26
0.26
0.30
0.33
0.35
0.35
0.33
0.35
0.30
0.25
0.21
0.20
0.15
0.09
0.10
0.08
0.07
0.07
0.07
0.04
0.07
0.04
0.05
0.07
0.04
0.07
0.07
0.07
0.07
0.05
0.07
0.07
0.05
0.07
0.07
0.05
0.04
0.05
0.07
0.07
0.04
0.04
0.05
0.05
0.05
0.05
0.05
0.07
0.05
0.02
0.03
0.00
0.02
0.16
0.04
0.04
0.04
0.09
0.07
0.10
0.07
0.08
0.08
0.07
0.08
0.19
0.05
0.02
0.58
0.50
0.55
0.58
0.52
0.38
0.09
0.14
0.09
0.10
0.07
0.07
0.07
0.07
0.05
0.07
0.07
0.07
0.07
0.07
0.07
0.10
0.08
0.10
0.14
0.16
0.17
0.20
0.22
0.22
0.25
0.24
0.21
0.21
0.17
0.11
0.07
0.04
0.04
0.02
0.02
0.06
0.06
0.04
0.06
0.06
0.06
0.02
0.06
0.07
0.06
0.06
0.06
0.07
0.06
0.07
0.07
0.09
0.07
0.09
0.07
0.07
0.09
0.09
0.10
0.10
0.09
0.09
0.10
0.09
0.09
0.09
0.11
0.10
0.11
0.30
0.21
0.37
0.21
0.58
0.33
0.21
0.09
0.02
0.02
0.00
0.04
0.02
0.00
0.04
0.01
0.02
0.09
0.70
0.08
0.52
0.47
0.76
0.44
0.08
0.03
0.03
0.04
0.04
0.01
0.04
0.02
0.01
0.01
0.02
0.02
0.04
0.02
0.02
0.02
0.02
0.04
0.07
0.10
0.14
0.17
0.17
0.22
0.21
0.24
0.21
0.22
0.19
0.14
0.09
0.05
0.03
0.01
0.01
0.04
0.06
0.06
0.04
0.02
0.02
0.06
0.04
0.02
0.06
0.02
0.04
0.02
0.06
0.04
0.04
0.06
0.04
0.06
0.07
0.07
0.06
0.07
0.09
0.09
0.07
0.09
0.07
0.09
0.07
0.09
0.06
0.10
0.07
0.09
0.07
0.25
0.10
0.16
0.11
0.52
0.25
0.11
0.10
0.02
0.04
0.04
0.01
0.01
0.02
0.01
0.02
0.09
0.07
0.16
0.62
0.47
0.58
0.58
0.47
0.24
0.05
0.05
0.04
0.03
0.03
0.03
0.02
0.02
0.03
0.03
0.04
0.03
0.02
0.04
0.05
0.07
0.10
0.09
0.14
0.17
0.19
0.21
0.26
0.26
0.26
0.26
0.26
0.24
0.21
0.17
0.09
0.07
0.03
0.02
0.01
0.00
0.02
0.02
0.00
0.01
0.02
0.02
0.02
0.02
0.01
0.04
0.02
0.04
0.02
0.02
0.02
0.02
0.04
0.02
0.03
0.04
0.02
0.02
0.04
0.03
0.03
0.04
0.04
0.04
0.02
0.01
0.02
0.04
0.02
0.04
0.02
0.06
0.00
0.04
0.02
0.33
0.04
0.04
0.00
0.07
0.05
0.05
0.03
0.03
0.07
0.05
0.07
0.19
0.05
0.04
0.46
0.43
0.37
0.52
0.50
0.37
0.16
0.15
0.11
0.11
0.09
0.09
0.09
0.09
0.09
0.14
0.11
0.14
0.14
0.16
0.17
0.17
0.19
0.22
0.25
0.25
0.26
0.28
0.32
0.35
0.35
0.35
0.33
0.28
0.25
0.21
0.19
0.14
0.09
0.07
0.05
0.04
0.04
0.03
0.02
0.02
0.03
0.02
0.02
0.02
0.03
0.03
0.02
0.04
0.04
0.04
0.04
0.02
0.04
0.01
0.01
0.01
0.02
0.01
0.01
0.01
0.01
0.01
0.01
0.02
0.02
0.00
0.01
0.02
0.07
0.04
0.07
0.06
0.41
0.09
0.06
0.02
0.07
0.05
0.04
0.03
0.02
0.04
0.03
0.05
0.09
0.04
0.55
0.07
0.45
0.35
0.61
0.48
0.19
0.07
0.05
0.04
0.02
0.04
0.01
0.02
0.00
0.00
0.00
0.00
0.01
0.02
0.01
0.01
0.04
0.02
0.04
0.05
0.08
0.09
0.15
0.17
0.19
0.19
0.19
0.17
0.14
0.08
0.02
0.01
0.04
0.07
0.10
0.16
0.16
0.16
0.16
0.21
0.16
0.21
0.11
0.16
0.11
0.16
0.16
0.11
0.11
0.16
0.11
0.11
0.10
0.11
0.10
0.10
0.07
0.07
0.07
0.07
0.07
0.09
0.09
0.07
0.07
0.09
0.10
0.21
0.21
0.16
0.30
0.47
0.47
0.30
0.25
0.00
0.00
0.02
0.06
0.06
0.06
0.06
0.04
0.03
0.09
0.02
0.78
0.32
0.45
0.25
0.47
0.37
0.02
0.02
0.02
0.01
0.01
0.02
0.02
0.04
0.02
0.00
0.00
0.02
0.01
0.02
0.04
0.04
0.04
0.05
0.08
0.10
0.14
0.19
0.22
0.24
0.24
0.22
0.21
0.19
0.15
0.08
0.04
0.02
0.04
0.07
0.10
0.11
0.11
0.11
0.16
0.11
0.11
0.11
0.10
0.10
0.10
0.10
0.09
0.10
0.10
0.10
0.09
0.16
0.10
0.09
0.09
0.11
0.09
0.10
0.10
0.09
0.10
0.09
0.10
0.07
0.10
0.09
0.10
0.09
0.25
0.11
0.30
0.16
0.58
0.30
0.21
0.10
0.01
0.01
0.00
0.04
0.06
0.00
0.00
0.02
0.08
0.10
0.09
0.67
0.38
0.32
0.43
0.37
0.28
0.03
0.04
0.02
0.02
0.02
0.04
0.03
0.03
0.02
0.05
0.05
0.04
0.07
0.07
0.08
0.09
0.11
0.16
0.19
0.22
0.25
0.26
0.26
0.32
0.32
0.31
0.28
0.26
0.22
0.16
0.09
0.07
0.05
0.03
0.02
0.04
0.02
0.04
0.04
0.04
0.02
0.04
0.03
0.04
0.03
0.05
0.04
0.04
0.03
0.03
0.03
0.03
0.04
0.04
0.03
0.03
0.03
0.04
0.03
0.04
0.03
0.04
0.03
0.03
0.03
0.02
0.02
0.02
0.02
0.02
0.10
0.11
0.00
0.04
0.08
0.09
0.08
0.08
0.09
0.09
0.09
0.09
0.22
0.09
0.15
0.64
0.48
0.58
0.43
0.58
0.58
0.22
0.25
0.20
0.21
0.20
0.20
0.22
0.22
0.22
0.21
0.22
0.22
0.24
0.24
0.25
0.26
0.26
0.26
0.32
0.33
0.35
0.37
0.41
0.43
0.44
0.41
0.38
0.37
0.33
0.26
0.24
0.20
0.19
0.17
0.15
0.14
0.15
0.14
0.09
0.14
0.14
0.15
0.15
0.15
0.14
0.11
0.15
0.15
0.15
0.15
0.14
0.14
0.14
0.09
0.14
0.11
0.11
0.09
0.11
0.09
0.11
0.11
0.09
0.09
0.11
0.11
0.10
0.07
0.09
0.07
0.05
0.04
0.07
0.07
0.09
0.17
0.15
0.14
0.14
0.11
0.15
0.14
0.17
0.16
0.08
0.64
0.24
0.66
0.55
0.78
0.61
0.22
0.16
0.11
0.09
0.09
0.09
0.08
0.08
0.08
0.10
0.08
0.07
0.07
0.07
0.10
0.08
0.08
0.09
0.14
0.16
0.19
0.21
0.25
0.26
0.26
0.28
0.26
0.25
0.22
0.22
0.16
0.11
0.10
0.05
0.04
0.03
0.04
0.02
0.03
0.02
0.04
0.04
0.05
0.05
0.05
0.05
0.05
0.05
0.05
0.07
0.07
0.04
0.04
0.05
0.05
0.05
0.03
0.05
0.04
0.05
0.04
0.05
0.03
0.05
0.03
0.03
0.02
0.02
0.02
0.02
0.00
0.06
0.01
0.07
0.25
0.16
0.06
0.04
0.04
0.04
0.03
0.03
0.04
0.02
0.02
0.04
0.07
0.06
0.02
0.80
0.37
0.61
0.37
0.65
0.44
0.07
0.07
0.03
0.03
0.03
0.02
0.02
0.04
0.04
0.02
0.04
0.04
0.03
0.03
0.02
0.02
0.05
0.07
0.10
0.09
0.14
0.19
0.21
0.22
0.25
0.24
0.22
0.21
0.19
0.11
0.08
0.07
0.04
0.01
0.02
0.04
0.04
0.04
0.04
0.04
0.00
0.04
0.04
0.00
0.00
0.02
0.00
0.00
0.02
0.02
0.00
0.02
0.02
0.04
0.02
0.06
0.06
0.04
0.02
0.04
0.06
0.04
0.07
0.04
0.06
0.06
0.06
0.06
0.06
0.04
0.06
0.10
0.11
0.09
0.25
0.43
0.33
0.21
0.10
0.02
0.04
0.04
0.00
0.00
0.02
0.02
0.04
0.04
0.00
0.02
0.78
0.35
0.48
0.33
0.56
0.41
0.07
0.10
0.07
0.07
0.07
0.07
0.05
0.07
0.07
0.07
0.07
0.07
0.08
0.08
0.10
0.09
0.14
0.16
0.19
0.21
0.25
0.28
0.30
0.32
0.35
0.35
0.31
0.28
0.25
0.22
0.16
0.10
0.07
0.05
0.02
0.04
0.02
0.02
0.02
0.04
0.04
0.01
0.04
0.04
0.01
0.02
0.02
0.02
0.04
0.01
0.00
0.00
0.00
0.00
0.02
0.04
0.02
0.00
0.02
0.01
0.02
0.00
0.00
0.00
0.01
0.01
0.01
0.02
0.02
0.02
0.02
0.00
0.09
0.11
0.30
0.06
0.07
0.02
0.05
0.04
0.03
0.02
0.03
0.02
0.02
0.07
0.02
0.02
0.70
0.28
0.50
0.31
0.50
0.47
0.09
0.07
0.04
0.04
0.02
0.02
0.02
0.04
0.04
0.04
0.02
0.02
0.03
0.02
0.03
0.03
0.07
0.07
0.10
0.09
0.15
0.19
0.20
0.21
0.22
0.22
0.22
0.22
0.16
0.09
0.08
0.04
0.02
0.00
0.00
0.02
0.06
0.04
0.06
0.02
0.02
0.02
0.00
0.00
0.02
0.00
0.00
0.00
0.01
0.01
0.00
0.02
0.00
0.02
0.04
0.06
0.06
0.04
0.07
0.09
0.09
0.10
0.10
0.10
0.10
0.11
0.11
0.11
0.16
0.16
0.16
0.21
0.33
0.41
0.30
0.41
0.58
0.50
0.33
0.37
0.06
0.06
0.04
0.10
0.09
0.07
0.07
0.09
0.04
0.16
0.09
0.82
0.26
0.51
0.32
0.56
0.35
0.02
0.01
0.02
0.04
0.07
0.07
0.07
0.07
0.07
0.06
0.09
0.06
0.06
0.07
0.06
0.02
0.02
0.01
0.02
0.05
0.08
0.09
0.15
0.19
0.20
0.19
0.19
0.16
0.11
0.10
0.02
0.01
0.06
0.09
0.11
0.21
0.25
0.21
0.16
0.21
0.16
0.10
0.11
0.11
0.21
0.16
0.11
0.16
0.11
0.21
0.11
0.11
0.16
0.16
0.11
0.16
0.16
0.11
0.11
0.16
0.16
0.21
0.21
0.16
0.16
0.11
0.11
0.11
0.16
0.10
0.10
0.11
0.11
0.10
0.30
0.11
0.33
0.16
0.52
0.25
0.25
0.06
0.02
0.01
0.01
0.02
0.02
0.02
0.00
0.01
0.07
0.11
0.30
0.68
0.41
0.52
0.47
0.48
0.25
0.03
0.03
0.02
0.01
0.01
0.01
0.01
0.00
0.00
0.00
0.00
0.01
0.01
0.02
0.02
0.02
0.03
0.05
0.10
0.11
0.17
0.19
0.22
0.25
0.26
0.26
0.26
0.24
0.20
0.15
0.09
0.07
0.03
0.04
0.02
0.01
0.02
0.01
0.01
0.02
0.02
0.01
0.04
0.04
0.04
0.04
0.02
0.04
0.02
0.01
0.04
0.01
0.04
0.00
0.01
0.02
0.04
0.01
0.02
0.02
0.04
0.02
0.02
0.03
0.02
0.04
0.03
0.03
0.03
0.02
0.05
0.03
0.03
0.02
0.04
0.02
0.04
0.00
0.02
0.01
0.25
0.09
0.02
0.01
0.04
0.05
0.05
0.04
0.03
0.04
0.03
0.04
0.16
0.01
0.07
0.70
0.37
0.38
0.35
0.44
0.37
0.10
0.11
0.10
0.08
0.07
0.07
0.07
0.07
0.07
0.08
0.07
0.07
0.07
0.08
0.10
0.09
0.14
0.15
0.20
0.22
0.24
0.25
0.26
0.31
0.30
0.30
0.26
0.25
0.25
0.22
0.16
0.11
0.08
0.07
0.04
0.04
0.03
0.03
0.03
0.03
0.03
0.04
0.04
0.04
0.04
0.04
0.05
0.03
0.04
0.04
0.05
0.02
0.02
0.02
0.02
0.02
0.02
0.02
0.01
0.02
0.01
0.00
0.01
0.02
0.00
0.01
0.00
0.01
0.02
0.02
0.01
0.01
0.02
0.07
0.01
0.07
0.09
0.16
0.06
0.04
0.04
0.07
0.04
0.03
0.03
0.02
0.03
0.03
0.05
0.04
0.02
0.67
0.11
0.48
0.37
0.66
0.51
0.20
0.08
0.08
0.10
0.07
0.05
0.05
0.05
0.04
0.05
0.05
0.05
0.07
0.04
0.05
0.07
0.08
0.08
0.11
0.09
0.17
0.20
0.22
0.25
0.26
0.25
0.25
0.25
0.21
0.20
0.16
0.09
0.07
0.04
0.04
0.02
0.01
0.00
0.01
0.01
0.01
0.01
0.01
0.02
0.02
0.02
0.02
0.02
0.04
0.04
0.04
0.04
0.04
0.02
0.02
0.04
0.02
0.02
0.01
0.01
0.01
0.00
0.01
0.01
0.00
0.00
0.01
0.02
0.01
0.04
0.04
0.04
0.02
0.04
0.04
0.00
0.04
0.02
0.07
0.09
0.25
0.06
0.06
0.03
0.07
0.04
0.03
0.03
0.02
0.04
0.03
0.05
0.03
0.02
0.70
0.08
0.51
0.43
0.76
0.48
0.17
0.08
0.08
0.08
0.07
0.07
0.05
0.05
0.05
0.05
0.05
0.05
0.07
0.05
0.07
0.08
0.08
0.10
0.11
0.15
0.17
0.21
0.24
0.25
0.26
0.25
0.25
0.26
0.24
0.22
0.17
0.10
0.07
0.03
0.04
0.02
0.00
0.02
0.00
0.04
0.04
0.00
0.02
0.00
0.01
0.02
0.02
0.00
0.01
0.02
0.00
0.01
0.00
0.01
0.00
0.00
0.01
0.01
0.00
0.01
0.01
0.00
0.01
0.00
0.00
0.02
0.01
0.00
0.01
0.01
0.00
0.01
0.01
0.02
0.01
0.01
0.06
0.02
0.07
0.02
0.33
0.09
0.04
0.00
0.04
0.03
0.02
0.02
0.04
0.02
0.02
0.05
0.08
0.02
0.68
0.14
0.47
0.37
0.72
0.50
0.19
0.09
0.09
0.09
0.07
0.08
0.10
0.07
0.08
0.08
0.08
0.09
0.10
0.10
0.11
0.11
0.15
0.15
0.19
0.22
0.25
0.25
0.31
0.33
0.35
0.35
0.35
0.31
0.25
0.25
0.19
0.14
0.10
0.07
0.04
0.02
0.01
0.04
0.02
0.02
0.04
0.04
0.04
0.02
0.04
0.03
0.03
0.04
0.03
0.03
0.05
0.04
0.04
0.04
0.04
0.04
0.04
0.05
0.05
0.04
0.05
0.05
0.05
0.05
0.04
0.07
0.07
0.08
0.07
0.07
0.07
0.07
0.08
0.07
0.04
0.07
0.02
0.03
0.07
0.04
0.04
0.07
0.15
0.14
0.14
0.11
0.14
0.14
0.15
0.15
0.21
0.09
0.02
0.00
0.48
0.35
0.63
0.55
0.33
0.19
0.19
0.17
0.15
0.14
0.11
0.15
0.15
0.09
0.11
0.09
0.11
0.09
0.11
0.14
0.15
0.16
0.19
0.22
0.22
0.26
0.26
0.28
0.31
0.32
0.33
0.30
0.26
0.24
0.20
0.16
0.09
0.07
0.07
0.02
0.02
0.02
0.04
0.04
0.02
0.04
0.02
0.02
0.04
0.04
0.02
0.04
0.03
0.03
0.03
0.04
0.04
0.04
0.02
0.03
0.02
0.02
0.02
0.02
0.02
0.04
0.04
0.02
0.01
0.02
0.04
0.02
0.02
0.01
0.02
0.00
0.02
0.07
0.06
0.10
0.30
0.25
0.10
0.07
0.02
0.03
0.02
0.01
0.01
0.04
0.02
0.02
0.07
0.04
0.01
0.78
0.31
0.51
0.35
0.55
0.41
0.04
0.04
0.02
0.02
0.01
0.01
0.02
0.01
0.01
0.01
0.01
0.02
0.02
0.01
0.02
0.02
0.02
0.03
0.04
0.07
0.09
0.14
0.17
0.20
0.20
0.21
0.22
0.20
0.19
0.11
0.08
0.03
0.00
0.00
0.06
0.07
0.09
0.10
0.10
0.09
0.10
0.07
0.06
0.06
0.06
0.04
0.02
0.04
0.04
0.02
0.04
0.02
0.00
0.02
0.00
0.01
0.02
0.01
0.00
0.01
0.00
0.02
0.02
0.01
0.01
0.01
0.01
0.00
0.01
0.00
0.04
0.06
0.07
0.25
0.10
0.33
0.16
0.58
0.30
0.30
0.16
0.02
0.07
0.06
0.10
0.11
0.11
0.09
0.07
0.00
0.30
0.69
0.11
0.37
0.38
0.61
0.37
0.08
0.00
0.01
0.02
0.02
0.04
0.04
0.04
0.04
0.04
0.04
0.00
0.00
0.00
0.01
0.01
0.04
0.03
0.05
0.08
0.09
0.15
0.22
0.21
0.24
0.22
0.22
0.22
0.19
0.15
0.08
0.04
0.02
0.04
0.06
0.07
0.07
0.07
0.07
0.07
0.07
0.09
0.07
0.06
0.06
0.06
0.07
0.06
0.07
0.09
0.07
0.09
0.10
0.09
0.09
0.09
0.09
0.09
0.09
0.09
0.09
0.07
0.06
0.07
0.07
0.07
0.06
0.06
0.07
0.06
0.07
0.06
0.06
0.09
0.16
0.07
0.25
0.37
0.43
0.25
0.10
0.01
0.02
0.02
0.00
0.04
0.00
0.04
0.00
0.03
0.04
0.02
0.78
0.25
0.40
0.24
0.50
0.41
0.05
0.07
0.05
0.04
0.04
0.04
0.02
0.02
0.03
0.04
0.03
0.04
0.05
0.07
0.08
0.09
0.09
0.15
0.16
0.20
0.21
0.25
0.25
0.31
0.31
0.30
0.30
0.25
0.24
0.19
0.15
0.10
0.07
0.03
0.02
0.02
0.00
0.01
0.02
0.00
0.00
0.04
0.01
0.00
0.00
0.00
0.01
0.00
0.00
0.01
0.01
0.01
0.02
0.02
0.02
0.00
0.02
0.06
0.02
0.06
0.00
0.04
0.09
0.06
0.04
0.06
0.02
0.04
0.04
0.02
0.06
0.07
0.16
0.09
0.25
0.30
0.46
0.25
0.10
0.04
0.02
0.02
0.02
0.02
0.02
0.04
0.04
0.05
0.05
0.04
0.67
0.19
0.48
0.26
0.52
0.47
0.16
0.07
0.03
0.03
0.04
0.02
0.02
0.04
0.02
0.04
0.02
0.02
0.02
0.04
0.04
0.04
0.02
0.04
0.05
0.07
0.10
0.11
0.16
0.19
0.20
0.22
0.22
0.19
0.16
0.09
0.07
0.03
0.01
0.02
0.07
0.09
0.11
0.11
0.16
0.16
0.11
0.11
0.16
0.10
0.11
0.09
0.09
0.10
0.10
0.07
0.09
0.09
0.07
0.06
0.06
0.09
0.07
0.04
0.07
0.07
0.10
0.09
0.09
0.09
0.09
0.10
0.09
0.09
0.09
0.09
0.10
0.09
0.10
0.30
0.10
0.33
0.30
0.55
0.30
0.21
0.06
0.01
0.00
0.04
0.04
0.04
0.04
0.04
0.02
0.02
0.07
0.72
0.09
0.47
0.37
0.68
0.43
0.07
0.02
0.04
0.01
0.01
0.00
0.02
0.01
0.04
0.00
0.04
0.00
0.00
0.00
0.00
0.02
0.04
0.03
0.07
0.08
0.09
0.15
0.19
0.22
0.24
0.24
0.22
0.22
0.19
0.15
0.10
0.05
0.04
0.01
0.04
0.07
0.09
0.09
0.09
0.09
0.09
0.09
0.09
0.09
0.10
0.10
0.11
0.09
0.11
0.10
0.11
0.10
0.07
0.09
0.09
0.10
0.07
0.07
0.07
0.09
0.06
0.07
0.07
0.07
0.07
0.04
0.06
0.04
0.04
0.04
0.04
0.04
0.04
0.07
0.10
0.04
0.21
0.30
0.37
0.10
0.11
0.02
0.02
0.02
0.01
0.04
0.02
0.02
0.02
0.08
0.04
0.03
0.78
0.37
0.61
0.35
0.65
0.45
0.08
0.10
0.07
0.07
0.07
0.05
0.05
0.07
0.05
0.07
0.05
0.07
0.07
0.08
0.07
0.08
0.09
0.11
0.14
0.17
0.22
0.24
0.26
0.28
0.31
0.32
0.31
0.28
0.26
0.22
0.19
0.14
0.09
0.08
0.07
0.05
0.03
0.04
0.05
0.05
0.07
0.07
0.07
0.08
0.10
0.10
0.10
0.09
0.09
0.09
0.14
0.11
0.11
0.11
0.14
0.14
0.14
0.15
0.14
0.15
0.14
0.16
0.17
0.15
0.14
0.16
0.16
0.15
0.16
0.16
0.15
0.16
0.15
0.14
0.09
0.08
0.11
0.07
0.02
0.04
0.08
0.07
0.17
0.19
0.19
0.15
0.16
0.16
0.16
0.17
0.22
0.16
0.22
0.66
0.45
0.65
0.40
0.72
0.65
0.25
0.25
0.22
0.25
0.22
0.21
0.22
0.21
0.22
0.21
0.22
0.24
0.26
0.25
0.26
0.26
0.25
0.31
0.33
0.35
0.37
0.40
0.47
0.44
0.47
0.47
0.47
0.43
0.37
0.32
0.28
0.24
0.20
0.19
0.16
0.15
0.09
0.09
0.09
0.11
0.09
0.09
0.11
0.09
0.11
0.09
0.09
0.09
0.11
0.09
0.11
0.09
0.09
0.09
0.09
0.09
0.09
0.09
0.09
0.09
0.09
0.10
0.10
0.09
0.09
0.09
0.09
0.10
0.10
0.09
0.08
0.10
0.05
0.05
0.03
0.05
0.07
0.02
0.04
0.07
0.15
0.11
0.09
0.09
0.09
0.09
0.09
0.11
0.22
0.05
0.02
0.62
0.50
0.51
0.55
0.51
0.37
0.09
0.14
0.09
0.09
0.10
0.08
0.08
0.07
0.07
0.07
0.07
0.07
0.07
0.08
0.10
0.08
0.09
0.09
0.11
0.19
0.19
0.22
0.24
0.25
0.25
0.26
0.25
0.22
0.20
0.14
0.08
0.04
0.03
0.01
0.02
0.02
0.06
0.06
0.07
0.07
0.06
0.06
0.07
0.06
0.09
0.06
0.07
0.07
0.09
0.06
0.06
0.09
0.07
0.09
0.07
0.09
0.10
0.10
0.10
0.07
0.09
0.11
0.10
0.09
0.10
0.11
0.10
0.11
0.10
0.16
0.16
0.16
0.37
0.25
0.43
0.33
0.62
0.43
0.37
0.30
0.02
0.04
0.06
0.07
0.09
0.07
0.04
0.07
0.02
0.30
0.33
0.75
0.38
0.56
0.44
0.45
0.25
0.00
0.00
0.02
0.06
0.07
0.09
0.09
0.09
0.09
0.10
0.07
0.10
0.10
0.10
0.10
0.07
0.06
0.04
0.00
0.02
0.05
0.08
0.09
0.14
0.15
0.16
0.15
0.11
0.10
0.05
0.02
0.07
0.09
0.21
0.21
0.33
0.33
0.30
0.30
0.33
0.33
0.33
0.21
0.25
0.30
0.30
0.25
0.21
0.21
0.25
0.21
0.21
0.16
0.16
0.16
0.16
0.11
0.16
0.11
0.11
0.11
0.11
0.11
0.16
0.11
0.11
0.11
0.11
0.11
0.11
0.10
0.16
0.11
0.16
0.11
0.43
0.25
0.43
0.33
0.60
0.41
0.33
0.11
0.02
0.07
0.06
0.07
0.09
0.07
0.07
0.06
0.04
0.16
0.68
0.16
0.37
0.37
0.61
0.38
0.11
0.04
0.02
0.01
0.02
0.00
0.04
0.00
0.00
0.02
0.00
0.00
0.02
0.00
0.01
0.02
0.02
0.03
0.05
0.08
0.11
0.16
0.19
0.22
0.22
0.25
0.24
0.22
0.20
0.17
0.09
0.07
0.03
0.02
0.00
0.07
0.09
0.09
0.09
0.07
0.10
0.09
0.10
0.06
0.07
0.07
0.07
0.06
0.06
0.06
0.06
0.07
0.04
0.06
0.07
0.06
0.06
0.06
0.09
0.07
0.06
0.07
0.04
0.07
0.06
0.04
0.06
0.06
0.06
0.06
0.07
0.04
0.10
0.10
0.10
0.11
0.43
0.33
0.16
0.11
0.01
0.02
0.02
0.00
0.02
0.01
0.02
0.02
0.07
0.00
0.02
0.71
0.32
0.48
0.30
0.43
0.37
0.05
0.05
0.02
0.04
0.04
0.04
0.02
0.04
0.02
0.04
0.04
0.04
0.03
0.04
0.03
0.04
0.07
0.07
0.10
0.09
0.11
0.15
0.19
0.21
0.22
0.22
0.22
0.19
0.17
0.09
0.07
0.05
0.04
0.02
0.04
0.07
0.09
0.10
0.09
0.11
0.10
0.10
0.10
0.10
0.09
0.10
0.07
0.09
0.09
0.07
0.07
0.09
0.10
0.07
0.09
0.09
0.07
0.09
0.09
0.07
0.09
0.09
0.06
0.07
0.07
0.09
0.07
0.09
0.06
0.09
0.11
0.33
0.16
0.37
0.46
0.50
0.33
0.25
0.04
0.02
0.02
0.06
0.06
0.06
0.09
0.06
0.02
0.11
0.09
0.81
0.24
0.51
0.33
0.61
0.40
0.03
0.01
0.02
0.04
0.04
0.02
0.07
0.06
0.04
0.06
0.06
0.06
0.06
0.02
0.02
0.02
0.00
0.01
0.04
0.05
0.08
0.09
0.14
0.19
0.20
0.22
0.22
0.20
0.16
0.11
0.07
0.04
0.02
0.00
0.06
0.07
0.06
0.06
0.09
0.06
0.06
0.04
0.04
0.04
0.02
0.02
0.00
0.04
0.01
0.02
0.00
0.01
0.02
0.02
0.02
0.04
0.02
0.04
0.02
0.04
0.02
0.02
0.04
0.02
0.02
0.02
0.04
0.02
0.02
0.04
0.04
0.04
0.04
0.01
0.07
0.01
0.09
0.07
0.41
0.10
0.09
0.01
0.07
0.02
0.02
0.04
0.02
0.02
0.02
0.03
0.07
0.04
0.69
0.11
0.55
0.50
0.78
0.51
0.19
0.10
0.10
0.07
0.07
0.07
0.07
0.07
0.07
0.07
0.07
0.10
0.07
0.10
0.10
0.09
0.11
0.11
0.16
0.19
0.22
0.24
0.26
0.30
0.31
0.33
0.32
0.31
0.26
0.26
0.21
0.17
0.14
0.10
0.07
0.04
0.04
0.04
0.05
0.04
0.04
0.04
0.04
0.05
0.04
0.04
0.05
0.05
0.05
0.05
0.05
0.04
0.05
0.05
0.05
0.05
0.05
0.05
0.04
0.05
0.04
0.05
0.05
0.04
0.05
0.05
0.05
0.04
0.03
0.07
0.05
0.04
0.04
0.03
0.01
0.03
0.02
0.03
0.16
0.00
0.02
0.03
0.09
0.09
0.09
0.07
0.08
0.08
0.10
0.10
0.20
0.05
0.02
0.30
0.48
0.51
0.65
0.56
0.35
0.14
0.14
0.15
0.11
0.11
0.09
0.09
0.10
0.11
0.09
0.11
0.14
0.14
0.11
0.15
0.16
0.19
0.22
0.24
0.25
0.26
0.32
0.35
0.38
0.37
0.37
0.35
0.31
0.25
0.22
0.22
0.17
0.11
0.10
0.09
0.07
0.07
0.07
0.07
0.07
0.03
0.07
0.07
0.07
0.07
0.07
0.05
0.07
0.08
0.05
0.05
0.05
0.05
0.07
0.04
0.04
0.04
0.07
0.05
0.05
0.05
0.04
0.04
0.05
0.07
0.04
0.07
0.04
0.05
0.04
0.04
0.05
0.02
0.04
0.16
0.02
0.02
0.07
0.09
0.09
0.08
0.10
0.07
0.09
0.09
0.09
0.11
0.07
0.58
0.19
0.61
0.40
0.66
0.56
0.19
0.09
0.08
0.07
0.04
0.03
0.02
0.02
0.03
0.02
0.02
0.03
0.04
0.02
0.03
0.03
0.05
0.07
0.08
0.09
0.15
0.19
0.22
0.22
0.24
0.24
0.24
0.22
0.20
0.17
0.11
0.07
0.04
0.04
0.01
0.01
0.02
0.04
0.06
0.02
0.04
0.02
0.02
0.02
0.02
0.02
0.00
0.00
0.01
0.01
0.02
0.00
0.01
0.02
0.00
0.02
0.02
0.04
0.04
0.04
0.04
0.04
0.04
0.04
0.06
0.06
0.04
0.07
0.06
0.07
0.07
0.11
0.11
0.16
0.11
0.46
0.25
0.11
0.09
0.04
0.02
0.04
0.01
0.04
0.04
0.02
0.04
0.10
0.07
0.02
0.76
0.45
0.73
0.48
0.63
0.37
0.08
0.08
0.10
0.05
0.05
0.07
0.07
0.07
0.04
0.07
0.07
0.10
0.07
0.08
0.08
0.09
0.09
0.14
0.16
0.19
0.21
0.24
0.26
0.28
0.31
0.31
0.30
0.26
0.26
0.22
0.19
0.14
0.09
0.08
0.05
0.07
0.05
0.05
0.07
0.07
0.07
0.07
0.07
0.07
0.07
0.07
0.07
0.07
0.07
0.07
0.07
0.08
0.08
0.07
0.07
0.08
0.08
0.08
0.07
0.07
0.07
0.08
0.07
0.07
0.07
0.08
0.07
0.07
0.07
0.07
0.07
0.04
0.02
0.05
0.02
0.04
0.04
0.02
0.04
0.09
0.14
0.14
0.10
0.11
0.09
0.10
0.09
0.17
0.08
0.15
0.71
0.45
0.76
0.48
0.78
0.55
0.17
0.19
0.16
0.14
0.14
0.15
0.11
0.14
0.11
0.14
0.14
0.14
0.14
0.16
0.17
0.16
0.19
0.20
0.22
0.24
0.25
0.28
0.31
0.32
0.37
0.35
0.35
0.33
0.30
0.25
0.20
0.19
0.11
0.08
0.07
0.04
0.05
0.02
0.04
0.05
0.04
0.07
0.05
0.05
0.07
0.07
0.07
0.07
0.07
0.07
0.07
0.08
0.07
0.07
0.08
0.07
0.08
0.07
0.08
0.08
0.08
0.07
0.07
0.07
0.08
0.08
0.09
0.08
0.10
0.09
0.08
0.09
0.10
0.03
0.10
0.02
0.04
0.02
0.04
0.05
0.14
0.14
0.11
0.09
0.09
0.09
0.09
0.10
0.19
0.10
0.19
0.69
0.47
0.56
0.40
0.58
0.45
0.15
0.16
0.15
0.09
0.08
0.10
0.10
0.10
0.09
0.07
0.08
0.09
0.07
0.10
0.09
0.09
0.11
0.16
0.17
0.19
0.24
0.25
0.26
0.26
0.28
0.26
0.26
0.24
0.19
0.16
0.09
0.08
0.05
0.04
0.04
0.02
0.01
0.01
0.04
0.02
0.02
0.04
0.04
0.02
0.02
0.04
0.02
0.02
0.02
0.02
0.02
0.03
0.02
0.02
0.02
0.03
0.04
0.02
0.01
0.04
0.02
0.01
0.01
0.01
0.02
0.02
0.01
0.04
0.07
0.00
0.09
0.16
0.30
0.11
0.07
0.01
0.03
0.04
0.04
0.03
0.03
0.03
0.02
0.10
0.01
0.02
0.70
0.35
0.58
0.38
0.50
0.48
0.10
0.07
0.04
0.03
0.04
0.02
0.02
0.01
0.01
0.02
0.00
0.02
0.01
0.00
0.01
0.01
0.01
0.04
0.02
0.04
0.05
0.10
0.11
0.14
0.14
0.16
0.15
0.16
0.09
0.07
0.04
0.02
0.02
0.06
0.09
0.11
0.10
0.21
0.16
0.16
0.11
0.16
0.11
0.11
0.10
0.07
0.09
0.10
0.07
0.07
0.10
0.10
0.09
0.10
0.09
0.10
0.16
0.11
0.10
0.11
0.16
0.16
0.16
0.16
0.21
0.16
0.16
0.16
0.11
0.30
0.37
0.21
0.41
0.46
0.55
0.37
0.37
0.04
0.02
0.02
0.07
0.06
0.09
0.07
0.06
0.02
0.11
0.02
0.81
0.32
0.66
0.37
0.65
0.37
0.04
0.02
0.01
0.00
0.00
0.01
0.04
0.04
0.04
0.04
0.06
0.04
0.06
0.04
0.04
0.04
0.04
0.01
0.04
0.04
0.05
0.08
0.09
0.15
0.16
0.15
0.15
0.14
0.08
0.05
0.04
0.00
0.06
0.11
0.25
0.30
0.30
0.33
0.25
0.25
0.25
0.25
0.21
0.25
0.21
0.16
0.16
0.21
0.25
0.21
0.21
0.21
0.30
0.21
0.25
0.30
0.25
0.21
0.25
0.21
0.21
0.21
0.21
0.16
0.11
0.16
0.11
0.16
0.11
0.25
0.41
0.11
0.41
0.37
0.55
0.33
0.33
0.07
0.02
0.06
0.09
0.10
0.10
0.07
0.10
0.02
0.07
0.04
0.78
0.22
0.55
0.32
0.66
0.37
0.02
0.04
0.00
0.02
0.02
0.04
0.04
0.06
0.04
0.04
0.00
0.02
0.02
0.01
0.02
0.02
0.03
0.05
0.07
0.09
0.14
0.17
0.19
0.22
0.22
0.22
0.22
0.20
0.17
0.09
0.07
0.04
0.02
0.04
0.04
0.04
0.04
0.06
0.04
0.07
0.06
0.04
0.02
0.04
0.02
0.02
0.04
0.02
0.02
0.02
0.04
0.02
0.04
0.02
0.06
0.00
0.04
0.02
0.06
0.07
0.06
0.06
0.06
0.06
0.04
0.04
0.06
0.04
0.06
0.11
0.09
0.11
0.06
0.46
0.16
0.10
0.04
0.02
0.02
0.02
0.01
0.02
0.04
0.04
0.02
0.09
0.00
0.37
0.09
0.43
0.35
0.58
0.44
0.20
0.07
0.07
0.04
0.02
0.02
0.03
0.03
0.02
0.03
0.04
0.03
0.04
0.04
0.07
0.07
0.08
0.09
0.11
0.16
0.22
0.22
0.25
0.26
0.26
0.31
0.28
0.26
0.25
0.22
0.19
0.14
0.09
0.10
0.10
0.08
0.05
0.07
0.07
0.08
0.10
0.10
0.08
0.10
0.09
0.10
0.09
0.09
0.11
0.09
0.09
0.09
0.09
0.09
0.09
0.09
0.09
0.09
0.08
0.10
0.10
0.10
0.10
0.08
0.10
0.09
0.09
0.10
0.07
0.03
0.05
0.03
0.05
0.06
0.02
0.05
0.05
0.14
0.14
0.15
0.14
0.11
0.15
0.14
0.16
0.25
0.09
0.05
0.25
0.63
0.58
0.66
0.61
0.47
0.16
0.16
0.15
0.15
0.15
0.14
0.11
0.14
0.11
0.09
0.09
0.11
0.09
0.11
0.11
0.11
0.14
0.17
0.16
0.19
0.22
0.22
0.25
0.25
0.25
0.25
0.26
0.24
0.22
0.17
0.11
0.10
0.05
0.04
0.01
0.00
0.00
0.04
0.00
0.02
0.02
0.04
0.02
0.04
0.00
0.02
0.02
0.02
0.00
0.00
0.02
0.00
0.02
0.00
0.02
0.06
0.04
0.06
0.04
0.06
0.06
0.07
0.07
0.07
0.09
0.09
0.09
0.09
0.25
0.25
0.21
0.21
0.56
0.33
0.21
0.16
0.00
0.01
0.00
0.06
0.06
0.04
0.06
0.02
0.07
0.21
0.33
0.68
0.41
0.70
0.55
0.47
0.26
0.01
0.02
0.01
0.00
0.02
0.00
0.02
0.04
0.02
0.02
0.04
0.00
0.02
0.00
0.00
0.01
0.02
0.02
0.03
0.07
0.08
0.09
0.15
0.17
0.19
0.19
0.17
0.14
0.09
0.07
0.04
0.02
0.04
0.09
0.16
0.16
0.11
0.16
0.11
0.11
0.11
0.07
0.07
0.07
0.06
0.06
0.06
0.04
0.04
0.04
0.04
0.02
0.04
0.04
0.04
0.04
0.04
0.00
0.00
0.01
0.02
0.01
0.01
0.04
0.04
0.02
0.04
0.04
0.02
0.02
0.02
0.04
0.02
0.21
0.02
0.02
0.04
0.08
0.08
0.04
0.03
0.02
0.02
0.02
0.02
0.07
0.04
0.69
0.20
0.58
0.38
0.77
0.45
0.09
0.05
0.03
0.02
0.02
0.01
0.01
0.01
0.00
0.00
0.02
0.01
0.00
0.02
0.01
0.02
0.03
0.03
0.07
0.08
0.09
0.16
0.17
0.20
0.21
0.21
0.21
0.22
0.19
0.14
0.10
0.04
0.02
0.00
0.04
0.06
0.07
0.07
0.09
0.06
0.06
0.06
0.06
0.06
0.06
0.06
0.06
0.04
0.00
0.04
0.02
0.00
0.00
0.02
0.01
0.00
0.01
0.02
0.01
0.02
0.01
0.01
0.00
0.02
0.00
0.00
0.02
0.00
0.00
0.04
0.07
0.00
0.10
0.25
0.21
0.06
0.07
0.03
0.02
0.04
0.04
0.04
0.02
0.04
0.02
0.10
0.00
0.08
0.71
0.33
0.51
0.25
0.56
0.45
0.10
0.09
0.08
0.08
0.07
0.04
0.05
0.05
0.05
0.08
0.07
0.07
0.10
0.07
0.10
0.10
0.09
0.11
0.15
0.17
0.22
0.21
0.22
0.25
0.26
0.25
0.24
0.22
0.19
0.09
0.08
0.04
0.02
0.01
0.04
0.06
0.06
0.07
0.07
0.06
0.02
0.04
0.02
0.06
0.00
0.04
0.01
0.02
0.01
0.01
0.00
0.00
0.00
0.00
0.00
0.01
0.00
0.00
0.00
0.00
0.00
0.01
0.00
0.02
0.00
0.01
0.01
0.01
0.02
0.06
0.01
0.07
0.10
0.11
0.06
0.06
0.02
0.07
0.07
0.04
0.05
0.07
0.07
0.07
0.14
0.05
0.07
0.68
0.44
0.63
0.41
0.56
0.51
0.11
0.14
0.10
0.08
0.07
0.07
0.07
0.07
0.04
0.05
0.07
0.07
0.07
0.07
0.07
0.08
0.10
0.09
0.14
0.15
0.19
0.20
0.22
0.24
0.26
0.25
0.25
0.22
0.22
0.19
0.11
0.10
0.07
0.05
0.02
0.04
0.04
0.02
0.02
0.02
0.01
0.02
0.02
0.02
0.02
0.04
0.03
0.03
0.04
0.03
0.03
0.03
0.04
0.02
0.02
0.03
0.04
0.02
0.02
0.04
0.02
0.02
0.02
0.02
0.02
0.02
0.02
0.04
0.01
0.04
0.01
0.06
0.00
0.21
0.04
0.02
0.03
0.07
0.07
0.05
0.04
0.02
0.07
0.05
0.07
0.09
0.02
0.62
0.07
0.61
0.61
0.80
0.56
0.22
0.09
0.11
0.09
0.10
0.08
0.08
0.07
0.08
0.08
0.08
0.07
0.08
0.08
0.07
0.10
0.09
0.11
0.14
0.17
0.17
0.22
0.25
0.25
0.26
0.26
0.26
0.26
0.25
0.22
0.19
0.11
0.08
0.07
0.04
0.03
0.03
0.03
0.03
0.04
0.04
0.03
0.04
0.04
0.04
0.05
0.05
0.05
0.05
0.07
0.04
0.05
0.05
0.05
0.04
0.04
0.03
0.04
0.04
0.03
0.02
0.02
0.03
0.02
0.04
0.04
0.04
0.04
0.02
0.00
0.02
0.02
0.06
0.11
0.09
0.00
0.01
0.07
0.08
0.08
0.07
0.05
0.07
0.07
0.07
0.14
0.04
0.10
0.72
0.41
0.70
0.43
0.76
0.50
0.15
0.14
0.11
0.09
0.10
0.07
0.08
0.07
0.07
0.07
0.07
0.05
0.07
0.08
0.07
0.08
0.10
0.11
0.15
0.16
0.20
0.22
0.25
0.25
0.25
0.25
0.26
0.25
0.21
0.17
0.11
0.08
0.05
0.02
0.04
0.01
0.01
0.02
0.02
0.01
0.02
0.02
0.01
0.01
0.01
0.02
0.02
0.00
0.01
0.02
0.02
0.02
0.04
0.04
0.02
0.04
0.04
0.02
0.04
0.01
0.02
0.04
0.04
0.04
0.00
0.02
0.02
0.02
0.04
0.02
0.01
0.06
0.01
0.33
0.09
0.02
0.02
0.07
0.07
0.05
0.07
0.07
0.07
0.05
0.10
0.19
0.03
0.02
0.50
0.45
0.51
0.50
0.52
0.40
0.11
0.14
0.09
0.10
0.10
0.10
0.09
0.08
0.10
0.10
0.09
0.09
0.09
0.09
0.14
0.14
0.14
0.17
0.19
0.22
0.25
0.25
0.26
0.30
0.32
0.32
0.30
0.25
0.25
0.22
0.16
0.11
0.09
0.07
0.05
0.04
0.03
0.04
0.04
0.04
0.05
0.04
0.04
0.02
0.02
0.04
0.05
0.03
0.03
0.02
0.02
0.02
0.04
0.04
0.04
0.04
0.04
0.02
0.02
0.01
0.01
0.00
0.02
0.00
0.01
0.02
0.02
0.06
0.11
0.04
0.11
0.16
0.41
0.16
0.10
0.06
0.04
0.02
0.02
0.01
0.01
0.02
0.04
0.05
0.02
0.04
0.69
0.25
0.52
0.32
0.50
0.47
0.07
0.07
0.04
0.03
0.03
0.04
0.02
0.04
0.02
0.04
0.02
0.02
0.02
0.02
0.02
0.02
0.04
0.07
0.07
0.10
0.11
0.16
0.17
0.20
0.20
0.22
0.20
0.19
0.14
0.10
0.05
0.04
0.02
0.02
0.04
0.06
0.07
0.04
0.06
0.06
0.04
0.04
0.04
0.04
0.00
0.04
0.00
0.04
0.00
0.00
0.02
0.04
0.02
0.02
0.04
0.04
0.06
0.04
0.06
0.04
0.10
0.07
0.09
0.07
0.11
0.09
0.11
0.11
0.16
0.37
0.30
0.33
0.30
0.58
0.41
0.37
0.25
0.04
0.02
0.04
0.06
0.07
0.04
0.04
0.02
0.07
0.16
0.37
0.66
0.44
0.65
0.56
0.47
0.24
0.02
0.04
0.01
0.01
0.02
0.01
0.00
0.00
0.00
0.00
0.00
0.00
0.01
0.01
0.04
0.01
0.02
0.04
0.07
0.08
0.09
0.15
0.19
0.20
0.20
0.20
0.19
0.19
0.14
0.08
0.05
0.04
0.02
0.07
0.09
0.10
0.10
0.10
0.10
0.10
0.07
0.09
0.10
0.09
0.09
0.06
0.07
0.07
0.06
0.06
0.07
0.06
0.07
0.07
0.06
0.06
0.06
0.04
0.04
0.04
0.06
0.04
0.06
0.06
0.06
0.04
0.06
0.06
0.06
0.11
0.21
0.07
0.21
0.41
0.41
0.21
0.21
0.00
0.00
0.02
0.04
0.04
0.06
0.04
0.06
0.02
0.11
0.02
0.80
0.35
0.58
0.30
0.58
0.37
0.02
0.02
0.02
0.01
0.00
0.00
0.00
0.02
0.01
0.02
0.01
0.01
0.04
0.04
0.03
0.03
0.05
0.08
0.09
0.11
0.16
0.19
0.21
0.25
0.25
0.25
0.25
0.24
0.22
0.16
0.09
0.07
0.03
0.02
0.01
0.00
0.02
0.04
0.04
0.02
0.00
0.00
0.02
0.02
0.00
0.00
0.00
0.02
0.00
0.00
0.00
0.02
0.00
0.02
0.02
0.01
0.02
0.02
0.04
0.00
0.02
0.04
0.02
0.04
0.00
0.04
0.02
0.04
0.02
0.04
0.06
0.11
0.00
0.11
0.06
0.33
0.09
0.09
0.01
0.04
0.05
0.03
0.04
0.04
0.03
0.02
0.05
0.07
0.07
0.67
0.19
0.50
0.32
0.70
0.51
0.17
0.15
0.15
0.11
0.09
0.11
0.10
0.09
0.09
0.14
0.11
0.14
0.11
0.11
0.15
0.16
0.19
0.19
0.21
0.24
0.25
0.25
0.31
0.33
0.33
0.32
0.32
0.28
0.26
0.24
0.19
0.11
0.09
0.07
0.05
0.05
0.04
0.04
0.03
0.04
0.07
0.07
0.05
0.07
0.07
0.07
0.07
0.08
0.05
0.08
0.08
0.07
0.08
0.05
0.07
0.05
0.07
0.05
0.05
0.04
0.05
0.04
0.07
0.08
0.07
0.07
0.07
0.03
0.05
0.04
0.03
0.04
0.04
0.04
0.04
0.09
0.11
0.11
0.09
0.10
0.09
0.09
0.14
0.16
0.10
0.21
0.17
0.65
0.38
0.66
0.58
0.24
0.14
0.09
0.14
0.09
0.09
0.10
0.10
0.08
0.08
0.08
0.08
0.10
0.10
0.10
0.10
0.11
0.14
0.14
0.16
0.19
0.20
0.22
0.22
0.25
0.25
0.25
0.22
0.20
0.17
0.11
0.09
0.07
0.04
0.02
0.02
0.02
0.02
0.02
0.02
0.04
0.01
0.04
0.01
0.04
0.04
0.04
0.04
0.02
0.02
0.02
0.01
0.02
0.01
0.01
0.00
0.02
0.01
0.00
0.00
0.02
0.04
0.02
0.02
0.07
0.06
0.06
0.07
0.16
0.21
0.10
0.21
0.46
0.43
0.21
0.21
0.00
0.01
0.00
0.04
0.02
0.00
0.02
0.02
0.05
0.06
0.01
0.79
0.33
0.65
0.35
0.61
0.38
0.02
0.02
0.00
0.00
0.00
0.02
0.04
0.02
0.04
0.02
0.02
0.04
0.02
0.02
0.04
0.00
0.01
0.04
0.02
0.07
0.07
0.09
0.14
0.19
0.17
0.19
0.17
0.16
0.14
0.08
0.04
0.02
0.02
0.07
0.09
0.10
0.11
0.10
0.11
0.10
0.10
0.10
0.09
0.09
0.11
0.10
0.10
0.11
0.11
0.11
0.10
0.11
0.10
0.16
0.11
0.11
0.11
0.11
0.16
0.11
0.11
0.11
0.16
0.11
0.10
0.10
0.16
0.10
0.11
0.21
0.33
0.16
0.41
0.43
0.47
0.30
0.30
0.02
0.00
0.04
0.06
0.04
0.04
0.00
0.04
0.02
0.00
0.02
0.78
0.32
0.58
0.33
0.65
0.40
0.04
0.04
0.03
0.02
0.02
0.02
0.04
0.04
0.04
0.04
0.02
0.03
0.03
0.03
0.04
0.05
0.07
0.07
0.09
0.15
0.17
0.19
0.21
0.24
0.25
0.25
0.24
0.22
0.19
0.16
0.09
0.07
0.02
0.02
0.01
0.00
0.04
0.02
0.00
0.02
0.00
0.04
0.02
0.01
0.00
0.02
0.01
0.00
0.00
0.00
0.00
0.00
0.02
0.02
0.02
0.02
0.04
0.02
0.02
0.04
0.03
0.02
0.04
0.03
0.04
0.05
0.03
0.05
0.04
0.04
0.02
0.03
0.03
0.09
0.02
0.03
0.07
0.14
0.16
0.15
0.09
0.09
0.14
0.14
0.15
0.24
0.08
0.07
0.30
0.58
0.63
0.70
0.65
0.38
0.19
0.19
0.19
0.19
0.15
0.19
0.19
0.17
0.16
0.19
0.19
0.19
0.19
0.17
0.19
0.19
0.22
0.25
0.25
0.26
0.33
0.37
0.35
0.38
0.44
0.41
0.40
0.37
0.32
0.26
0.25
0.22
0.20
0.22
0.17
0.16
0.16
0.17
0.17
0.19
0.19
0.19
0.16
0.19
0.17
0.16
0.16
0.16
0.19
0.17
0.16
0.17
0.16
0.11
0.15
0.14
0.14
0.14
0.09
0.11
0.09
0.11
0.09
0.11
0.09
0.09
0.07
0.07
0.05
0.07
0.04
0.02
0.04
0.03
0.15
0.16
0.14
0.11
0.14
0.17
0.16
0.15
0.26
0.15
0.19
0.50
0.66
0.68
0.65
0.65
0.58
0.21
0.22
0.21
0.19
0.19
0.19
0.19
0.19
0.17
0.17
0.16
0.17
0.17
0.17
0.16
0.19
0.17
0.19
0.22
0.21
0.24
0.25
0.25
0.26
0.28
0.26
0.25
0.25
0.22
0.19
0.19
0.14
0.09
0.08
0.05
0.04
0.04
0.03
0.04
0.04
0.03
0.03
0.03
0.02
0.03
0.02
0.02
0.02
0.02
0.04
0.02
0.04
0.02
0.04
0.04
0.04
0.02
0.02
0.04
0.04
0.04
0.04
0.04
0.02
0.04
0.02
0.02
0.07
0.04
0.06
0.04
0.33
0.09
0.04
0.02
0.07
0.05
0.03
0.03
0.04
0.02
0.01
0.03
0.09
0.02
0.02
0.68
0.43
0.68
0.52
0.55
0.31
0.07
0.07
0.05
0.02
0.04
0.03
0.02
0.04
0.02
0.02
0.02
0.02
0.02
0.02
0.04
0.03
0.03
0.05
0.08
0.10
0.14
0.15
0.19
0.22
0.22
0.21
0.21
0.19
0.15
0.09
0.05
0.04
0.00
0.07
0.09
0.11
0.21
0.11
0.10
0.16
0.11
0.11
0.10
0.10
0.10
0.11
0.10
0.10
0.11
0.11
0.16
0.30
0.09
0.02
0.09
0.24
0.56
0.85
0.91
0.91
0.94
0.94
0.94
0.94
0.88
0.91
0.87
0.86
0.70
0.19
0.52
0.67
0.77
0.74
0.78
0.79
0.78
0.79
0.81
0.86
0.87
0.89
0.90
0.93
0.95
0.95
0.97
0.98
0.99
0.99
0.99
0.99
0.99
0.98
0.95
0.89
0.81
0.70
0.66
0.58
0.46
0.33
0.30
0.30
0.21
0.21
0.21
0.21
0.11
0.11
0.09
0.10
0.10
0.07
0.04
0.04
0.02
0.04
0.02
0.02
0.02
0.00
0.01
0.02
0.01
0.01
0.00
0.02
0.02
0.00
0.02
0.04
0.04
0.04
0.06
0.06
0.06
0.06
0.06
0.09
0.06
0.07
0.07
0.09
0.09
0.09
0.07
0.09
0.10
0.09
0.10
0.09
0.10
0.10
0.10
0.07
0.09
0.09
0.09
0.07
0.10
0.11
0.16
0.11
0.46
0.33
0.11
0.10
0.04
0.04
0.04
0.02
0.00
0.01
0.01
0.02
0.15
0.01
0.02
0.68
0.28
0.25
0.37
0.41
0.26
0.07
0.08
0.07
0.04
0.03
0.03
0.03
0.03
0.02
0.03
0.04
0.05
0.03
0.05
0.07
0.10
0.10
0.09
0.15
0.19
0.21
0.24
0.25
0.26
0.28
0.28
0.28
0.28
0.26
0.26
0.24
0.20
0.15
0.09
0.10
0.07
0.03
0.03
0.02
0.01
0.02
0.04
0.01
0.04
0.01
0.02
0.01
0.02
0.07
0.22
0.43
0.78
0.80
0.47
0.25
0.95
1.00
1.00
1.00
1.00
0.95
0.87
0.98
1.00
1.00
0.99
0.84
0.02
0.08
0.24
0.30
0.38
0.51
0.55
0.61
0.65
0.70
0.77
0.80
0.84
0.86
0.89
0.91
0.91
0.92
0.92
0.93
0.93
0.93
0.92
0.91
0.90
0.85
0.77
0.52
0.37
0.25
0.20
0.14
0.09
0.09
0.09
0.09
0.10
0.07
0.07
0.07
0.07
0.07
0.07
0.08
0.05
0.07
0.07
0.05
0.07
0.05
0.05
0.05
0.05
0.05
0.05
0.04
0.05
0.03
0.04
0.03
0.04
0.04
0.04
0.04
0.04
0.04
0.05
0.05
0.04
0.05
0.04
0.07
0.04
0.07
0.07
0.05
0.07
0.05
0.05
0.07
0.07
0.07
0.07
0.07
0.07
0.07
0.04
0.02
0.03
0.00
0.02
0.21
0.00
0.02
0.04
0.08
0.07
0.07
0.04
0.04
0.04
0.04
0.07
0.14
0.07
0.67
0.07
0.35
0.25
0.58
0.50
0.19
0.11
0.08
0.07
0.07
0.07
0.04
0.04
0.04
0.04
0.04
0.02
0.02
0.02
0.03
0.03
0.05
0.04
0.07
0.10
0.10
0.09
0.14
0.17
0.19
0.19
0.19
0.19
0.21
0.21
0.20
0.19
0.16
0.09
0.10
0.07
0.05
0.04
0.02
0.04
0.02
0.02
0.04
0.04
0.02
0.02
0.04
0.02
0.02
0.02
0.04
0.02
0.04
0.04
0.02
0.04
0.02
0.00
0.02
0.02
0.02
0.06
0.00
0.07
0.01
0.41
0.06
0.04
0.04
0.08
0.07
0.05
0.03
0.04
0.03
0.04
0.04
0.16
0.04
0.04
0.67
0.44
0.52
0.55
0.52
0.31
0.08
0.08
0.07
0.07
0.05
0.07
0.04
0.05
0.05
0.07
0.07
0.07
0.07
0.10
0.08
0.09
0.09
0.11
0.14
0.19
0.20
0.22
0.25
0.25
0.25
0.25
0.24
0.22
0.17
0.11
0.08
0.05
0.03
0.02
0.01
0.02
0.00
0.01
0.00
0.01
0.01
0.04
0.00
0.01
0.01
0.02
0.04
0.02
0.00
0.01
0.00
0.00
0.02
0.00
0.02
0.00
0.02
0.00
0.02
0.00
0.00
0.00
0.04
0.10
0.02
0.09
0.06
0.43
0.09
0.06
0.00
0.04
0.03
0.02
0.02
0.02
0.04
0.04
0.03
0.09
0.00
0.33
0.55
0.47
0.61
0.70
0.52
0.24
0.08
0.07
0.07
0.07
0.05
0.07
0.04
0.07
0.05
0.07
0.07
0.08
0.07
0.07
0.07
0.09
0.09
0.15
0.16
0.20
0.22
0.25
0.26
0.25
0.28
0.25
0.26
0.25
0.20
0.19
0.15
0.10
0.08
0.04
0.04
0.05
0.04
0.05
0.07
0.07
0.07
0.07
0.07
0.08
0.09
0.10
0.10
0.10
0.08
0.08
0.09
0.10
0.09
0.10
0.09
0.10
0.09
0.09
0.10
0.09
0.09
0.10
0.05
0.09
0.04
0.04
0.02
0.05
0.07
0.14
0.17
0.16
0.14
0.09
0.09
0.14
0.15
0.15
0.22
0.19
0.33
0.24
0.63
0.37
0.73
0.63
0.25
0.22
0.19
0.17
0.17
0.17
0.16
0.16
0.15
0.15
0.17
0.17
0.17
0.17
0.19
0.20
0.19
0.21
0.22
0.25
0.25
0.31
0.31
0.31
0.33
0.33
0.32
0.28
0.26
0.21
0.22
0.17
0.15
0.14
0.09
0.10
0.09
0.09
0.09
0.09
0.10
0.09
0.10
0.10
0.09
0.09
0.09
0.09
0.09
0.09
0.09
0.09
0.09
0.09
0.09
0.09
0.09
0.09
0.10
0.10
0.10
0.10
0.04
0.08
0.03
0.05
0.07
0.02
0.02
0.07
0.09
0.11
0.09
0.09
0.09
0.09
0.09
0.11
0.20
0.08
0.10
0.02
0.55
0.37
0.61
0.55
0.24
0.09
0.09
0.10
0.07
0.07
0.07
0.08
0.07
0.07
0.08
0.08
0.08
0.07
0.07
0.08
0.09
0.09
0.11
0.14
0.16
0.19
0.22
0.22
0.24
0.25
0.24
0.21
0.19
0.16
0.09
0.08
0.05
0.03
0.02
0.02
0.01
0.01
0.02
0.02
0.02
0.02
0.04
0.04
0.04
0.02
0.01
0.02
0.02
0.02
0.02
0.02
0.02
0.01
0.01
0.02
0.01
0.00
0.00
0.00
0.02
0.01
0.02
0.11
0.06
0.09
0.09
0.43
0.11
0.10
0.04
0.04
0.02
0.04
0.00
0.02
0.01
0.02
0.01
0.10
0.10
0.16
0.70
0.43
0.65
0.55
0.47
0.22
0.02
0.02
0.01
0.01
0.00
0.00
0.02
0.00
0.00
0.00
0.02
0.02
0.00
0.00
0.01
0.01
0.02
0.02
0.07
0.08
0.09
0.14
0.16
0.19
0.17
0.19
0.16
0.15
0.10
0.05
0.04
0.01
0.06
0.07
0.09
0.10
0.10
0.10
0.09
0.07
0.09
0.09
0.09
0.09
0.07
0.07
0.07
0.07
0.06
0.07
0.07
0.06
0.07
0.06
0.04
0.06
0.07
0.04
0.04
0.02
0.04
0.04
0.06
0.04
0.07
0.16
0.07
0.16
0.09
0.46
0.11
0.11
0.04
0.03
0.04
0.04
0.01
0.01
0.00
0.02
0.02
0.09
0.07
0.09
0.63
0.47
0.58
0.56
0.47
0.26
0.04
0.05
0.03
0.03
0.02
0.03
0.02
0.03
0.02
0.04
0.05
0.03
0.04
0.07
0.10
0.08
0.09
0.09
0.15
0.16
0.20
0.22
0.24
0.26
0.25
0.26
0.25
0.21
0.17
0.11
0.07
0.03
0.04
0.01
0.02
0.02
0.02
0.02
0.02
0.02
0.00
0.00
0.02
0.01
0.04
0.04
0.04
0.02
0.02
0.02
0.02
0.02
0.02
0.02
0.02
0.02
0.01
0.02
0.00
0.02
0.00
0.01
0.00
0.00
0.00
0.07
0.10
0.01
0.09
0.07
0.41
0.11
0.09
0.02
0.04
0.04
0.04
0.03
0.02
0.04
0.04
0.07
0.14
0.04
0.21
0.03
0.47
0.35
0.65
0.50
0.24
0.15
0.09
0.09
0.10
0.08
0.07
0.08
0.07
0.07
0.08
0.07
0.07
0.08
0.08
0.09
0.09
0.14
0.16
0.19
0.20
0.21
0.25
0.26
0.26
0.25
0.24
0.21
0.19
0.15
0.08
0.07
0.04
0.04
0.01
0.02
0.02
0.01
0.00
0.00
0.02
0.04
0.04
0.02
0.04
0.03
0.04
0.03
0.04
0.05
0.07
0.05
0.05
0.04
0.05
0.04
0.04
0.07
0.05
0.07
0.03
0.05
0.04
0.04
0.03
0.02
0.04
0.00
0.01
0.30
0.09
0.04
0.01
0.05
0.05
0.05
0.05
0.04
0.05
0.05
0.07
0.15
0.02
0.10
0.16
0.61
0.40
0.58
0.47
0.25
0.07
0.07
0.02
0.02
0.02
0.02
0.02
0.01
0.00
0.04
0.04
0.02
0.04
0.01
0.04
0.04
0.02
0.04
0.07
0.08
0.10
0.09
0.15
0.16
0.17
0.16
0.14
0.09
0.07
0.03
0.00
0.02
0.06
0.10
0.11
0.16
0.21
0.16
0.21
0.21
0.16
0.16
0.16
0.16
0.11
0.11
0.11
0.11
0.16
0.11
0.10
0.11
0.10
0.10
0.10
0.09
0.10
0.10
0.10
0.09
0.10
0.10
0.10
0.09
0.10
0.25
0.33
0.25
0.30
0.50
0.47
0.33
0.33
0.02
0.04
0.04
0.09
0.06
0.04
0.04
0.04
0.02
0.07
0.04
0.79
0.35
0.65
0.35
0.58
0.37
0.02
0.03
0.04
0.01
0.00
0.01
0.00
0.01
0.00
0.02
0.01
0.00
0.00
0.00
0.01
0.02
0.04
0.02
0.03
0.07
0.10
0.11
0.14
0.17
0.19
0.19
0.17
0.16
0.09
0.08
0.02
0.00
0.04
0.07
0.11
0.10
0.16
0.10
0.11
0.11
0.11
0.11
0.11
0.16
0.16
0.11
0.11
0.11
0.21
0.11
0.16
0.11
0.11
0.16
0.16
0.11
0.16
0.16
0.16
0.11
0.16
0.11
0.16
0.21
0.21
0.25
0.30
0.43
0.30
0.46
0.41
0.58
0.43
0.41
0.10
0.07
0.09
0.09
0.11
0.10
0.09
0.11
0.06
0.01
0.10
0.71
0.09
0.48
0.38
0.70
0.43
0.09
0.03
0.03
0.02
0.01
0.01
0.01
0.00
0.00
0.00
0.00
0.01
0.00
0.01
0.00
0.02
0.02
0.04
0.03
0.07
0.09
0.11
0.16
0.19
0.20
0.22
0.20
0.17
0.14
0.10
0.05
0.02
0.02
0.06
0.07
0.10
0.10
0.16
0.10
0.10
0.09
0.07
0.07
0.07
0.07
0.06
0.07
0.04
0.06
0.06
0.07
0.06
0.04
0.07
0.07
0.07
0.04
0.04
0.07
0.09
0.06
0.06
0.07
0.09
0.07
0.07
0.04
0.06
0.06
0.07
0.10
0.09
0.09
0.06
0.46
0.11
0.07
0.04
0.04
0.04
0.04
0.02
0.03
0.05
0.07
0.07
0.15
0.02
0.00
0.37
0.50
0.47
0.65
0.58
0.30
0.16
0.17
0.16
0.16
0.16
0.15
0.16
0.17
0.17
0.17
0.19
0.19
0.19
0.20
0.20
0.22
0.24
0.26
0.25
0.30
0.35
0.37
0.37
0.41
0.38
0.40
0.37
0.32
0.26
0.25
0.21
0.20
0.16
0.16
0.15
0.14
0.16
0.14
0.14
0.16
0.15
0.17
0.19
0.17
0.15
0.20
0.16
0.17
0.19
0.19
0.19
0.19
0.19
0.19
0.19
0.19
0.20
0.20
0.17
0.17
0.17
0.19
0.19
0.17
0.17
0.19
0.17
0.11
0.19
0.14
0.15
0.03
0.08
0.14
0.14
0.21
0.21
0.21
0.22
0.22
0.22
0.21
0.21
0.31
0.20
0.10
0.02
0.76
0.68
0.79
0.70
0.52
0.24
0.25
0.21
0.22
0.22
0.19
0.22
0.19
0.20
0.20
0.20
0.22
0.19
0.22
0.22
0.22
0.24
0.25
0.26
0.28
0.31
0.33
0.35
0.37
0.38
0.37
0.35
0.33
0.30
0.26
0.24
0.20
0.19
0.15
0.15
0.11
0.09
0.11
0.09
0.09
0.11
0.11
0.14
0.11
0.09
0.14
0.11
0.11
0.11
0.11
0.11
0.11
0.09
0.09
0.09
0.09
0.09
0.10
0.09
0.09
0.09
0.08
0.09
0.10
0.09
0.09
0.10
0.10
0.08
0.07
0.07
0.05
0.05
0.06
0.03
0.07
0.07
0.15
0.15
0.15
0.11
0.09
0.14
0.14
0.15
0.22
0.05
0.04
0.67
0.56
0.78
0.65
0.65
0.38
0.11
0.14
0.09
0.09
0.07
0.07
0.07
0.07
0.07
0.07
0.07
0.07
0.08
0.07
0.08
0.08
0.11
0.11
0.15
0.19
0.22
0.24
0.25
0.25
0.26
0.25
0.25
0.25
0.20
0.17
0.11
0.08
0.03
0.02
0.01
0.02
0.00
0.01
0.01
0.01
0.02
0.02
0.02
0.02
0.04
0.02
0.02
0.02
0.02
0.01
0.00
0.02
0.00
0.00
0.02
0.04
0.02
0.02
0.00
0.02
0.00
0.00
0.01
0.02
0.00
0.00
0.02
0.02
0.00
0.09
0.10
0.04
0.10
0.41
0.21
0.11
0.10
0.02
0.04
0.02
0.00
0.00
0.00
0.00
0.01
0.07
0.11
0.04
0.78
0.37
0.61
0.40
0.52
0.32
0.03
0.04
0.04
0.04
0.02
0.02
0.02
0.02
0.01
0.01
0.02
0.00
0.01
0.02
0.04
0.04
0.03
0.04
0.07
0.09
0.09
0.15
0.19
0.20
0.22
0.20
0.19
0.16
0.09
0.05
0.04
0.00
0.06
0.11
0.21
0.21
0.21
0.25
0.25
0.21
0.16
0.25
0.16
0.21
0.16
0.11
0.16
0.21
0.16
0.21
0.16
0.11
0.25
0.21
0.16
0.16
0.25
0.21
0.21
0.21
0.25
0.21
0.21
0.16
0.16
0.16
0.16
0.16
0.11
0.25
0.30
0.21
0.30
0.16
0.58
0.41
0.25
0.16
0.00
0.04
0.02
0.06
0.06
0.02
0.02
0.01
0.10
0.09
0.16
0.63
0.35
0.37
0.48
0.40
0.21
0.04
0.03
0.03
0.03
0.03
0.03
0.02
0.04
0.04
0.03
0.03
0.04
0.02
0.04
0.07
0.07
0.10
0.09
0.14
0.16
0.19
0.21
0.25
0.25
0.25
0.25
0.24
0.22
0.19
0.09
0.08
0.03
0.04
0.01
0.06
0.04
0.04
0.04
0.06
0.06
0.04
0.04
0.02
0.04
0.01
0.00
0.00
0.04
0.01
0.02
0.00
0.02
0.02
0.04
0.04
0.06
0.04
0.06
0.06
0.04
0.07
0.06
0.07
0.06
0.09
0.10
0.09
0.16
0.25
0.11
0.30
0.47
0.47
0.30
0.25
0.04
0.00
0.02
0.06
0.04
0.02
0.04
0.00
0.04
0.06
0.02
0.75
0.32
0.45
0.30
0.41
0.40
0.02
0.03
0.02
0.04
0.01
0.00
0.02
0.00
0.01
0.00
0.01
0.01
0.01
0.02
0.02
0.02
0.03
0.04
0.04
0.05
0.10
0.09
0.16
0.16
0.16
0.19
0.17
0.15
0.09
0.07
0.02
0.01
0.04
0.07
0.09
0.11
0.21
0.21
0.21
0.21
0.11
0.16
0.11
0.11
0.11
0.11
0.09
0.10
0.07
0.07
0.07
0.07
0.07
0.06
0.09
0.07
0.07
0.09
0.09
0.09
0.09
0.09
0.10
0.09
0.11
0.09
0.10
0.07
0.11
0.33
0.10
0.30
0.16
0.55
0.25
0.16
0.07
0.01
0.02
0.01
0.00
0.00
0.00
0.00
0.02
0.08
0.09
0.58
0.33
0.47
0.51
0.66
0.45
0.17
0.04
0.04
0.02
0.01
0.01
0.00
0.00
0.04
0.00
0.02
0.00
0.00
0.01
0.01
0.01
0.02
0.03
0.04
0.07
0.09
0.14
0.16
0.20
0.21
0.22
0.22
0.20
0.19
0.11
0.10
0.05
0.03
0.00
0.02
0.04
0.06
0.04
0.04
0.04
0.04
0.02
0.00
0.00
0.00
0.01
0.01
0.01
0.00
0.01
0.02
0.00
0.02
0.02
0.01
0.01
0.00
0.02
0.02
0.02
0.04
0.02
0.04
0.06
0.04
0.04
0.06
0.04
0.04
0.04
0.06
0.07
0.10
0.02
0.11
0.41
0.25
0.10
0.10
0.04
0.04
0.02
0.04
0.02
0.02
0.04
0.01
0.08
0.11
0.09
0.70
0.38
0.56
0.43
0.47
0.28
0.04
0.04
0.04
0.04
0.02
0.01
0.01
0.02
0.02
0.02
0.02
0.04
0.03
0.02
0.03
0.05
0.07
0.10
0.10
0.11
0.17
0.22
0.22
0.25
0.25
0.25
0.25
0.21
0.19
0.15
0.10
0.07
0.02
0.04
0.02
0.01
0.00
0.01
0.01
0.02
0.01
0.02
0.02
0.02
0.02
0.04
0.02
0.02
0.02
0.04
0.02
0.02
0.01
0.04
0.02
0.01
0.04
0.04
0.01
0.02
0.02
0.01
0.01
0.00
0.00
0.00
0.02
0.00
0.02
0.04
0.09
0.06
0.07
0.43
0.16
0.07
0.06
0.05
0.05
0.04
0.04
0.03
0.05
0.05
0.05
0.15
0.04
0.10
0.69
0.47
0.50
0.41
0.55
0.45
0.11
0.14
0.09
0.08
0.08
0.07
0.07
0.07
0.07
0.08
0.08
0.08
0.07
0.09
0.09
0.09
0.14
0.17
0.19
0.21
0.24
0.25
0.26
0.30
0.30
0.30
0.28
0.26
0.20
0.19
0.09
0.10
0.05
0.02
0.02
0.01
0.02
0.02
0.01
0.04
0.04
0.02
0.02
0.02
0.04
0.02
0.04
0.04
0.02
0.04
0.02
0.02
0.04
0.02
0.02
0.02
0.02
0.04
0.02
0.02
0.02
0.04
0.02
0.04
0.04
0.02
0.04
0.02
0.01
0.06
0.02
0.06
0.10
0.25
0.06
0.07
0.04
0.05
0.04
0.04
0.05
0.04
0.04
0.04
0.15
0.03
0.05
0.69
0.44
0.56
0.45
0.51
0.47
0.09
0.09
0.10
0.07
0.07
0.07
0.07
0.07
0.05
0.05
0.05
0.07
0.07
0.07
0.07
0.08
0.08
0.09
0.09
0.15
0.19
0.20
0.21
0.25
0.25
0.25
0.25
0.22
0.19
0.15
0.09
0.07
0.04
0.02
0.01
0.02
0.02
0.02
0.04
0.04
0.04
0.02
0.02
0.02
0.00
0.00
0.02
0.02
0.04
0.02
0.00
0.00
0.02
0.04
0.04
0.06
0.00
0.02
0.00
0.04
0.02
0.04
0.04
0.06
0.04
0.06
0.10
0.16
0.09
0.11
0.41
0.33
0.10
0.10
0.04
0.02
0.01
0.02
0.02
0.02
0.01
0.02
0.10
0.06
0.02
0.76
0.40
0.70
0.47
0.58
0.35
0.03
0.05
0.02
0.04
0.04
0.02
0.02
0.02
0.04
0.02
0.02
0.02
0.02
0.02
0.04
0.04
0.04
0.04
0.08
0.10
0.09
0.15
0.19
0.20
0.19
0.22
0.19
0.16
0.09
0.07
0.03
0.02
0.04
0.06
0.09
0.09
0.09
0.07
0.09
0.07
0.07
0.06
0.07
0.07
0.06
0.06
0.04
0.06
0.07
0.06
0.04
0.06
0.06
0.06
0.06
0.06
0.06
0.04
0.04
0.02
0.04
0.04
0.04
0.02
0.00
0.02
0.02
0.02
0.04
0.07
0.11
0.04
0.11
0.33
0.41
0.11
0.10
0.02
0.04
0.04
0.01
0.02
0.02
0.02
0.04
0.05
0.02
0.05
0.77
0.37
0.63
0.37
0.72
0.48
0.08
0.08
0.07
0.07
0.04
0.04
0.05
0.03
0.03
0.04
0.05
0.07
0.05
0.05
0.07
0.07
0.10
0.10
0.14
0.17
0.20
0.21
0.26
0.28
0.31
0.31
0.26
0.26
0.24
0.22
0.15
0.11
0.07
0.07
0.03
0.02
0.02
0.02
0.03
0.03
0.04
0.04
0.07
0.05
0.07
0.07
0.05
0.07
0.08
0.08
0.08
0.09
0.09
0.10
0.10
0.09
0.09
0.09
0.08
0.09
0.09
0.09
0.09
0.09
0.09
0.10
0.10
0.10
0.10
0.10
0.07
0.03
0.07
0.02
0.02
0.04
0.03
0.03
0.11
0.15
0.09
0.10
0.09
0.11
0.10
0.11
0.16
0.09
0.19
0.69
0.48
0.65
0.40
0.72
0.56
0.19
0.19
0.16
0.17
0.14
0.19
0.15
0.16
0.15
0.15
0.16
0.19
0.16
0.17
0.19
0.19
0.21
0.24
0.25
0.26
0.33
0.33
0.37
0.40
0.40
0.40
0.37
0.33
0.30
0.25
0.21
0.17
0.17
0.11
0.14
0.10
0.09
0.09
0.11
0.09
0.11
0.09
0.09
0.09
0.14
0.11
0.11
0.11
0.14
0.11
0.14
0.11
0.15
0.14
0.14
0.14
0.11
0.09
0.14
0.11
0.09
0.09
0.11
0.09
0.14
0.11
0.09
0.09
0.08
0.04
0.10
0.04
0.02
0.02
0.04
0.04
0.09
0.11
0.11
0.11
0.14
0.11
0.11
0.15
0.20
0.09
0.15
0.67
0.47
0.65
0.43
0.61
0.61
0.17
0.17
0.14
0.15
0.14
0.09
0.11
0.09
0.14
0.09
0.11
0.11
0.11
0.11
0.11
0.14
0.16
0.19
0.19
0.22
0.22
0.25
0.25
0.26
0.28
0.30
0.28
0.25
0.22
0.20
0.16
0.15
0.10
0.07
0.07
0.04
0.04
0.04
0.04
0.03
0.05
0.04
0.04
0.03
0.05
0.03
0.03
0.03
0.03
0.03
0.02
0.02
0.02
0.02
0.01
0.04
0.01
0.01
0.00
0.00
0.04
0.02
0.04
0.04
0.06
0.04
0.04
0.11
0.11
0.11
0.11
0.46
0.33
0.16
0.11
0.02
0.02
0.01
0.06
0.04
0.04
0.04
0.06
0.04
0.16
0.06
0.81
0.33
0.58
0.33
0.55
0.33
0.04
0.02
0.04
0.07
0.10
0.10
0.09
0.10
0.16
0.09
0.10
0.10
0.09
0.10
0.10
0.07
0.04
0.00
0.01
0.03
0.05
0.08
0.10
0.14
0.15
0.16
0.14
0.09
0.07
0.03
0.04
0.04
0.10
0.16
0.21
0.30
0.25
0.30
0.21
0.25
0.16
0.21
0.16
0.10
0.16
0.16
0.21
0.21
0.21
0.21
0.25
0.25
0.25
0.30
0.33
0.33
0.30
0.33
0.37
0.33
0.33
0.30
0.33
0.30
0.30
0.30
0.30
0.33
0.30
0.37
0.47
0.41
0.52
0.41
0.64
0.47
0.46
0.33
0.09
0.11
0.16
0.25
0.30
0.21
0.21
0.16
0.00
0.33
0.68
0.33
0.41
0.43
0.58
0.37
0.11
0.04
0.02
0.04
0.07
0.09
0.09
0.09
0.07
0.09
0.09
0.07
0.07
0.06
0.06
0.04
0.00
0.02
0.04
0.03
0.07
0.10
0.11
0.15
0.17
0.17
0.19
0.17
0.11
0.08
0.03
0.01
0.06
0.10
0.16
0.21
0.21
0.30
0.30
0.21
0.25
0.30
0.30
0.25
0.30
0.25
0.25
0.25
0.30
0.16
0.25
0.21
0.21
0.16
0.16
0.21
0.16
0.16
0.11
0.11
0.11
0.16
0.10
0.11
0.11
0.16
0.11
0.11
0.10
0.16
0.16
0.33
0.25
0.33
0.21
0.58
0.33
0.30
0.21
0.01
0.00
0.02
0.07
0.07
0.06
0.02
0.02
0.05
0.09
0.55
0.30
0.43
0.33
0.63
0.43
0.14
0.03
0.03
0.03
0.04
0.02
0.02
0.04
0.02
0.03
0.04
0.03
0.04
0.05
0.05
0.05
0.10
0.09
0.14
0.17
0.20
0.21
0.25
0.26
0.28
0.28
0.28
0.25
0.24
0.19
0.15
0.09
0.07
0.02
0.04
0.01
0.00
0.01
0.01
0.00
0.01
0.01
0.01
0.02
0.01
0.02
0.02
0.04
0.02
0.02
0.02
0.04
0.02
0.02
0.04
0.04
0.02
0.04
0.02
0.04
0.04
0.02
0.04
0.04
0.04
0.04
0.04
0.02
0.02
0.09
0.04
0.07
0.00
0.25
0.06
0.02
0.04
0.08
0.07
0.07
0.07
0.05
0.07
0.08
0.09
0.14
0.10
0.41
0.17
0.61
0.37
0.65
0.58
0.25
0.15
0.14
0.09
0.09
0.09
0.09
0.10
0.10
0.10
0.10
0.09
0.10
0.10
0.10
0.09
0.11
0.11
0.14
0.15
0.19
0.19
0.21
0.25
0.25
0.25
0.24
0.22
0.20
0.19
0.09
0.08
0.04
0.04
0.00
0.04
0.06
0.06
0.06
0.06
0.07
0.06
0.02
0.04
0.02
0.02
0.02
0.01
0.01
0.02
0.01
0.01
0.02
0.01
0.00
0.01
0.01
0.02
0.02
0.00
0.01
0.02
0.00
0.00
0.00
0.00
0.00
0.04
0.04
0.11
0.07
0.11
0.10
0.47
0.21
0.09
0.09
0.03
0.02
0.02
0.01
0.01
0.00
0.01
0.00
0.07
0.11
0.00
0.79
0.40
0.61
0.35
0.55
0.37
0.04
0.04
0.02
0.01
0.00
0.02
0.02
0.02
0.00
0.02
0.04
0.00
0.00
0.01
0.01
0.04
0.02
0.04
0.04
0.07
0.10
0.15
0.19
0.20
0.21
0.22
0.20
0.20
0.14
0.09
0.05
0.04
0.00
0.06
0.07
0.10
0.11
0.11
0.10
0.11
0.10
0.10
0.10
0.09
0.10
0.09
0.10
0.09
0.10
0.07
0.07
0.09
0.09
0.09
0.07
0.07
0.09
0.10
0.10
0.09
0.09
0.10
0.10
0.10
0.10
0.11
0.10
0.10
0.16
0.16
0.21
0.11
0.52
0.30
0.11
0.09
0.04
0.02
0.04
0.00
0.01
0.01
0.02
0.01
0.10
0.07
0.02
0.72
0.45
0.55
0.38
0.51
0.35
0.03
0.07
0.04
0.03
0.03
0.02
0.03
0.03
0.03
0.03
0.03
0.04
0.05
0.04
0.07
0.07
0.10
0.09
0.14
0.17
0.20
0.22
0.25
0.26
0.26
0.25
0.25
0.21
0.16
0.09
0.07
0.03
0.01
0.00
0.02
0.07
0.07
0.07
0.07
0.04
0.06
0.06
0.04
0.02
0.02
0.02
0.00
0.02
0.00
0.02
0.00
0.00
0.00
0.01
0.02
0.02
0.00
0.02
0.02
0.04
0.00
0.02
0.04
0.02
0.02
0.00
0.01
0.00
0.00
0.07
0.00
0.09
0.02
0.41
0.06
0.04
0.02
0.05
0.05
0.04
0.03
0.02
0.03
0.03
0.07
0.15
0.04
0.33
0.03
0.47
0.25
0.61
0.48
0.21
0.09
0.09
0.10
0.10
0.08
0.10
0.08
0.10
0.09
0.07
0.08
0.08
0.10
0.09
0.11
0.11
0.16
0.20
0.21
0.25
0.26
0.30
0.30
0.32
0.31
0.28
0.28
0.24
0.19
0.09
0.07
0.04
0.02
0.01
0.04
0.02
0.04
0.06
0.00
0.04
0.00
0.00
0.02
0.01
0.04
0.02
0.02
0.01
0.04
0.03
0.02
0.01
0.02
0.02
0.02
0.02
0.02
0.02
0.02
0.01
0.00
0.01
0.01
0.01
0.01
0.02
0.07
0.02
0.06
0.04
0.33
0.10
0.09
0.06
0.04
0.05
0.04
0.04
0.02
0.03
0.04
0.02
0.15
0.02
0.03
0.70
0.48
0.47
0.40
0.41
0.45
0.08
0.10
0.05
0.05
0.04
0.05
0.04
0.04
0.05
0.04
0.04
0.05
0.07
0.07
0.07
0.08
0.10
0.11
0.15
0.17
0.20
0.22
0.26
0.26
0.26
0.26
0.26
0.25
0.20
0.17
0.09
0.08
0.04
0.02
0.02
0.02
0.01
0.01
0.02
0.01
0.01
0.01
0.00
0.01
0.01
0.01
0.00
0.01
0.00
0.04
0.01
0.01
0.02
0.02
0.02
0.01
0.02
0.02
0.02
0.04
0.00
0.02
0.01
0.02
0.02
0.04
0.04
0.02
0.04
0.02
0.04
0.02
0.30
0.10
0.04
0.02
0.07
0.07
0.05
0.03
0.04
0.04
0.05
0.07
0.09
0.00
0.02
0.75
0.51
0.72
0.52
0.65
0.47
0.09
0.11
0.11
0.09
0.09
0.09
0.09
0.09
0.10
0.09
0.11
0.11
0.09
0.11
0.14
0.15
0.15
0.19
0.19
0.21
0.25
0.26
0.31
0.32
0.35
0.35
0.32
0.28
0.25
0.22
0.17
0.11
0.09
0.07
0.08
0.05
0.05
0.05
0.07
0.05
0.07
0.07
0.08
0.08
0.08
0.08
0.08
0.09
0.08
0.10
0.08
0.10
0.08
0.10
0.09
0.09
0.09
0.10
0.10
0.10
0.09
0.09
0.10
0.09
0.09
0.09
0.09
0.08
0.07
0.09
0.05
0.07
0.07
0.03
0.07
0.08
0.17
0.17
0.16
0.15
0.14
0.15
0.16
0.17
0.24
0.05
0.02
0.21
0.73
0.78
0.80
0.68
0.38
0.21
0.21
0.22
0.20
0.20
0.20
0.19
0.20
0.22
0.21
0.22
0.22
0.22
0.24
0.24
0.25
0.26
0.25
0.28
0.32
0.37
0.40
0.44
0.47
0.47
0.45
0.44
0.37
0.32
0.25
0.24
0.20
0.19
0.15
0.15
0.14
0.14
0.11
0.11
0.14
0.14
0.09
0.09
0.15
0.14
0.11
0.14
0.11
0.11
0.14
0.14
0.09
0.09
0.09
0.11
0.09
0.09
0.09
0.11
0.11
0.09
0.11
0.09
0.14
0.11
0.11
0.11
0.15
0.14
0.11
0.11
0.11
0.11
0.07
0.14
0.05
0.09
0.00
0.07
0.07
0.09
0.19
0.16
0.16
0.16
0.15
0.16
0.15
0.16
0.24
0.09
0.07
0.05
0.63
0.58
0.78
0.63
0.35
0.22
0.24
0.22
0.22
0.20
0.19
0.20
0.19
0.19
0.19
0.22
0.19
0.19
0.20
0.22
0.22
0.24
0.25
0.26
0.30
0.30
0.35
0.37
0.40
0.40
0.37
0.37
0.32
0.26
0.22
0.19
0.15
0.09
0.08
0.07
0.05
0.07
0.05
0.07
0.05
0.07
0.07
0.08
0.07
0.07
0.07
0.08
0.09
0.10
0.08
0.08
0.10
0.08
0.08
0.08
0.10
0.08
0.08
0.07
0.08
0.10
0.10
0.07
0.08
0.08
0.08
0.07
0.08
0.08
0.07
0.03
0.02
0.03
0.02
0.10
0.04
0.02
0.02
0.08
0.09
0.10
0.08
0.10
0.10
0.10
0.10
0.16
0.02
0.05
0.70
0.45
0.58
0.41
0.51
0.47
0.09
0.09
0.07
0.07
0.05
0.04
0.04
0.05
0.04
0.03
0.05
0.05
0.03
0.04
0.05
0.05
0.07
0.10
0.09
0.14
0.19
0.19
0.21
0.25
0.25
0.25
0.25
0.21
0.19
0.14
0.09
0.07
0.02
0.01
0.00
0.02
0.06
0.02
0.04
0.06
0.06
0.04
0.06
0.06
0.04
0.06
0.04
0.04
0.07
0.07
0.07
0.06
0.07
0.10
0.09
0.09
0.07
0.10
0.09
0.10
0.09
0.09
0.10
0.11
0.09
0.07
0.10
0.09
0.09
0.06
0.09
0.10
0.07
0.16
0.30
0.11
0.37
0.41
0.50
0.25
0.30
0.07
0.00
0.04
0.07
0.09
0.06
0.07
0.07
0.00
0.16
0.07
0.84
0.25
0.51
0.30
0.65
0.41
0.02
0.01
0.04
0.02
0.07
0.07
0.07
0.07
0.09
0.07
0.09
0.07
0.06
0.07
0.06
0.02
0.02
0.02
0.03
0.07
0.10
0.14
0.16
0.19
0.22
0.22
0.22
0.19
0.14
0.09
0.04
0.02
0.02
0.07
0.11
0.11
0.21
0.21
0.21
0.11
0.21
0.25
0.21
0.21
0.11
0.16
0.11
0.25
0.16
0.16
0.21
0.11
0.16
0.11
0.16
0.16
0.16
0.10
0.11
0.11
0.16
0.16
0.11
0.10
0.16
0.10
0.10
0.10
0.10
0.11
0.10
0.10
0.11
0.16
0.21
0.37
0.16
0.41
0.43
0.56
0.37
0.41
0.10
0.04
0.06
0.07
0.10
0.11
0.09
0.09
0.06
0.02
0.25
0.74
0.02
0.41
0.35
0.63
0.38
0.05
0.01
0.04
0.04
0.06
0.07
0.09
0.10
0.09
0.09
0.10
0.06
0.07
0.04
0.04
0.04
0.00
0.02
0.04
0.05
0.07
0.09
0.16
0.19
0.22
0.21
0.21
0.20
0.16
0.10
0.07
0.03
0.00
0.06
0.10
0.11
0.11
0.11
0.10
0.06
0.10
0.07
0.09
0.06
0.07
0.02
0.06
0.06
0.06
0.06
0.02
0.04
0.06
0.04
0.02
0.04
0.02
0.02
0.02
0.00
0.02
0.02
0.01
0.04
0.01
0.02
0.02
0.01
0.02
0.02
0.04
0.04
0.02
0.04
0.02
0.02
0.02
0.02
0.04
0.01
0.06
0.02
0.33
0.10
0.04
0.02
0.07
0.05
0.04
0.03
0.04
0.05
0.04
0.07
0.17
0.02
0.02
0.64
0.41
0.41
0.48
0.47
0.33
0.10
0.11
0.08
0.07
0.07
0.07
0.07
0.05
0.07
0.07
0.05
0.07
0.07
0.07
0.07
0.11
0.14
0.15
0.20
0.21
0.25
0.25
0.28
0.32
0.35
0.32
0.31
0.26
0.24
0.19
0.16
0.09
0.10
0.07
0.04
0.02
0.02
0.02
0.03
0.02
0.04
0.02
0.03
0.03
0.03
0.04
0.03
0.04
0.04
0.04
0.04
0.03
0.05
0.07
0.03
0.04
0.04
0.04
0.04
0.04
0.05
0.04
0.03
0.04
0.04
0.04
0.04
0.03
0.04
0.03
0.02
0.02
0.03
0.02
0.02
0.06
0.01
0.07
0.06
0.30
0.09
0.04
0.02
0.07
0.05
0.03
0.03
0.02
0.04
0.03
0.05
0.07
0.04
0.68
0.16
0.44
0.26
0.58
0.48
0.15
0.07
0.07
0.07
0.04
0.03
0.03
0.04
0.03
0.04
0.03
0.05
0.04
0.04
0.04
0.05
0.07
0.08
0.10
0.11
0.16
0.19
0.21
0.24
0.26
0.26
0.26
0.25
0.22
0.17
0.14
0.07
0.05
0.04
0.02
0.02
0.06
0.06
0.06
0.06
0.06
0.07
0.07
0.06
0.07
0.07
0.06
0.06
0.06
0.06
0.07
0.04
0.06
0.06
0.06
0.06
0.06
0.07
0.06
0.07
0.06
0.06
0.09
0.09
0.09
0.07
0.07
0.09
0.10
0.09
0.09
0.07
0.21
0.21
0.21
0.25
0.55
0.46
0.30
0.25
0.00
0.04
0.00
0.04
0.02
0.04
0.06
0.04
0.02
0.11
0.02
0.84
0.35
0.61
0.35
0.65
0.41
0.04
0.03
0.04
0.01
0.01
0.00
0.01
0.02
0.01
0.02
0.01
0.02
0.00
0.00
0.02
0.02
0.01
0.03
0.07
0.10
0.09
0.15
0.19
0.21
0.24
0.22
0.24
0.21
0.20
0.11
0.07
0.03
0.02
0.02
0.04
0.07
0.09
0.10
0.10
0.10
0.09
0.09
0.09
0.09
0.10
0.09
0.09
0.10
0.10
0.09
0.11
0.10
0.09
0.10
0.07
0.09
0.09
0.10
0.09
0.10
0.07
0.10
0.10
0.10
0.10
0.10
0.10
0.10
0.10
0.10
0.11
0.10
0.11
0.10
0.10
0.11
0.33
0.21
0.30
0.21
0.58
0.41
0.25
0.21
0.00
0.04
0.02
0.04
0.04
0.07
0.06
0.04
0.07
0.21
0.07
0.82
0.30
0.50
0.30
0.50
0.35
0.02
0.04
0.01
0.04
0.02
0.01
0.04
0.04
0.04
0.04
0.04
0.04
0.06
0.02
0.00
0.01
0.02
0.03
0.07
0.09
0.09
0.16
0.22
0.24
0.26
0.24
0.25
0.24
0.20
0.15
0.10
0.04
0.02
0.02
0.04
0.07
0.07
0.07
0.06
0.07
0.09
0.06
0.06
0.06
0.09
0.06
0.06
0.07
0.06
0.06
0.02
0.07
0.02
0.04
0.22
0.32
0.19
0.16
0.99
1.00
1.00
1.00
1.00
0.95
0.90
0.99
1.00
1.00
0.98
0.71
0.07
0.24
0.25
0.33
0.35
0.41
0.45
0.55
0.47
0.58
0.76
0.80
0.85
0.88
0.90
0.91
0.91
0.92
0.92
0.92
0.92
0.92
0.91
0.90
0.87
0.81
0.65
0.45
0.30
0.22
0.15
0.11
0.07
0.08
0.07
0.07
0.05
0.03
0.07
0.05
0.07
0.05
0.04
0.05
0.07
0.04
0.04
0.07
0.05
0.07
0.05
0.07
0.05
0.07
0.05
0.05
0.07
0.07
0.08
0.07
0.05
0.10
0.07
0.08
0.07
0.08
0.07
0.07
0.07
0.07
0.07
0.07
0.07
0.05
0.05
0.05
0.05
0.05
0.05
0.05
0.05
0.05
0.05
0.04
0.04
0.07
0.05
0.05
0.05
0.07
0.05
0.07
0.05
0.07
0.07
0.08
0.05
0.08
0.08
0.10
0.08
0.08
0.05
0.07
0.03
0.05
0.11
0.01
0.02
0.07
0.14
0.14
0.09
0.11
0.09
0.11
0.09
0.15
0.25
0.09
0.06
0.52
0.45
0.47
0.68
0.58
0.37
0.16
0.19
0.17
0.15
0.15
0.11
0.09
0.09
0.09
0.09
0.09
0.09
0.09
0.09
0.11
0.09
0.16
0.17
0.19
0.20
0.21
0.22
0.25
0.25
0.25
0.26
0.25
0.28
0.28
0.25
0.26
0.24
0.22
0.17
0.14
0.09
0.09
0.08
0.08
0.07
0.07
0.07
0.07
0.05
0.07
0.07
0.05
0.05
0.07
0.21
0.21
0.26
0.47
0.65
0.83
0.91
0.83
0.45
0.37
0.70
0.89
0.93
0.95
0.92
0.79
0.08
0.33
0.10
0.01
0.03
0.01
0.04
0.11
0.02
0.02
0.04
0.14
0.17
0.17
0.17
0.20
0.21
0.24
0.25
0.26
0.30
0.30
0.30
0.26
0.25
0.22
0.17
0.09
0.08
0.07
0.04
0.03
0.04
0.04
0.02
0.02
0.02
0.01
0.01
0.01
0.01
0.01
0.02
0.02
0.01
0.01
0.02
0.01
0.00
0.01
0.00
0.02
0.00
0.02
0.00
0.00
0.00
0.01
0.02
0.00
0.00
0.01
0.02
0.02
0.02
0.02
0.01
0.02
0.01
0.01
0.01
0.00
0.01
0.00
0.04
0.00
0.00
0.02
0.04
0.02
0.04
0.00
0.02
0.04
0.02
0.00
0.04
0.02
0.00
0.00
0.02
0.00
0.02
0.00
0.02
0.00
0.02
0.04
0.09
0.06
0.09
0.41
0.33
0.09
0.07
0.02
0.04
0.03
0.03
0.02
0.04
0.02
0.02
0.09
0.02
0.08
0.81
0.31
0.45
0.26
0.56
0.45
0.10
0.09
0.08
0.07
0.07
0.03
0.04
0.02
0.02
0.04
0.02
0.04
0.02
0.02
0.03
0.03
0.05
0.08
0.09
0.11
0.15
0.19
0.22
0.20
0.21
0.22
0.21
0.25
0.22
0.21
0.19
0.19
0.14
0.09
0.07
0.05
0.03
0.04
0.02
0.04
0.02
0.04
0.02
0.04
0.02
0.04
0.02
0.04
0.04
0.04
0.04
0.04
0.02
0.04
0.01
0.02
0.02
0.02
0.01
0.01
0.01
0.01
0.01
0.01
0.06
0.00
0.10
0.04
0.46
0.25
0.11
0.04
0.03
0.03
0.03
0.01
0.02
0.02
0.02
0.02
0.15
0.02
0.05
0.72
0.40
0.40
0.35
0.44
0.44
0.09
0.15
0.10
0.07
0.07
0.07
0.10
0.08
0.10
0.10
0.09
0.09
0.10
0.09
0.09
0.16
0.15
0.16
0.20
0.22
0.24
0.25
0.26
0.30
0.31
0.26
0.25
0.25
0.22
0.16
0.11
0.05
0.05
0.02
0.04
0.01
0.02
0.04
0.02
0.01
0.01
0.01
0.04
0.02
0.01
0.02
0.02
0.02
0.04
0.02
0.02
0.03
0.02
0.02
0.02
0.04
0.04
0.01
0.02
0.02
0.02
0.01
0.00
0.09
0.04
0.16
0.06
0.47
0.25
0.10
0.06
0.02
0.04
0.02
0.02
0.04
0.04
0.02
0.02
0.15
0.04
0.11
0.69
0.47
0.41
0.50
0.45
0.35
0.07
0.07
0.04
0.03
0.03
0.04
0.03
0.04
0.02
0.04
0.04
0.02
0.02
0.03
0.04
0.05
0.07
0.08
0.09
0.16
0.17
0.22
0.24
0.25
0.25
0.26
0.25
0.24
0.19
0.15
0.09
0.07
0.04
0.02
0.01
0.01
0.00
0.00
0.01
0.01
0.02
0.02
0.00
0.00
0.00
0.00
0.00
0.01
0.00
0.00
0.00
0.01
0.01
0.01
0.04
0.01
0.02
0.02
0.02
0.01
0.02
0.00
0.01
0.01
0.00
0.09
0.02
0.09
0.06
0.41
0.10
0.06
0.02
0.07
0.05
0.05
0.03
0.04
0.03
0.03
0.02
0.10
0.06
0.02
0.84
0.45
0.73
0.47
0.68
0.43
0.07
0.07
0.07
0.05
0.04
0.04
0.04
0.05
0.04
0.05
0.07
0.07
0.07
0.08
0.10
0.09
0.11
0.14
0.19
0.20
0.22
0.25
0.25
0.32
0.32
0.31
0.30
0.28
0.25
0.20
0.16
0.09
0.07
0.05
0.03
0.02
0.02
0.04
0.02
0.04
0.02
0.03
0.03
0.02
0.02
0.02
0.02
0.04
0.02
0.02
0.01
0.02
0.01
0.02
0.04
0.01
0.00
0.00
0.01
0.02
0.01
0.02
0.02
0.00
0.02
0.02
0.00
0.02
0.06
0.09
0.04
0.10
0.25
0.16
0.06
0.06
0.05
0.05
0.03
0.04
0.02
0.03
0.02
0.03
0.10
0.02
0.02
0.80
0.50
0.70
0.44
0.65
0.44
0.07
0.10
0.07
0.04
0.03
0.04
0.05
0.03
0.02
0.03
0.03
0.05
0.04
0.05
0.07
0.07
0.10
0.11
0.11
0.19
0.22
0.25
0.25
0.25
0.30
0.28
0.26
0.25
0.21
0.17
0.09
0.07
0.02
0.02
0.01
0.02
0.02
0.00
0.01
0.01
0.00
0.02
0.01
0.02
0.02
0.02
0.02
0.04
0.02
0.02
0.02
0.04
0.03
0.02
0.04
0.04
0.02
0.04
0.04
0.02
0.02
0.02
0.02
0.04
0.02
0.02
0.04
0.04
0.00
0.04
0.01
0.06
0.00
0.25
0.06
0.02
0.01
0.10
0.10
0.07
0.07
0.05
0.07
0.07
0.07
0.16
0.04
0.04
0.69
0.52
0.56
0.51
0.55
0.38
0.10
0.15
0.09
0.10
0.10
0.10
0.07
0.10
0.08
0.10
0.08
0.10
0.09
0.10
0.09
0.09
0.16
0.17
0.20
0.22
0.26
0.25
0.30
0.31
0.32
0.32
0.30
0.25
0.21
0.19
0.14
0.09
0.08
0.07
0.02
0.03
0.02
0.02
0.02
0.03
0.04
0.03
0.05
0.03
0.03
0.02
0.05
0.04
0.05
0.03
0.03
0.04
0.04
0.02
0.03
0.03
0.03
0.05
0.03
0.03
0.03
0.03
0.03
0.04
0.03
0.03
0.03
0.04
0.02
0.04
0.00
0.00
0.33
0.07
0.02
0.00
0.07
0.05
0.05
0.02
0.03
0.03
0.04
0.05
0.14
0.02
0.01
0.70
0.50
0.55
0.47
0.47
0.41
0.07
0.08
0.07
0.05
0.05
0.04
0.04
0.03
0.04
0.05
0.03
0.04
0.05
0.07
0.07
0.07
0.08
0.10
0.09
0.14
0.16
0.19
0.22
0.24
0.25
0.22
0.22
0.22
0.16
0.10
0.07
0.04
0.01
0.04
0.07
0.09
0.07
0.10
0.11
0.09
0.11
0.10
0.10
0.10
0.09
0.09
0.09
0.10
0.07
0.06
0.06
0.06
0.07
0.06
0.06
0.06
0.06
0.07
0.09
0.06
0.06
0.09
0.07
0.07
0.07
0.09
0.07
0.07
0.09
0.10
0.25
0.11
0.21
0.25
0.56
0.25
0.25
0.10
0.02
0.02
0.06
0.06
0.07
0.06
0.06
0.04
0.04
0.33
0.55
0.69
0.45
0.63
0.56
0.47
0.22
0.02
0.02
0.02
0.04
0.02
0.02
0.02
0.01
0.01
0.01
0.01
0.01
0.02
0.02
0.01
0.02
0.02
0.04
0.07
0.10
0.14
0.16
0.20
0.20
0.21
0.22
0.19
0.17
0.09
0.05
0.04
0.00
0.09
0.10
0.21
0.16
0.21
0.11
0.21
0.09
0.09
0.09
0.10
0.07
0.09
0.06
0.07
0.07
0.06
0.06
0.07
0.06
0.09
0.06
0.06
0.06
0.06
0.04
0.04
0.06
0.07
0.06
0.07
0.04
0.07
0.06
0.06
0.06
0.09
0.07
0.09
0.10
0.07
0.10
0.30
0.11
0.30
0.11
0.50
0.30
0.21
0.09
0.02
0.00
0.00
0.00
0.04
0.04
0.00
0.02
0.08
0.21
0.43
0.67
0.44
0.58
0.50
0.48
0.25
0.05
0.04
0.02
0.04
0.02
0.02
0.02
0.02
0.02
0.02
0.03
0.03
0.03
0.05
0.05
0.07
0.10
0.11
0.16
0.19
0.21
0.24
0.26
0.28
0.30
0.30
0.26
0.25
0.21
0.19
0.14
0.09
0.07
0.03
0.02
0.02
0.03
0.03
0.02
0.03
0.05
0.04
0.04
0.04
0.05
0.05
0.05
0.03
0.03
0.05
0.07
0.04
0.04
0.04
0.05
0.03
0.03
0.05
0.04
0.03
0.02
0.03
0.02
0.02
0.03
0.05
0.03
0.02
0.05
0.04
0.04
0.05
0.07
0.04
0.04
0.04
0.07
0.02
0.01
0.06
0.02
0.02
0.08
0.09
0.09
0.08
0.10
0.08
0.10
0.10
0.14
0.09
0.09
0.62
0.21
0.55
0.41
0.72
0.61
0.28
0.19
0.19
0.17
0.16
0.19
0.16
0.17
0.16
0.16
0.17
0.19
0.17
0.19
0.19
0.22
0.20
0.22
0.24
0.26
0.32
0.30
0.35
0.37
0.37
0.38
0.38
0.35
0.31
0.25
0.25
0.19
0.16
0.11
0.09
0.10
0.05
0.07
0.05
0.05
0.05
0.05
0.04
0.05
0.05
0.07
0.07
0.07
0.07
0.07
0.07
0.07
0.07
0.07
0.07
0.05
0.04
0.04
0.04
0.04
0.04
0.04
0.03
0.04
0.05
0.04
0.03
0.04
0.05
0.07
0.05
0.03
0.03
0.02
0.03
0.01
0.02
0.10
0.00
0.04
0.03
0.09
0.09
0.09
0.09
0.10
0.09
0.09
0.14
0.20
0.07
0.21
0.00
0.61
0.55
0.76
0.61
0.32
0.15
0.15
0.15
0.11
0.09
0.09
0.09
0.09
0.09
0.09
0.09
0.09
0.09
0.10
0.09
0.09
0.14
0.15
0.17
0.20
0.22
0.25
0.25
0.25
0.28
0.28
0.26
0.25
0.19
0.15
0.09
0.07
0.04
0.02
0.04
0.01
0.01
0.02
0.00
0.01
0.00
0.02
0.01
0.00
0.00
0.02
0.01
0.02
0.01
0.00
0.02
0.00
0.00
0.00
0.04
0.02
0.01
0.00
0.02
0.02
0.02
0.01
0.00
0.02
0.02
0.00
0.00
0.00
0.02
0.00
0.01
0.01
0.02
0.06
0.06
0.00
0.07
0.37
0.10
0.07
0.04
0.04
0.04
0.05
0.03
0.02
0.02
0.03
0.03
0.09
0.04
0.04
0.78
0.43
0.70
0.43
0.65
0.44
0.07
0.10
0.07
0.07
0.07
0.07
0.05
0.04
0.07
0.05
0.07
0.05
0.07
0.07
0.07
0.07
0.07
0.09
0.11
0.17
0.17
0.22
0.22
0.26
0.26
0.25
0.26
0.25
0.22
0.19
0.09
0.08
0.05
0.02
0.01
0.00
0.00
0.00
0.00
0.00
0.00
0.01
0.01
0.00
0.00
0.01
0.01
0.02
0.02
0.00
0.00
0.02
0.02
0.04
0.02
0.02
0.04
0.00
0.02
0.02
0.02
0.04
0.02
0.02
0.02
0.06
0.04
0.04
0.02
0.04
0.04
0.02
0.04
0.04
0.04
0.04
0.06
0.06
0.16
0.04
0.21
0.25
0.33
0.09
0.11
0.04
0.02
0.03
0.02
0.02
0.02
0.02
0.04
0.07
0.02
0.04
0.79
0.37
0.58
0.33
0.65
0.43
0.05
0.07
0.07
0.07
0.03
0.04
0.03
0.05
0.03
0.03
0.04
0.03
0.04
0.04
0.05
0.07
0.07
0.09
0.09
0.15
0.19
0.22
0.25
0.25
0.28
0.28
0.31
0.28
0.25
0.21
0.17
0.11
0.08
0.05
0.02
0.04
0.04
0.02
0.02
0.02
0.02
0.02
0.04
0.02
0.02
0.04
0.03
0.03
0.03
0.02
0.02
0.02
0.04
0.02
0.02
0.04
0.02
0.02
0.02
0.02
0.04
0.03
0.04
0.04
0.01
0.03
0.04
0.04
0.04
0.02
0.02
0.04
0.01
0.04
0.01
0.00
0.21
0.10
0.06
0.04
0.07
0.07
0.07
0.04
0.04
0.05
0.04
0.04
0.14
0.02
0.08
0.70
0.40
0.47
0.37
0.47
0.41
0.10
0.09
0.08
0.07
0.05
0.07
0.07
0.07
0.07
0.07
0.07
0.08
0.07
0.07
0.10
0.10
0.11
0.11
0.15
0.20
0.22
0.22
0.25
0.26
0.26
0.25
0.25
0.22
0.19
0.15
0.10
0.05
0.02
0.04
0.01
0.02
0.02
0.02
0.02
0.04
0.06
0.02
0.02
0.02
0.00
0.01
0.02
0.02
0.02
0.02
0.02
0.01
0.02
0.01
0.01
0.02
0.00
0.01
0.00
0.00
0.01
0.01
0.02
0.00
0.01
0.00
0.00
0.00
0.00
0.02
0.06
0.11
0.06
0.16
0.25
0.43
0.21
0.10
0.01
0.04
0.01
0.01
0.00
0.00
0.02
0.06
0.02
0.02
0.04
0.76
0.21
0.48
0.35
0.61
0.44
0.04
0.04
0.01
0.02
0.00
0.02
0.04
0.06
0.04
0.04
0.00
0.02
0.02
0.00
0.00
0.02
0.01
0.02
0.04
0.07
0.08
0.11
0.15
0.19
0.22
0.21
0.22
0.22
0.17
0.11
0.07
0.05
0.04
0.00
0.06
0.09
0.09
0.07
0.09
0.09
0.06
0.10
0.07
0.07
0.09
0.09
0.09
0.10
0.09
0.09
0.10
0.06
0.09
0.09
0.07
0.06
0.09
0.09
0.07
0.09
0.09
0.10
0.11
0.10
0.09
0.11
0.11
0.16
0.11
0.11
0.25
0.33
0.25
0.30
0.56
0.46
0.30
0.25
0.00
0.01
0.04
0.04
0.04
0.04
0.06
0.04
0.02
0.11
0.04
0.82
0.32
0.58
0.35
0.61
0.35
0.01
0.02
0.01
0.00
0.04
0.02
0.02
0.04
0.02
0.00
0.01
0.00
0.01
0.01
0.04
0.04
0.04
0.05
0.08
0.09
0.15
0.17
0.20
0.22
0.24
0.24
0.22
0.22
0.19
0.15
0.08
0.04
0.04
0.01
0.06
0.06
0.07
0.07
0.07
0.07
0.06
0.06
0.04
0.06
0.04
0.06
0.02
0.04
0.04
0.04
0.00
0.00
0.02
0.04
0.02
0.00
0.02
0.02
0.06
0.02
0.02
0.04
0.06
0.06
0.02
0.04
0.04
0.06
0.04
0.02
0.06
0.07
0.04
0.09
0.11
0.09
0.25
0.16
0.43
0.21
0.16
0.00
0.02
0.04
0.01
0.00
0.01
0.02
0.01
0.03
0.02
0.02
0.75
0.24
0.50
0.31
0.72
0.48
0.09
0.10
0.10
0.07
0.07
0.07
0.08
0.07
0.05
0.07
0.10
0.10
0.09
0.09
0.09
0.11
0.16
0.16
0.22
0.22
0.25
0.28
0.31
0.33
0.35
0.37
0.32
0.31
0.26
0.24
0.22
0.15
0.09
0.08
0.07
0.07
0.05
0.04
0.05
0.07
0.05
0.04
0.07
0.07
0.08
0.07
0.08
0.08
0.08
0.08
0.08
0.07
0.07
0.07
0.07
0.07
0.05
0.07
0.07
0.07
0.05
0.07
0.05
0.04
0.05
0.05
0.05
0.05
0.07
0.02
0.00
0.04
0.01
0.21
0.09
0.02
0.00
0.05
0.07
0.07
0.03
0.05
0.05
0.07
0.07
0.17
0.04
0.05
0.68
0.50
0.50
0.50
0.51
0.44
0.09
0.09
0.09
0.10
0.10
0.10
0.09
0.10
0.09
0.09
0.09
0.11
0.11
0.15
0.11
0.15
0.16
0.19
0.20
0.21
0.25
0.25
0.28
0.30
0.32
0.31
0.31
0.25
0.22
0.19
0.16
0.11
0.08
0.05
0.05
0.02
0.02
0.02
0.04
0.02
0.02
0.02
0.04
0.02
0.04
0.04
0.02
0.04
0.02
0.04
0.02
0.02
0.02
0.02
0.01
0.01
0.00
0.01
0.00
0.00
0.04
0.00
0.02
0.02
0.02
0.04
0.02
0.02
0.02
0.06
0.10
0.06
0.11
0.21
0.43
0.11
0.07
0.04
0.03
0.02
0.04
0.02
0.01
0.02
0.02
0.04
0.02
0.02
0.78
0.25
0.63
0.40
0.76
0.47
0.10
0.05
0.07
0.05
0.05
0.04
0.04
0.04
0.05
0.05
0.05
0.07
0.05
0.07
0.08
0.07
0.08
0.11
0.15
0.17
0.19
0.21
0.25
0.26
0.28
0.30
0.30
0.26
0.25
0.19
0.17
0.09
0.07
0.04
0.02
0.00
0.00
0.02
0.04
0.04
0.04
0.02
0.04
0.02
0.01
0.00
0.02
0.02
0.00
0.00
0.01
0.00
0.00
0.00
0.00
0.00
0.00
0.01
0.01
0.02
0.02
0.02
0.02
0.02
0.02
0.06
0.04
0.06
0.02
0.06
0.07
0.25
0.07
0.30
0.16
0.50
0.21
0.11
0.06
0.04
0.02
0.01
0.00
0.01
0.01
0.01
0.03
0.07
0.01
0.70
0.19
0.58
0.41
0.77
0.50
0.11
0.08
0.05
0.07
0.04
0.03
0.04
0.03
0.04
0.04
0.03
0.05
0.04
0.07
0.05
0.07
0.08
0.10
0.14
0.16
0.19
0.22
0.24
0.25
0.25
0.26
0.25
0.26
0.22
0.19
0.11
0.10
0.04
0.02
0.01
0.02
0.00
0.02
0.02
0.00
0.00
0.00
0.00
0.00
0.00
0.00
0.01
0.00
0.02
0.02
0.01
0.02
0.04
0.01
0.04
0.01
0.01
0.02
0.02
0.02
0.02
0.02
0.03
0.03
0.03
0.02
0.03
0.04
0.03
0.03
0.04
0.01
0.05
0.04
0.02
0.11
0.02
0.01
0.08
0.11
0.09
0.08
0.09
0.10
0.10
0.09
0.14
0.09
0.14
0.70
0.37
0.61
0.37
0.70
0.58
0.16
0.16
0.14
0.11
0.14
0.14
0.14
0.09
0.14
0.09
0.14
0.14
0.14
0.15
0.15
0.17
0.19
0.21
0.21
0.25
0.25
0.30
0.32
0.35
0.35
0.35
0.33
0.30
0.26
0.21
0.17
0.14
0.10
0.07
0.05
0.02
0.02
0.04
0.02
0.04
0.04
0.04
0.02
0.05
0.05
0.07
0.04
0.07
0.07
0.08
0.07
0.07
0.05
0.07
0.05
0.07
0.05
0.05
0.07
0.07
0.07
0.04
0.05
0.07
0.05
0.07
0.05
0.05
0.02
0.02
0.02
0.02
0.16
0.07
0.01
0.01
0.08
0.08
0.07
0.07
0.07
0.07
0.07
0.07
0.22
0.03
0.02
0.66
0.56
0.51
0.61
0.50
0.40
0.10
0.09
0.10
0.08
0.07
0.07
0.07
0.07
0.07
0.07
0.10
0.08
0.07
0.08
0.10
0.09
0.09
0.11
0.15
0.16
0.19
0.22
0.24
0.26
0.26
0.25
0.25
0.22
0.20
0.15
0.09
0.07
0.03
0.02
0.02
0.00
0.02
0.00
0.00
0.02
0.04
0.02
0.02
0.02
0.04
0.06
0.04
0.04
0.04
0.04
0.04
0.02
0.06
0.06
0.06
0.06
0.04
0.07
0.06
0.06
0.07
0.06
0.07
0.06
0.07
0.06
0.07
0.06
0.06
0.10
0.10
0.21
0.11
0.50
0.16
0.10
0.06
0.02
0.02
0.02
0.01
0.01
0.02
0.02
0.02
0.08
0.09
0.56
0.55
0.50
0.61
0.68
0.50
0.22
0.03
0.04
0.03
0.04
0.02
0.04
0.02
0.04
0.01
0.00
0.01
0.02
0.01
0.02
0.02
0.04
0.03
0.03
0.07
0.10
0.11
0.16
0.19
0.20
0.22
0.22
0.22
0.17
0.14
0.09
0.05
0.02
0.00
0.02
0.06
0.07
0.10
0.07
0.09
0.07
0.06
0.07
0.07
0.06
0.06
0.07
0.06
0.06
0.06
0.09
0.06
0.07
0.06
0.06
0.09
0.06
0.09
0.07
0.07
0.07
0.09
0.07
0.10
0.09
0.09
0.09
0.07
0.10
0.16
0.33
0.10
0.33
0.41
0.52
0.30
0.25
0.04
0.01
0.00
0.04
0.02
0.06
0.02
0.04
0.04
0.00
0.02
0.79
0.26
0.58
0.35
0.72
0.45
0.07
0.03
0.03
0.04
0.02
0.02
0.02
0.02
0.02
0.02
0.01
0.02
0.01
0.02
0.02
0.04
0.03
0.07
0.08
0.09
0.14
0.17
0.19
0.22
0.22
0.22
0.22
0.21
0.19
0.09
0.08
0.04
0.02
0.02
0.04
0.07
0.06
0.09
0.09
0.07
0.07
0.06
0.10
0.07
0.04
0.04
0.04
0.06
0.06
0.04
0.04
0.04
0.04
0.02
0.02
0.04
0.04
0.04
0.04
0.02
0.02
0.04
0.01
0.02
0.00
0.00
0.00
0.00
0.00
0.02
0.07
0.09
0.04
0.07
0.37
0.16
0.10
0.06
0.03
0.04
0.03
0.02
0.02
0.02
0.02
0.04
0.14
0.00
0.10
0.74
0.37
0.52
0.31
0.52
0.43
0.08
0.10
0.07
0.07
0.05
0.04
0.03
0.04
0.07
0.07
0.07
0.07
0.08
0.07
0.09
0.09
0.14
0.17
0.22
0.21
0.24
0.26
0.28
0.31
0.32
0.32
0.32
0.28
0.25
0.20
0.16
0.14
0.08
0.07
0.03
0.02
0.03
0.04
0.02
0.04
0.02
0.03
0.04
0.03
0.04
0.03
0.03
0.05
0.05
0.05
0.03
0.03
0.04
0.04
0.04
0.03
0.03
0.03
0.04
0.04
0.02
0.02
0.04
0.03
0.02
0.03
0.04
0.04
0.00
0.00
0.02
0.01
0.30
0.09
0.04
0.02
0.07
0.07
0.07
0.05
0.07
0.07
0.07
0.08
0.19
0.04
0.03
0.67
0.58
0.58
0.50
0.52
0.45
0.09
0.14
0.09
0.08
0.07
0.07
0.07
0.07
0.05
0.07
0.05
0.05
0.05
0.07
0.07
0.10
0.09
0.10
0.11
0.16
0.19
0.20
0.22
0.24
0.25
0.26
0.24
0.21
0.19
0.15
0.09
0.07
0.03
0.04
0.02
0.02
0.02
0.04
0.02
0.04
0.04
0.04
0.02
0.02
0.04
0.04
0.04
0.02
0.02
0.02
0.02
0.02
0.00
0.04
0.06
0.04
0.06
0.04
0.06
0.06
0.06
0.04
0.04
0.06
0.04
0.06
0.06
0.06
0.10
0.25
0.07
0.25
0.16
0.47
0.16
0.10
0.04
0.03
0.02
0.04
0.01
0.01
0.02
0.02
0.02
0.07
0.07
0.67
0.04
0.56
0.56
0.76
0.48
0.14
0.04
0.03
0.02
0.04
0.02
0.02
0.01
0.01
0.02
0.01
0.01
0.02
0.04
0.04
0.04
0.02
0.04
0.07
0.08
0.09
0.14
0.17
0.22
0.22
0.22
0.22
0.22
0.19
0.15
0.10
0.05
0.04
0.00
0.06
0.07
0.09
0.11
0.09
0.10
0.09
0.07
0.10
0.09
0.09
0.09
0.10
0.11
0.10
0.10
0.10
0.10
0.09
0.09
0.09
0.07
0.09
0.09
0.07
0.04
0.06
0.07
0.06
0.06
0.06
0.07
0.04
0.06
0.06
0.06
0.16
0.10
0.09
0.11
0.47
0.33
0.16
0.10
0.02
0.04
0.02
0.04
0.02
0.04
0.02
0.00
0.07
0.10
0.01
0.77
0.37
0.65
0.37
0.56
0.35
0.04
0.03
0.04
0.02
0.01
0.00
0.01
0.01
0.01
0.02
0.02
0.04
0.04
0.04
0.02
0.04
0.05
0.07
0.10
0.09
0.16
0.19
0.21
0.24
0.25
0.24
0.24
0.22
0.17
0.11
0.07
0.02
0.01
0.06
0.10
0.10
0.09
0.16
0.10
0.10
0.10
0.07
0.09
0.09
0.09
0.06
0.06
0.06
0.04
0.04
0.00
0.06
0.04
0.02
0.00
0.00
0.00
0.02
0.01
0.04
0.02
0.02
0.03
0.02
0.02
0.03
0.04
0.02
0.03
0.00
0.04
0.01
0.00
0.07
0.00
0.02
0.07
0.09
0.09
0.10
0.10
0.10
0.09
0.08
0.09
0.17
0.08
0.21
0.07
0.51
0.37
0.70
0.55
0.26
0.15
0.14
0.14
0.11
0.09
0.09
0.09
0.10
0.10
0.09
0.09
0.11
0.09
0.14
0.15
0.16
0.19
0.20
0.24
0.24
0.25
0.28
0.30
0.31
0.35
0.32
0.30
0.25
0.21
0.19
0.11
0.07
0.07
0.05
0.02
0.02
0.02
0.02
0.02
0.02
0.02
0.02
0.02
0.02
0.02
0.04
0.04
0.02
0.02
0.04
0.04
0.02
0.04
0.04
0.02
0.02
0.01
0.02
0.02
0.01
0.01
0.02
0.02
0.01
0.04
0.02
0.04
0.01
0.06
0.00
0.30
0.07
0.01
0.02
0.08
0.08
0.08
0.05
0.07
0.08
0.08
0.10
0.22
0.04
0.02
0.58
0.50
0.51
0.63
0.56
0.38
0.11
0.11
0.09
0.08
0.07
0.07
0.07
0.05
0.07
0.05
0.05
0.07
0.05
0.07
0.07
0.08
0.10
0.09
0.11
0.15
0.19
0.20
0.21
0.25
0.25
0.25
0.24
0.20
0.16
0.11
0.07
0.03
0.04
0.00
0.02
0.06
0.07
0.07
0.06
0.06
0.07
0.04
0.06
0.04
0.06
0.04
0.06
0.02
0.04
0.06
0.06
0.04
0.04
0.04
0.02
0.06
0.02
0.04
0.04
0.07
0.02
0.04
0.04
0.06
0.06
0.06
0.07
0.11
0.16
0.11
0.10
0.55
0.30
0.10
0.10
0.04
0.01
0.01
0.02
0.00
0.00
0.00
0.01
0.08
0.11
0.21
0.67
0.47
0.65
0.63
0.48
0.25
0.05
0.04
0.02
0.04
0.01
0.02
0.01
0.02
0.00
0.02
0.00
0.00
0.00
0.02
0.01
0.03
0.03
0.05
0.07
0.09
0.11
0.16
0.19
0.22
0.21
0.21
0.22
0.17
0.16
0.07
0.04
0.02
0.02
0.06
0.09
0.10
0.11
0.10
0.10
0.09
0.09
0.07
0.07
0.07
0.07
0.07
0.04
0.07
0.07
0.07
0.06
0.06
0.04
0.06
0.04
0.04
0.02
0.04
0.04
0.02
0.02
0.04
0.06
0.04
0.06
0.06
0.09
0.07
0.09
0.10
0.25
0.06
0.25
0.16
0.43
0.21
0.21
0.02
0.04
0.00
0.02
0.06
0.06
0.06
0.04
0.02
0.01
0.02
0.76
0.25
0.52
0.31
0.73
0.44
0.04
0.03
0.01
0.01
0.00
0.02
0.02
0.01
0.00
0.00
0.02
0.04
0.04
0.02
0.03
0.05
0.08
0.08
0.11
0.14
0.17
0.22
0.24
0.26
0.30
0.30
0.28
0.26
0.25
0.21
0.17
0.09
0.07
0.05
0.02
0.03
0.02
0.04
0.03
0.02
0.02
0.03
0.05
0.05
0.05
0.05
0.07
0.05
0.07
0.07
0.07
0.07
0.07
0.07
0.08
0.10
0.08
0.10
0.08
0.10
0.08
0.10
0.10
0.10
0.10
0.10
0.09
0.08
0.08
0.05
0.08
0.05
0.08
0.07
0.04
0.07
0.09
0.19
0.17
0.19
0.16
0.16
0.19
0.19
0.21
0.25
0.14
0.16
0.37
0.61
0.55
0.65
0.65
0.47
0.21
0.22
0.25
0.21
0.21
0.20
0.22
0.22
0.24
0.22
0.21
0.22
0.22
0.24
0.25
0.25
0.25
0.28
0.30
0.35
0.35
0.37
0.38
0.43
0.40
0.40
0.41
0.35
0.28
0.26
0.22
0.20
0.14
0.14
0.11
0.09
0.09
0.09
0.08
0.10
0.09
0.09
0.09
0.09
0.09
0.11
0.11
0.09
0.14
0.14
0.09
0.09
0.09
0.09
0.09
0.09
0.10
0.11
0.10
0.09
0.10
0.10
0.09
0.07
0.07
0.07
0.04
0.02
0.05
0.02
0.02
0.07
0.04
0.04
0.08
0.11
0.11
0.09
0.09
0.09
0.09
0.09
0.16
0.10
0.10
0.69
0.38
0.61
0.38
0.65
0.55
0.15
0.15
0.09
0.09
0.09
0.10
0.09
0.10
0.08
0.08
0.08
0.08
0.09
0.07
0.09
0.09
0.09
0.11
0.14
0.15
0.19
0.22
0.24
0.24
0.25
0.25
0.26
0.24
0.20
0.16
0.11
0.07
0.02
0.04
0.01
0.00
0.02
0.04
0.02
0.04
0.06
0.04
0.02
0.02
0.04
0.04
0.06
0.02
0.02
0.02
0.00
0.00
0.02
0.02
0.02
0.02
0.02
0.00
0.04
0.04
0.00
0.02
0.02
0.04
0.06
0.06
0.04
0.09
0.21
0.10
0.16
0.10
0.55
0.30
0.16
0.09
0.02
0.01
0.01
0.04
0.00
0.00
0.02
0.00
0.08
0.16
0.21
0.69
0.41
0.65
0.55
0.47
0.24
0.02
0.02
0.02
0.01
0.02
0.00
0.02
0.02
0.00
0.01
0.01
0.00
0.02
0.02
0.02
0.03
0.04
0.07
0.08
0.11
0.14
0.19
0.21
0.25
0.22
0.22
0.22
0.22
0.16
0.09
0.07
0.02
0.00
0.06
0.07
0.07
0.09
0.09
0.10
0.09
0.07
0.07
0.09
0.07
0.07
0.07
0.06
0.07
0.07
0.06
0.06
0.04
0.07
0.02
0.04
0.00
0.06
0.06
0.06
0.04
0.02
0.04
0.04
0.06
0.04
0.06
0.04
0.04
0.04
0.07
0.10
0.21
0.06
0.21
0.43
0.33
0.21
0.21
0.00
0.01
0.00
0.04
0.04
0.07
0.06
0.06
0.02
0.06
0.01
0.79
0.28
0.56
0.28
0.65
0.43
0.02
0.04
0.02
0.02
0.04
0.03
0.02
0.03
0.02
0.03
0.05
0.04
0.07
0.07
0.10
0.08
0.09
0.14
0.17
0.20
0.21
0.25
0.26
0.31
0.32
0.33
0.32
0.30
0.26
0.22
0.17
0.09
0.08
0.07
0.03
0.01
0.02
0.01
0.01
0.00
0.02
0.02
0.02
0.02
0.02
0.02
0.03
0.04
0.02
0.02
0.04
0.02
0.02
0.02
0.02
0.02
0.01
0.02
0.02
0.04
0.01
0.04
0.02
0.02
0.02
0.02
0.01
0.04
0.02
0.04
0.07
0.01
0.07
0.00
0.33
0.16
0.06
0.02
0.07
0.03
0.02
0.04
0.03
0.02
0.04
0.07
0.05
0.07
0.67
0.25
0.48
0.25
0.58
0.47
0.09
0.11
0.08
0.07
0.05
0.07
0.07
0.07
0.04
0.05
0.07
0.07
0.07
0.07
0.07
0.10
0.09
0.09
0.15
0.16
0.20
0.21
0.25
0.26
0.25
0.25
0.26
0.24
0.20
0.17
0.11
0.10
0.07
0.05
0.03
0.02
0.04
0.03
0.02
0.02
0.03
0.04
0.05
0.03
0.03
0.04
0.05
0.04
0.04
0.04
0.04
0.03
0.03
0.02
0.03
0.03
0.04
0.02
0.02
0.01
0.02
0.02
0.01
0.02
0.01
0.01
0.01
0.00
0.07
0.04
0.09
0.07
0.43
0.11
0.09
0.06
0.03
0.02
0.04
0.00
0.00
0.01
0.02
0.01
0.08
0.10
0.30
0.62
0.43
0.45
0.58
0.44
0.17
0.02
0.02
0.02
0.01
0.00
0.02
0.02
0.02
0.01
0.02
0.00
0.01
0.01
0.02
0.04
0.04
0.03
0.05
0.05
0.10
0.11
0.14
0.17
0.19
0.20
0.20
0.20
0.17
0.11
0.07
0.03
0.01
0.02
0.09
0.10
0.10
0.16
0.16
0.16
0.16
0.11
0.11
0.16
0.11
0.10
0.11
0.10
0.09
0.09
0.09
0.10
0.09
0.07
0.07
0.07
0.09
0.06
0.07
0.06
0.07
0.09
0.07
0.06
0.09
0.09
0.07
0.09
0.07
0.09
0.16
0.33
0.10
0.37
0.33
0.52
0.33
0.21
0.04
0.00
0.02
0.06
0.06
0.09
0.04
0.07
0.01
0.07
0.02
0.81
0.25
0.58
0.32
0.72
0.40
0.03
0.04
0.00
0.02
0.00
0.00
0.04
0.02
0.00
0.00
0.00
0.00
0.00
0.02
0.01
0.04
0.04
0.03
0.07
0.08
0.09
0.11
0.17
0.22
0.21
0.22
0.21
0.22
0.19
0.09
0.08
0.04
0.01
0.04
0.10
0.10
0.10
0.10
0.10
0.09
0.09
0.06
0.07
0.06
0.09
0.06
0.04
0.07
0.07
0.07
0.06
0.07
0.06
0.07
0.07
0.07
0.06
0.06
0.07
0.07
0.07
0.09
0.06
0.09
0.09
0.10
0.10
0.10
0.11
0.21
0.41
0.10
0.37
0.43
0.47
0.25
0.30
0.02
0.00
0.02
0.07
0.06
0.06
0.06
0.06
0.02
0.07
0.01
0.80
0.30
0.56
0.28
0.65
0.38
0.04
0.04
0.02
0.02
0.02
0.01
0.02
0.04
0.04
0.02
0.02
0.03
0.04
0.05
0.07
0.08
0.09
0.11
0.15
0.19
0.22
0.22
0.25
0.28
0.30
0.28
0.25
0.25
0.20
0.16
0.08
0.05
0.04
0.01
0.04
0.06
0.06
0.04
0.02
0.06
0.04
0.04
0.00
0.04
0.00
0.02
0.01
0.02
0.01
0.02
0.01
0.02
0.00
0.01
0.02
0.04
0.02
0.02
0.01
0.02
0.04
0.04
0.02
0.02
0.04
0.02
0.04
0.02
0.06
0.04
0.06
0.09
0.30
0.06
0.04
0.02
0.05
0.05
0.02
0.02
0.03
0.04
0.04
0.09
0.05
0.10
0.68
0.28
0.47
0.26
0.58
0.51
0.11
0.15
0.10
0.07
0.07
0.09
0.07
0.08
0.08
0.09
0.09
0.08
0.09
0.09
0.09
0.11
0.15
0.19
0.19
0.20
0.24
0.25
0.25
0.28
0.26
0.28
0.25
0.26
0.22
0.19
0.15
0.09
0.08
0.05
0.04
0.04
0.03
0.03
0.02
0.03
0.03
0.03
0.03
0.03
0.03
0.02
0.03
0.03
0.04
0.04
0.03
0.03
0.03
0.03
0.04
0.03
0.03
0.03
0.02
0.05
0.03
0.03
0.04
0.04
0.03
0.03
0.03
0.04
0.00
0.04
0.02
0.02
0.25
0.02
0.01
0.02
0.10
0.08
0.07
0.05
0.07
0.07
0.07
0.07
0.19
0.04
0.04
0.50
0.47
0.51
0.61
0.51
0.30
0.07
0.08
0.07
0.03
0.03
0.03
0.02
0.03
0.03
0.03
0.03
0.03
0.04
0.03
0.03
0.07
0.07
0.07
0.10
0.11
0.16
0.19
0.21
0.22
0.24
0.24
0.22
0.20
0.17
0.09
0.07
0.03
0.02
0.00
0.02
0.04
0.07
0.06
0.07
0.04
0.06
0.07
0.02
0.04
0.04
0.06
0.04
0.04
0.04
0.06
0.06
0.04
0.04
0.04
0.04
0.06
0.04
0.04
0.04
0.04
0.04
0.06
0.04
0.06
0.04
0.04
0.00
0.04
0.04
0.09
0.09
0.07
0.07
0.37
0.11
0.07
0.06
0.03
0.04
0.05
0.04
0.04
0.02
0.04
0.03
0.09
0.06
0.02
0.72
0.43
0.72
0.44
0.61
0.38
0.05
0.05
0.05
0.03
0.03
0.04
0.02
0.02
0.03
0.04
0.03
0.02
0.04
0.04
0.07
0.07
0.07
0.09
0.14
0.14
0.19
0.22
0.25
0.26
0.26
0.26
0.26
0.26
0.21
0.19
0.15
0.09
0.08
0.03
0.02
0.04
0.04
0.02
0.04
0.02
0.04
0.04
0.04
0.04
0.02
0.02
0.04
0.04
0.04
0.04
0.04
0.02
0.02
0.02
0.04
0.02
0.02
0.01
0.04
0.01
0.01
0.01
0.02
0.01
0.02
0.01
0.01
0.02
0.02
0.06
0.04
0.00
0.01
0.30
0.06
0.01
0.02
0.10
0.10
0.08
0.05
0.07
0.07
0.07
0.08
0.19
0.02
0.10
0.69
0.51
0.73
0.51
0.65
0.43
0.14
0.16
0.15
0.11
0.14
0.14
0.09
0.09
0.11
0.14
0.11
0.14
0.14
0.16
0.17
0.19
0.19
0.24
0.25
0.26
0.28
0.35
0.35
0.41
0.38
0.40
0.37
0.35
0.31
0.25
0.22
0.16
0.15
0.09
0.09
0.10
0.09
0.09
0.09
0.10
0.09
0.09
0.09
0.09
0.09
0.09
0.09
0.11
0.09
0.09
0.09
0.09
0.09
0.10
0.08
0.09
0.09
0.09
0.09
0.09
0.09
0.09
0.09
0.09
0.11
0.09
0.09
0.09
0.10
0.04
0.07
0.07
0.02
0.02
0.05
0.07
0.15
0.14
0.15
0.09
0.11
0.15
0.11
0.14
0.21
0.09
0.19
0.67
0.56
0.63
0.43
0.63
0.58
0.19
0.22
0.19
0.19
0.17
0.19
0.17
0.19
0.17
0.19
0.17
0.19
0.19
0.19
0.20
0.22
0.24
0.22
0.25
0.25
0.30
0.31
0.32
0.35
0.37
0.37
0.35
0.31
0.25
0.25
0.20
0.16
0.11
0.09
0.08
0.07
0.04
0.04
0.04
0.05
0.05
0.04
0.07
0.07
0.07
0.07
0.07
0.08
0.08
0.07
0.07
0.08
0.07
0.07
0.07
0.07
0.05
0.05
0.03
0.03
0.03
0.03
0.02
0.03
0.02
0.02
0.03
0.02
0.04
0.01
0.07
0.02
0.37
0.07
0.04
0.02
0.05
0.04
0.05
0.02
0.02
0.02
0.02
0.02
0.14
0.04
0.16
0.47
0.50
0.55
0.65
0.50
0.24
0.08
0.07
0.07
0.05
0.04
0.04
0.02
0.04
0.04
0.04
0.03
0.03
0.07
0.04
0.07
0.07
0.08
0.09
0.14
0.16
0.19
0.22
0.22
0.25
0.25
0.24
0.24
0.21
0.19
0.11
0.07
0.05
0.02
0.04
0.02
0.04
0.04
0.06
0.07
0.06
0.06
0.04
0.04
0.04
0.06
0.04
0.04
0.06
0.04
0.06
0.06
0.06
0.06
0.07
0.06
0.06
0.07
0.07
0.06
0.06
0.09
0.07
0.07
0.07
0.07
0.07
0.07
0.11
0.25
0.10
0.30
0.25
0.52
0.21
0.16
0.02
0.02
0.02
0.00
0.02
0.02
0.01
0.01
0.04
0.01
0.02
0.76
0.26
0.61
0.35
0.76
0.45
0.07
0.04
0.03
0.02
0.02
0.01
0.01
0.02
0.01
0.01
0.00
0.02
0.02
0.01
0.01
0.02
0.02
0.04
0.05
0.09
0.14
0.16
0.22
0.20
0.21
0.22
0.22
0.19
0.16
0.09
0.07
0.02
0.00
0.04
0.09
0.10
0.11
0.10
0.10
0.09
0.09
0.07
0.07
0.06
0.06
0.06
0.06
0.04
0.06
0.06
0.06
0.06
0.06
0.06
0.06
0.09
0.06
0.07
0.06
0.10
0.07
0.09
0.09
0.09
0.09
0.07
0.07
0.11
0.30
0.10
0.30
0.37
0.47
0.25
0.21
0.01
0.02
0.00
0.02
0.02
0.00
0.00
0.02
0.04
0.02
0.03
0.76
0.28
0.48
0.25
0.61
0.44
0.04
0.07
0.03
0.02
0.01
0.04
0.02
0.02
0.02
0.04
0.03
0.03
0.03
0.04
0.05
0.07
0.07
0.09
0.14
0.19
0.20
0.21
0.25
0.26
0.28
0.26
0.25
0.22
0.19
0.14
0.08
0.04
0.04
0.01
0.04
0.04
0.07
0.06
0.06
0.06
0.04
0.02
0.02
0.04
0.02
0.01
0.00
0.02
0.01
0.04
0.02
0.02
0.04
0.00
0.01
0.01
0.01
0.01
0.00
0.00
0.02
0.00
0.01
0.00
0.02
0.01
0.00
0.04
0.06
0.06
0.06
0.41
0.16
0.09
0.07
0.02
0.02
0.03
0.02
0.04
0.03
0.02
0.03
0.16
0.02
0.03
0.62
0.47
0.37
0.47
0.45
0.32
0.10
0.08
0.07
0.04
0.04
0.05
0.04
0.04
0.04
0.04
0.04
0.05
0.05
0.07
0.05
0.05
0.08
0.08
0.09
0.09
0.16
0.16
0.20
0.19
0.21
0.20
0.20
0.16
0.09
0.07
0.03
0.02
0.00
0.04
0.07
0.07
0.10
0.10
0.11
0.10
0.10
0.10
0.11
0.09
0.09
0.07
0.10
0.07
0.07
0.07
0.07
0.07
0.06
0.09
0.07
0.09
0.10
0.09
0.07
0.09
0.10
0.09
0.09
0.09
0.09
0.10
0.25
0.10
0.33
0.11
0.56
0.16
0.11
0.06
0.04
0.02
0.02
0.02
0.00
0.02
0.01
0.04
0.05
0.04
0.68
0.08
0.51
0.38
0.70
0.47
0.09
0.04
0.02
0.02
0.02
0.04
0.00
0.02
0.00
0.00
0.00
0.00
0.00
0.04
0.02
0.04
0.02
0.04
0.07
0.08
0.09
0.14
0.19
0.20
0.20
0.21
0.21
0.20
0.16
0.10
0.07
0.03
0.02
0.04
0.04
0.06
0.06
0.06
0.06
0.06
0.02
0.06
0.04
0.04
0.04
0.02
0.02
0.02
0.00
0.00
0.02
0.04
0.00
0.02
0.01
0.00
0.00
0.01
0.00
0.00
0.01
0.00
0.00
0.02
0.00
0.02
0.01
0.02
0.04
0.11
0.02
0.11
0.09
0.43
0.10
0.09
0.04
0.04
0.02
0.03
0.04
0.04
0.02
0.04
0.04
0.08
0.04
0.69
0.21
0.61
0.47
0.80
0.52
0.11
0.11
0.08
0.08
0.07
0.07
0.07
0.07
0.07
0.10
0.08
0.08
0.08
0.10
0.09
0.09
0.14
0.14
0.19
0.20
0.22
0.25
0.25
0.28
0.32
0.31
0.30
0.28
0.26
0.22
0.16
0.09
0.08
0.05
0.03
0.02
0.02
0.04
0.02
0.04
0.04
0.02
0.02
0.04
0.02
0.02
0.02
0.02
0.04
0.02
0.03
0.02
0.02
0.02
0.02
0.04
0.02
0.04
0.02
0.02
0.04
0.04
0.02
0.04
0.02
0.02
0.04
0.02
0.04
0.04
0.06
0.02
0.04
0.04
0.30
0.02
0.02
0.02
0.09
0.07
0.07
0.05
0.05
0.05
0.07
0.07
0.19
0.04
0.30
0.04
0.56
0.61
0.73
0.51
0.25
0.09
0.09
0.08
0.07
0.08
0.08
0.08
0.07
0.08
0.07
0.10
0.10
0.08
0.09
0.09
0.15
0.16
0.19
0.22
0.25
0.26
0.30
0.33
0.35
0.35
0.35
0.33
0.28
0.25
0.21
0.17
0.09
0.09
0.07
0.05
0.03
0.04
0.03
0.03
0.03
0.04
0.02
0.03
0.04
0.04
0.04
0.02
0.03
0.03
0.03
0.05
0.05
0.02
0.04
0.03
0.03
0.03
0.03
0.03
0.05
0.04
0.04
0.04
0.04
0.05
0.03
0.05
0.04
0.01
0.04
0.00
0.01
0.11
0.02
0.02
0.08
0.09
0.09
0.10
0.08
0.07
0.09
0.10
0.14
0.09
0.11
0.64
0.26
0.52
0.26
0.63
0.52
0.19
0.16
0.09
0.10
0.09
0.08
0.09
0.07
0.08
0.08
0.09
0.08
0.09
0.09
0.09
0.09
0.09
0.15
0.16
0.20
0.22
0.24
0.25
0.26
0.28
0.25
0.25
0.22
0.20
0.15
0.09
0.07
0.04
0.02
0.02
0.02
0.04
0.01
0.02
0.02
0.02
0.02
0.04
0.04
0.04
0.03
0.04
0.04
0.02
0.03
0.02
0.02
0.02
0.01
0.02
0.00
0.01
0.00
0.02
0.00
0.02
0.01
0.01
0.01
0.00
0.04
0.10
0.02
0.10
0.07
0.43
0.16
0.07
0.06
0.03
0.04
0.02
0.04
0.00
0.04
0.02
0.03
0.07
0.01
0.58
0.02
0.40
0.25
0.56
0.47
0.17
0.03
0.02
0.04
0.04
0.02
0.01
0.01
0.01
0.01
0.02
0.01
0.02
0.02
0.02
0.02
0.04
0.02
0.05
0.07
0.08
0.11
0.14
0.19
0.19
0.19
0.19
0.17
0.14
0.08
0.04
0.04
0.02
0.07
0.10
0.16
0.16
0.21
0.16
0.25
0.21
0.21
0.25
0.25
0.21
0.25
0.25
0.25
0.21
0.21
0.21
0.25
0.21
0.21
0.21
0.25
0.16
0.25
0.25
0.25
0.25
0.25
0.25
0.21
0.21
0.30
0.25
0.33
0.46
0.30
0.43
0.37
0.60
0.43
0.33
0.10
0.02
0.04
0.07
0.09
0.09
0.06
0.07
0.04
0.02
0.25
0.68
0.07
0.47
0.43
0.70
0.40
0.07
0.01
0.02
0.04
0.04
0.06
0.06
0.06
0.04
0.04
0.02
0.02
0.02
0.02
0.00
0.02
0.02
0.04
0.02
0.05
0.07
0.10
0.11
0.16
0.17
0.19
0.16
0.15
0.09
0.07
0.02
0.02
0.04
0.16
0.16
0.25
0.25
0.30
0.25
0.25
0.21
0.16
0.16
0.11
0.11
0.16
0.16
0.16
0.11
0.21
0.11
0.16
0.11
0.11
0.16
0.16
0.11
0.10
0.11
0.16
0.11
0.11
0.10
0.10
0.10
0.10
0.09
0.16
0.10
0.16
0.37
0.10
0.41
0.37
0.55
0.37
0.33
0.07
0.00
0.04
0.04
0.06
0.07
0.06
0.02
0.00
0.04
0.06
0.71
0.16
0.51
0.37
0.72
0.43
0.08
0.02
0.02
0.01
0.02
0.00
0.02
0.01
0.01
0.01
0.00
0.01
0.01
0.02
0.02
0.02
0.02
0.04
0.05
0.08
0.09
0.14
0.19
0.20
0.22
0.22
0.21
0.20
0.16
0.09
0.10
0.03
0.01
0.06
0.06
0.07
0.07
0.10
0.07
0.07
0.06
0.04
0.04
0.02
0.06
0.04
0.04
0.02
0.01
0.02
0.02
0.02
0.02
0.00
0.01
0.02
0.00
0.00
0.01
0.02
0.02
0.00
0.02
0.01
0.01
0.01
0.04
0.02
0.02
0.04
0.02
0.01
0.02
0.01
0.01
0.30
0.04
0.00
0.02
0.09
0.08
0.08
0.07
0.05
0.07
0.07
0.09
0.22
0.07
0.05
0.50
0.51
0.50
0.65
0.61
0.38
0.17
0.19
0.19
0.16
0.17
0.16
0.14
0.17
0.17
0.17
0.17
0.17
0.17
0.20
0.20
0.21
0.25
0.26
0.28
0.32
0.37
0.38
0.44
0.43
0.47
0.45
0.44
0.37
0.32
0.26
0.25
0.20
0.16
0.15
0.14
0.09
0.09
0.09
0.11
0.11
0.11
0.09
0.09
0.11
0.11
0.11
0.14
0.15
0.16
0.11
0.14
0.15
0.15
0.14
0.11
0.09
0.15
0.16
0.14
0.11
0.11
0.14
0.11
0.11
0.09
0.11
0.09
0.08
0.07
0.10
0.07
0.02
0.02
0.03
0.04
0.14
0.16
0.15
0.11
0.14
0.16
0.14
0.15
0.21
0.15
0.16
0.60
0.48
0.73
0.51
0.66
0.65
0.21
0.21
0.19
0.16
0.15
0.14
0.15
0.15
0.14
0.15
0.17
0.15
0.14
0.15
0.16
0.19
0.19
0.19
0.20
0.22
0.24
0.25
0.25
0.26
0.31
0.28
0.28
0.25
0.24
0.22
0.17
0.09
0.10
0.07
0.04
0.02
0.04
0.02
0.04
0.02
0.04
0.04
0.04
0.03
0.03
0.04
0.04
0.04
0.04
0.04
0.04
0.04
0.05
0.03
0.03
0.03
0.03
0.04
0.02
0.02
0.02
0.02
0.02
0.02
0.02
0.04
0.02
0.02
0.02
0.07
0.02
0.09
0.11
0.33
0.06
0.07
0.04
0.05
0.04
0.02
0.02
0.01
0.02
0.04
0.02
0.05
0.02
0.68
0.10
0.58
0.56
0.78
0.50
0.19
0.07
0.04
0.04
0.03
0.04
0.04
0.04
0.02
0.02
0.02
0.02
0.04
0.02
0.02
0.03
0.02
0.05
0.07
0.08
0.11
0.15
0.19
0.21
0.21
0.22
0.24
0.21
0.20
0.15
0.09
0.07
0.02
0.00
0.04
0.07
0.09
0.07
0.11
0.09
0.07
0.07
0.07
0.06
0.07
0.06
0.06
0.07
0.06
0.06
0.06
0.07
0.09
0.07
0.09
0.09
0.09
0.10
0.10
0.09
0.11
0.10
0.09
0.10
0.10
0.10
0.10
0.09
0.11
0.25
0.16
0.21
0.50
0.37
0.21
0.11
0.04
0.04
0.02
0.06
0.00
0.02
0.00
0.02
0.07
0.09
0.01
0.74
0.43
0.63
0.45
0.50
0.28
0.04
0.04
0.02
0.00
0.02
0.00
0.02
0.01
0.01
0.00
0.02
0.01
0.00
0.02
0.01
0.04
0.03
0.05
0.07
0.10
0.14
0.15
0.19
0.22
0.22
0.22
0.20
0.17
0.15
0.08
0.03
0.00
0.04
0.09
0.10
0.16
0.16
0.11
0.11
0.10
0.10
0.10
0.10
0.10
0.10
0.11
0.11
0.11
0.10
0.10
0.10
0.10
0.09
0.10
0.09
0.10
0.09
0.10
0.07
0.10
0.07
0.09
0.07
0.07
0.09
0.06
0.07
0.09
0.09
0.10
0.10
0.25
0.06
0.30
0.16
0.50
0.25
0.21
0.00
0.02
0.02
0.00
0.00
0.01
0.02
0.02
0.03
0.04
0.03
0.68
0.19
0.44
0.25
0.66
0.45
0.10
0.07
0.05
0.05
0.02
0.02
0.03
0.04
0.03
0.03
0.04
0.04
0.05
0.05
0.05
0.07
0.09
0.09
0.14
0.17
0.19
0.21
0.22
0.26
0.26
0.25
0.25
0.24
0.20
0.17
0.14
0.07
0.03
0.01
0.01
0.04
0.02
0.02
0.06
0.06
0.02
0.02
0.04
0.01
0.00
0.02
0.02
0.00
0.00
0.00
0.00
0.00
0.00
0.00
0.00
0.00
0.02
0.00
0.00
0.01
0.00
0.00
0.01
0.02
0.00
0.01
0.01
0.06
0.07
0.02
0.06
0.33
0.25
0.09
0.09
0.03
0.03
0.04
0.02
0.04
0.04
0.05
0.05
0.14
0.03
0.07
0.69
0.35
0.52
0.35
0.48
0.48
0.09
0.09
0.08
0.07
0.05
0.07
0.05
0.03
0.04
0.05
0.05
0.05
0.04
0.07
0.05
0.07
0.07
0.09
0.09
0.14
0.15
0.17
0.19
0.21
0.21
0.21
0.22
0.20
0.16
0.11
0.07
0.03
0.02
0.00
0.04
0.07
0.06
0.10
0.06
0.09
0.09
0.06
0.04
0.06
0.06
0.06
0.06
0.04
0.06
0.04
0.04
0.02
0.06
0.04
0.04
0.04
0.02
0.04
0.06
0.07
0.06
0.06
0.09
0.06
0.07
0.06
0.09
0.25
0.11
0.11
0.10
0.52
0.30
0.11
0.10
0.04
0.04
0.02
0.02
0.02
0.00
0.00
0.01
0.08
0.09
0.04
0.76
0.38
0.66
0.45
0.52
0.32
0.03
0.03
0.04
0.02
0.04
0.01
0.00
0.00
0.02
0.01
0.01
0.00
0.00
0.02
0.01
0.03
0.03
0.05
0.08
0.09
0.14
0.17
0.22
0.22
0.24
0.24
0.22
0.20
0.17
0.09
0.07
0.02
0.02
0.02
0.06
0.06
0.06
0.04
0.06
0.04
0.04
0.02
0.02
0.00
0.02
0.01
0.02
0.00
0.00
0.01
0.01
0.00
0.02
0.00
0.00
0.00
0.02
0.01
0.02
0.00
0.01
0.02
0.01
0.04
0.02
0.02
0.02
0.01
0.04
0.01
0.06
0.09
0.21
0.02
0.04
0.05
0.08
0.07
0.03
0.04
0.04
0.04
0.05
0.10
0.04
0.08
0.77
0.40
0.72
0.41
0.76
0.47
0.10
0.09
0.09
0.08
0.08
0.07
0.10
0.08
0.10
0.07
0.10
0.10
0.09
0.09
0.09
0.11
0.14
0.17
0.19
0.20
0.24
0.26
0.26
0.30
0.31
0.32
0.30
0.26
0.25
0.22
0.17
0.11
0.10
0.07
0.04
0.05
0.02
0.02
0.03
0.03
0.02
0.03
0.03
0.03
0.04
0.02
0.02
0.02
0.03
0.02
0.02
0.02
0.02
0.04
0.02
0.02
0.02
0.02
0.03
0.03
0.04
0.04
0.07
0.04
0.05
0.04
0.04
0.02
0.04
0.03
0.03
0.09
0.00
0.02
0.04
0.14
0.14
0.14
0.08
0.10
0.10
0.09
0.09
0.22
0.07
0.09
0.67
0.56
0.66
0.58
0.63
0.45
0.16
0.19
0.19
0.16
0.16
0.17
0.16
0.17
0.16
0.19
0.17
0.20
0.17
0.20
0.19
0.22
0.24
0.25
0.26
0.28
0.33
0.35
0.37
0.40
0.41
0.41
0.37
0.35
0.30
0.25
0.22
0.19
0.15
0.11
0.09
0.09
0.09
0.09
0.10
0.09
0.10
0.09
0.09
0.09
0.09
0.09
0.09
0.09
0.09
0.10
0.10
0.09
0.09
0.08
0.10
0.10
0.09
0.09
0.07
0.07
0.07
0.08
0.07
0.05
0.05
0.05
0.04
0.07
0.01
0.03
0.09
0.01
0.02
0.07
0.14
0.09
0.08
0.10
0.08
0.09
0.10
0.09
0.19
0.10
0.21
0.07
0.55
0.32
0.63
0.56
0.25
0.11
0.10
0.09
0.10
0.10
0.07
0.10
0.08
0.10
0.08
0.10
0.10
0.08
0.10
0.09
0.11
0.14
0.16
0.19
0.19
0.21
0.25
0.25
0.26
0.25
0.26
0.22
0.20
0.15
0.14
0.08
0.05
0.02
0.02
0.02
0.00
0.00
0.01
0.00
0.00
0.00
0.02
0.01
0.01
0.00
0.00
0.00
0.01
0.01
0.01
0.00
0.01
0.00
0.00
0.02
0.00
0.02
0.02
0.00
0.04
0.04
0.00
0.02
0.04
0.07
0.11
0.10
0.21
0.11
0.50
0.21
0.21
0.09
0.01
0.02
0.00
0.06
0.06
0.04
0.04
0.06
0.07
0.11
0.33
0.67
0.37
0.40
0.51
0.43
0.17
0.00
0.04
0.06
0.07
0.11
0.11
0.10
0.10
0.16
0.16
0.11
0.10
0.10
0.10
0.09
0.06
0.02
0.00
0.04
0.04
0.07
0.10
0.09
0.15
0.17
0.17
0.14
0.09
0.07
0.02
0.00
0.09
0.11
0.21
0.25
0.30
0.30
0.33
0.30
0.30
0.25
0.30
0.25
0.21
0.30
0.25
0.25
0.25
0.16
0.21
0.21
0.16
0.21
0.25
0.25
0.21
0.25
0.16
0.25
0.21
0.25
0.16
0.21
0.21
0.25
0.25
0.37
0.41
0.37
0.43
0.60
0.50
0.41
0.41
0.07
0.07
0.07
0.16
0.11
0.10
0.11
0.10
0.01
0.30
0.07
0.82
0.33
0.58
0.31
0.51
0.30
0.06
0.02
0.06
0.10
0.10
0.09
0.10
0.09
0.10
0.09
0.09
0.06
0.07
0.06
0.06
0.04
0.00
0.02
0.04
0.05
0.08
0.09
0.15
0.17
0.20
0.22
0.19
0.17
0.11
0.08
0.04
0.01
0.02
0.06
0.10
0.11
0.11
0.11
0.10
0.10
0.16
0.10
0.10
0.11
0.10
0.11
0.11
0.09
0.10
0.10
0.10
0.09
0.07
0.09
0.09
0.09
0.09
0.07
0.07
0.07
0.06
0.06
0.07
0.07
0.07
0.06
0.06
0.10
0.21
0.04
0.16
0.30
0.33
0.11
0.11
0.04
0.02
0.04
0.02
0.04
0.02
0.02
0.02
0.05
0.04
0.04
0.75
0.30
0.58
0.33
0.72
0.48
0.10
0.10
0.07
0.07
0.04
0.04
0.05
0.07
0.04
0.07
0.07
0.07
0.08
0.10
0.09
0.11
0.14
0.19
0.20
0.25
0.25
0.26
0.33
0.35
0.37
0.37
0.35
0.32
0.26
0.24
0.19
0.14
0.09
0.10
0.07
0.05
0.07
0.07
0.05
0.07
0.07
0.07
0.07
0.07
0.07
0.07
0.07
0.08
0.07
0.07
0.09
0.10
0.08
0.07
0.10
0.09
0.10
0.09
0.09
0.10
0.09
0.08
0.07
0.09
0.10
0.08
0.02
0.07
0.04
0.06
0.04
0.02
0.02
0.09
0.09
0.09
0.10
0.11
0.09
0.09
0.09
0.20
0.09
0.19
0.67
0.52
0.58
0.47
0.61
0.55
0.17
0.20
0.19
0.17
0.16
0.15
0.17
0.17
0.15
0.15
0.16
0.16
0.15
0.15
0.17
0.17
0.19
0.19
0.22
0.24
0.26
0.25
0.30
0.30
0.31
0.31
0.30
0.26
0.22
0.19
0.14
0.09
0.08
0.07
0.07
0.05
0.05
0.05
0.05
0.05
0.05
0.07
0.08
0.07
0.07
0.08
0.10
0.10
0.08
0.08
0.07
0.07
0.07
0.07
0.07
0.07
0.07
0.04
0.04
0.03
0.04
0.04
0.02
0.04
0.04
0.04
0.01
0.07
0.01
0.10
0.06
0.37
0.10
0.07
0.02
0.04
0.04
0.02
0.02
0.02
0.02
0.01
0.02
0.07
0.02
0.66
0.07
0.50
0.40
0.70
0.47
0.14
0.07
0.03
0.02
0.01
0.02
0.04
0.00
0.00
0.00
0.02
0.01
0.01
0.01
0.04
0.02
0.04
0.04
0.07
0.10
0.14
0.16
0.19
0.21
0.24
0.24
0.24
0.21
0.20
0.15
0.09
0.07
0.03
0.02
0.00
0.04
0.04
0.04
0.04
0.06
0.04
0.04
0.02
0.00
0.02
0.04
0.02
0.02
0.04
0.04
0.04
0.04
0.04
0.04
0.06
0.04
0.06
0.06
0.07
0.07
0.07
0.06
0.07
0.07
0.06
0.09
0.21
0.11
0.11
0.10
0.55
0.30
0.16
0.10
0.02
0.02
0.01
0.04
0.04
0.00
0.02
0.02
0.05
0.09
0.01
0.80
0.35
0.58
0.33
0.56
0.37
0.04
0.03
0.03
0.04
0.04
0.01
0.04
0.02
0.02
0.02
0.02
0.03
0.03
0.04
0.04
0.07
0.08
0.08
0.09
0.15
0.20
0.21
0.25
0.26
0.25
0.25
0.25
0.24
0.19
0.14
0.07
0.04
0.01
0.00
0.02
0.04
0.07
0.04
0.02
0.04
0.02
0.00
0.00
0.00
0.02
0.00
0.00
0.00
0.01
0.00
0.00
0.00
0.00
0.00
0.02
0.00
0.00
0.00
0.01
0.00
0.02
0.04
0.00
0.00
0.01
0.01
0.04
0.00
0.02
0.00
0.37
0.09
0.04
0.00
0.07
0.07
0.05
0.04
0.02
0.04
0.03
0.04
0.15
0.04
0.08
0.70
0.41
0.38
0.35
0.47
0.38
0.07
0.10
0.08
0.07
0.05
0.05
0.07
0.07
0.07
0.07
0.08
0.09
0.09
0.09
0.11
0.14
0.17
0.20
0.21
0.25
0.25
0.26
0.32
0.32
0.35
0.33
0.30
0.25
0.22
0.17
0.09
0.08
0.05
0.02
0.02
0.02
0.04
0.04
0.03
0.02
0.02
0.03
0.02
0.02
0.04
0.03
0.03
0.02
0.03
0.02
0.05
0.02
0.02
0.04
0.04
0.02
0.04
0.02
0.02
0.00
0.01
0.01
0.02
0.01
0.04
0.04
0.00
0.07
0.37
0.21
0.09
0.07
0.02
0.02
0.03
0.04
0.03
0.03
0.03
0.03
0.11
0.04
0.04
0.68
0.41
0.52
0.35
0.47
0.50
0.09
0.10
0.07
0.05
0.05
0.05
0.03
0.04
0.05
0.04
0.04
0.03
0.05
0.05
0.07
0.07
0.08
0.09
0.09
0.15
0.17
0.20
0.21
0.22
0.24
0.25
0.24
0.20
0.16
0.09
0.07
0.03
0.02
0.00
0.04
0.06
0.07
0.09
0.09
0.07
0.09
0.07
0.10
0.07
0.04
0.02
0.02
0.02
0.01
0.02
0.02
0.02
0.04
0.04
0.02
0.04
0.02
0.04
0.04
0.02
0.01
0.00
0.00
0.01
0.06
0.09
0.02
0.11
0.16
0.41
0.11
0.09
0.04
0.03
0.02
0.02
0.02
0.02
0.02
0.01
0.02
0.05
0.09
0.68
0.04
0.48
0.47
0.68
0.47
0.19
0.05
0.03
0.02
0.02
0.02
0.01
0.01
0.00
0.02
0.02
0.00
0.01
0.01
0.04
0.02
0.02
0.03
0.07
0.10
0.15
0.17
0.20
0.22
0.25
0.25
0.25
0.25
0.21
0.17
0.11
0.07
0.04
0.02
0.04
0.01
0.01
0.01
0.01
0.01
0.01
0.02
0.02
0.02
0.02
0.02
0.04
0.02
0.02
0.02
0.01
0.02
0.02
0.02
0.02
0.02
0.04
0.02
0.02
0.03
0.03
0.02
0.03
0.03
0.04
0.03
0.03
0.04
0.00
0.03
0.02
0.00
0.25
0.02
0.04
0.04
0.09
0.09
0.08
0.08
0.05
0.07
0.07
0.10
0.16
0.01
0.33
0.37
0.63
0.68
0.78
0.61
0.31
0.11
0.11
0.09
0.10
0.08
0.08
0.07
0.07
0.08
0.08
0.10
0.10
0.09
0.09
0.09
0.11
0.15
0.19
0.19
0.22
0.25
0.25
0.31
0.31
0.32
0.32
0.32
0.25
0.24
0.19
0.11
0.09
0.07
0.05
0.03
0.03
0.03
0.04
0.02
0.03
0.04
0.03
0.03
0.03
0.04
0.04
0.03
0.04
0.04
0.03
0.03
0.02
0.04
0.02
0.02
0.02
0.02
0.03
0.03
0.03
0.02
0.03
0.04
0.03
0.04
0.03
0.03
0.07
0.03
0.03
0.01
0.02
0.01
0.03
0.16
0.02
0.02
0.03
0.09
0.10
0.09
0.08
0.08
0.10
0.10
0.11
0.21
0.02
0.01
0.58
0.58
0.65
0.65
0.61
0.43
0.16
0.17
0.19
0.16
0.16
0.15
0.16
0.15
0.16
0.17
0.16
0.17
0.19
0.19
0.17
0.22
0.21
0.25
0.25
0.30
0.33
0.37
0.40
0.41
0.43
0.38
0.35
0.32
0.26
0.20
0.19
0.09
0.10
0.07
0.05
0.05
0.05
0.05
0.05
0.04
0.05
0.04
0.05
0.04
0.03
0.05
0.05
0.04
0.04
0.05
0.03
0.04
0.03
0.02
0.03
0.04
0.04
0.04
0.04
0.04
0.03
0.04
0.02
0.03
0.03
0.02
0.02
0.02
0.06
0.01
0.07
0.04
0.30
0.16
0.04
0.01
0.05
0.05
0.03
0.04
0.04
0.05
0.05
0.07
0.15
0.03
0.25
0.00
0.68
0.56
0.73
0.56
0.33
0.09
0.14
0.09
0.10
0.08
0.08
0.07
0.07
0.07
0.07
0.08
0.07
0.07
0.07
0.08
0.10
0.09
0.09
0.14
0.16
0.19
0.22
0.22
0.24
0.25
0.25
0.21
0.20
0.14
0.09
0.07
0.03
0.02
0.01
0.02
0.02
0.04
0.04
0.06
0.06
0.06
0.04
0.04
0.04
0.04
0.06
0.04
0.06
0.04
0.04
0.02
0.04
0.04
0.06
0.06
0.04
0.04
0.06
0.09
0.07
0.07
0.07
0.10
0.09
0.09
0.07
0.10
0.10
0.09
0.16
0.33
0.11
0.41
0.30
0.55
0.37
0.33
0.10
0.02
0.06
0.07
0.09
0.09
0.06
0.09
0.07
0.01
0.37
0.69
0.43
0.45
0.56
0.63
0.41
0.17
0.02
0.02
0.02
0.06
0.09
0.07
0.06
0.07
0.07
0.06
0.07
0.06
0.06
0.06
0.04
0.02
0.01
0.02
0.03
0.07
0.09
0.14
0.19
0.19
0.22
0.20
0.19
0.15
0.10
0.07
0.02
0.04
0.09
0.11
0.16
0.21
0.25
0.21
0.11
0.16
0.16
0.10
0.16
0.11
0.11
0.11
0.10
0.10
0.11
0.16
0.16
0.21
0.11
0.21
0.16
0.21
0.16
0.21
0.16
0.16
0.16
0.16
0.11
0.16
0.16
0.11
0.21
0.16
0.16
0.16
0.16
0.16
0.16
0.16
0.21
0.33
0.37
0.30
0.33
0.55
0.47
0.41
0.33
0.07
0.06
0.09
0.07
0.10
0.07
0.09
0.07
0.02
0.41
0.46
0.72
0.35
0.52
0.47
0.44
0.24
0.00
0.02
0.00
0.02
0.02
0.02
0.04
0.04
0.04
0.02
0.00
0.00
0.00
0.00
0.02
0.04
0.02
0.04
0.08
0.09
0.14
0.19
0.21
0.25
0.25
0.24
0.21
0.19
0.15
0.08
0.02
0.02
0.06
0.07
0.11
0.16
0.10
0.11
0.10
0.11
0.10
0.09
0.07
0.07
0.07
0.07
0.09
0.09
0.07
0.06
0.09
0.07
0.06
0.07
0.06
0.02
0.04
0.02
0.02
0.02
0.00
0.00
0.02
0.00
0.01
0.02
0.02
0.00
0.00
0.01
0.00
0.02
0.02
0.00
0.06
0.07
0.09
0.06
0.43
0.21
0.11
0.06
0.03
0.04
0.02
0.04
0.04
0.02
0.02
0.02
0.11
0.02
0.30
0.56
0.43
0.43
0.58
0.47
0.28
0.08
0.09
0.07
0.08
0.08
0.08
0.08
0.07
0.10
0.10
0.10
0.09
0.09
0.14
0.11
0.16
0.19
0.21
0.22
0.25
0.28
0.31
0.37
0.37
0.38
0.37
0.35
0.30
0.26
0.22
0.16
0.17
0.09
0.10
0.07
0.07
0.07
0.07
0.07
0.08
0.07
0.08
0.07
0.10
0.07
0.08
0.07
0.07
0.07
0.07
0.07
0.08
0.07
0.07
0.07
0.07
0.05
0.05
0.07
0.07
0.07
0.07
0.05
0.07
0.07
0.07
0.05
0.08
0.07
0.08
0.07
0.07
0.05
0.03
0.04
0.02
0.07
0.02
0.03
0.04
0.10
0.08
0.10
0.08
0.08
0.07
0.07
0.08
0.19
0.02
0.00
0.69
0.58
0.58
0.58
0.50
0.40
0.10
0.09
0.10
0.07
0.08
0.07
0.07
0.07
0.07
0.07
0.07
0.08
0.10
0.09
0.10
0.09
0.14
0.14
0.17
0.19
0.22
0.25
0.26
0.26
0.30
0.31
0.30
0.25
0.21
0.19
0.14
0.09
0.05
0.03
0.02
0.02
0.02
0.02
0.01
0.00
0.01
0.02
0.00
0.02
0.00
0.01
0.01
0.00
0.00
0.01
0.02
0.00
0.01
0.01
0.00
0.01
0.00
0.01
0.00
0.02
0.02
0.02
0.02
0.00
0.02
0.02
0.00
0.02
0.04
0.06
0.04
0.06
0.04
0.06
0.09
0.09
0.21
0.09
0.25
0.46
0.41
0.16
0.25
0.04
0.01
0.00
0.06
0.06
0.06
0.04
0.02
0.03
0.25
0.06
0.84
0.32
0.58
0.35
0.51
0.30
0.02
0.00
0.01
0.04
0.04
0.04
0.04
0.06
0.00
0.04
0.04
0.04
0.02
0.02
0.00
0.00
0.04
0.04
0.07
0.10
0.09
0.19
0.19
0.22
0.21
0.24
0.21
0.19
0.16
0.09
0.07
0.04
0.00
0.07
0.09
0.09
0.10
0.11
0.10
0.09
0.10
0.10
0.07
0.09
0.07
0.09
0.10
0.09
0.07
0.10
0.09
0.07
0.09
0.07
0.09
0.07
0.09
0.07
0.10
0.10
0.10
0.09
0.09
0.10
0.09
0.07
0.09
0.07
0.07
0.09
0.09
0.09
0.09
0.10
0.09
0.09
0.11
0.10
0.16
0.25
0.16
0.25
0.56
0.41
0.33
0.30
0.06
0.04
0.04
0.09
0.09
0.09
0.07
0.04
0.04
0.30
0.21
0.78
0.31
0.45
0.41
0.47
0.25
0.04
0.03
0.02
0.02
0.00
0.01
0.00
0.02
0.00
0.00
0.01
0.00
0.01
0.02
0.01
0.02
0.04
0.05
0.08
0.09
0.16
0.19
0.24
0.25
0.25
0.25
0.25
0.24
0.20
0.17
0.09
0.07
0.02
0.01
0.00
0.00
0.02
0.00
0.00
0.00
0.01
0.00
0.00
0.00
0.02
0.00
0.01
0.01
0.00
0.01
0.00
0.01
0.01
0.02
0.02
0.00
0.00
0.02
0.04
0.02
0.06
0.00
0.02
0.04
0.04
0.04
0.02
0.02
0.06
0.02
0.01
0.01
0.00
0.04
0.00
0.04
0.01
0.06
0.09
0.02
0.11
0.04
0.30
0.11
0.10
0.01
0.04
0.03
0.02
0.03
0.02
0.04
0.02
0.07
0.10
0.05
0.58
0.07
0.38
0.25
0.58
0.51
0.16
0.11
0.10
0.07
0.05
0.05
0.05
0.07
0.04
0.05
0.05
0.07
0.07
0.04
0.07
0.10
0.10
0.14
0.14
0.19
0.20
0.24
0.26
0.25
0.30
0.26
0.28
0.26
0.24
0.19
0.14
0.09
0.07
0.03
0.02
0.00
0.01
0.00
0.00
0.02
0.00
0.01
0.02
0.01
0.02
0.04
0.02
0.02
0.02
0.03
0.04
0.03
0.02
0.02
0.02
0.03
0.02
0.02
0.04
0.02
0.02
0.04
0.02
0.02
0.03
0.04
0.04
0.03
0.05
0.04
0.04
0.03
0.04
0.00
0.03
0.02
0.09
0.10
0.00
0.00
0.07
0.10
0.07
0.05
0.04
0.07
0.05
0.05
0.11
0.02
0.05
0.74
0.35
0.50
0.37
0.58
0.50
0.09
0.11
0.08
0.08
0.07
0.07
0.07
0.07
0.07
0.07
0.07
0.07
0.07
0.08
0.08
0.08
0.09
0.11
0.11
0.16
0.20
0.21
0.26
0.25
0.26
0.28
0.26
0.26
0.22
0.19
0.14
0.10
0.05
0.02
0.01
0.01
0.02
0.02
0.04
0.00
0.01
0.02
0.01
0.01
0.02
0.01
0.04
0.02
0.04
0.04
0.02
0.04
0.02
0.02
0.03
0.03
0.02
0.03
0.03
0.02
0.03
0.02
0.03
0.05
0.03
0.03
0.03
0.04
0.03
0.02
0.02
0.04
0.04
0.00
0.01
0.02
0.02
0.33
0.06
0.02
0.01
0.08
0.07
0.07
0.04
0.05
0.05
0.04
0.05
0.17
0.01
0.02
0.71
0.45
0.66
0.55
0.61
0.38
0.09
0.09
0.09
0.08
0.08
0.07
0.07
0.05
0.07
0.05
0.10
0.07
0.08
0.08
0.10
0.09
0.11
0.16
0.17
0.19
0.22
0.25
0.25
0.31
0.31
0.32
0.32
0.28
0.26
0.24
0.19
0.14
0.10
0.08
0.05
0.03
0.04
0.03
0.05
0.05
0.05
0.07
0.07
0.07
0.07
0.07
0.07
0.07
0.07
0.07
0.07
0.08
0.07
0.07
0.07
0.07
0.07
0.07
0.07
0.07
0.07
0.05
0.07
0.05
0.05
0.05
0.04
0.04
0.04
0.05
0.05
0.02
0.03
0.02
0.00
0.02
0.06
0.00
0.25
0.04
0.02
0.03
0.10
0.07
0.07
0.04
0.03
0.07
0.05
0.07
0.15
0.02
0.55
0.10
0.51
0.47
0.72
0.52
0.22
0.09
0.11
0.10
0.10
0.07
0.07
0.08
0.10
0.10
0.10
0.09
0.08
0.10
0.09
0.09
0.15
0.16
0.19
0.20
0.22
0.26
0.31
0.31
0.35
0.38
0.37
0.35
0.33
0.28
0.25
0.20
0.14
0.10
0.07
0.07
0.04
0.02
0.03
0.04
0.04
0.04
0.04
0.04
0.05
0.04
0.04
0.05
0.05
0.04
0.07
0.05
0.07
0.05
0.03
0.04
0.04
0.05
0.05
0.04
0.04
0.03
0.04
0.03
0.03
0.04
0.04
0.05
0.04
0.04
0.04
0.05
0.04
0.02
0.04
0.02
0.10
0.10
0.04
0.00
0.08
0.10
0.08
0.05
0.07
0.07
0.07
0.08
0.17
0.07
0.11
0.69
0.40
0.51
0.35
0.55
0.51
0.09
0.15
0.09
0.10
0.07
0.07
0.07
0.07
0.07
0.07
0.07
0.07
0.07
0.10
0.08
0.09
0.11
0.11
0.17
0.16
0.22
0.22
0.25
0.25
0.25
0.25
0.25
0.22
0.19
0.11
0.10
0.07
0.03
0.02
0.02
0.00
0.01
0.01
0.02
0.00
0.00
0.01
0.01
0.00
0.00
0.01
0.02
0.01
0.01
0.01
0.01
0.00
0.00
0.02
0.02
0.00
0.00
0.02
0.04
0.02
0.02
0.04
0.02
0.04
0.04
0.04
0.06
0.04
0.09
0.16
0.09
0.33
0.25
0.50
0.16
0.16
0.04
0.02
0.00
0.02
0.06
0.04
0.04
0.02
0.02
0.01
0.04
0.71
0.10
0.43
0.30
0.61
0.47
0.11
0.02
0.04
0.04
0.02
0.00
0.02
0.00
0.01
0.02
0.00
0.00
0.02
0.00
0.00
0.00
0.01
0.04
0.02
0.04
0.07
0.09
0.16
0.19
0.20
0.21
0.22
0.22
0.17
0.11
0.08
0.03
0.01
0.07
0.09
0.11
0.16
0.16
0.25
0.25
0.16
0.21
0.25
0.21
0.21
0.16
0.21
0.16
0.16
0.11
0.11
0.16
0.11
0.11
0.11
0.16
0.11
0.11
0.11
0.11
0.11
0.10
0.10
0.11
0.11
0.11
0.09
0.10
0.10
0.10
0.11
0.33
0.11
0.33
0.21
0.58
0.30
0.21
0.11
0.01
0.02
0.02
0.07
0.07
0.06
0.04
0.04
0.05
0.25
0.25
0.74
0.38
0.58
0.47
0.47
0.28
0.04
0.02
0.01
0.01
0.00
0.02
0.02
0.04
0.04
0.04
0.06
0.00
0.00
0.02
0.00
0.02
0.04
0.04
0.07
0.10
0.14
0.17
0.20
0.22
0.24
0.24
0.24
0.22
0.17
0.09
0.07
0.03
0.00
0.02
0.07
0.09
0.10
0.10
0.10
0.09
0.09
0.10
0.09
0.09
0.07
0.09
0.07
0.07
0.07
0.07
0.06
0.06
0.06
0.06
0.04
0.06
0.04
0.04
0.02
0.04
0.04
0.04
0.04
0.04
0.06
0.04
0.04
0.04
0.06
0.06
0.04
0.04
0.04
0.04
0.09
0.09
0.07
0.07
0.43
0.10
0.06
0.04
0.04
0.02
0.02
0.04
0.01
0.04
0.02
0.03
0.14
0.07
0.30
0.64
0.41
0.45
0.58
0.47
0.25
0.07
0.07
0.05
0.05
0.04
0.04
0.04
0.04
0.04
0.03
0.05
0.05
0.07
0.07
0.10
0.09
0.14
0.17
0.19
0.22
0.25
0.26
0.32
0.33
0.35
0.35
0.35
0.30
0.25
0.22
0.16
0.11
0.08
0.04
0.02
0.02
0.04
0.03
0.03
0.03
0.04
0.04
0.03
0.03
0.04
0.05
0.02
0.03
0.04
0.04
0.04
0.03
0.04
0.03
0.05
0.02
0.05
0.05
0.05
0.04
0.04
0.05
0.05
0.07
0.07
0.05
0.07
0.07
0.07
0.03
0.04
0.04
0.00
0.02
0.21
0.00
0.02
0.07
0.09
0.09
0.10
0.09
0.07
0.08
0.10
0.14
0.14
0.09
0.50
0.22
0.52
0.31
0.68
0.58
0.24
0.16
0.14
0.14
0.09
0.14
0.09
0.09
0.09
0.15
0.14
0.14
0.14
0.15
0.17
0.16
0.19
0.21
0.22
0.24
0.26
0.26
0.37
0.35
0.37
0.37
0.35
0.32
0.26
0.25
0.22
0.16
0.15
0.10
0.07
0.07
0.05
0.03
0.04
0.05
0.05
0.05
0.05
0.07
0.07
0.05
0.07
0.07
0.07
0.07
0.07
0.07
0.05
0.05
0.05
0.05
0.05
0.04
0.05
0.05
0.04
0.05
0.04
0.05
0.04
0.05
0.04
0.04
0.05
0.02
0.02
0.02
0.00
0.04
0.25
0.00
0.01
0.07
0.10
0.08
0.07
0.07
0.07
0.07
0.07
0.10
0.17
0.07
0.47
0.07
0.55
0.45
0.72
0.58
0.25
0.15
0.09
0.08
0.10
0.10
0.08
0.08
0.07
0.08
0.08
0.07
0.07
0.07
0.10
0.10
0.10
0.09
0.11
0.15
0.19
0.22
0.21
0.25
0.25
0.26
0.26
0.26
0.25
0.22
0.17
0.11
0.10
0.07
0.02
0.04
0.02
0.02
0.04
0.02
0.01
0.02
0.02
0.04
0.02
0.04
0.04
0.04
0.04
0.02
0.02
0.04
0.04
0.02
0.02
0.02
0.04
0.02
0.02
0.04
0.02
0.02
0.01
0.02
0.01
0.04
0.02
0.02
0.02
0.04
0.02
0.04
0.04
0.06
0.02
0.33
0.10
0.06
0.02
0.07
0.04
0.05
0.04
0.02
0.03
0.02
0.02
0.14
0.06
0.04
0.72
0.45
0.68
0.51
0.58
0.38
0.07
0.10
0.07
0.07
0.05
0.05
0.05
0.05
0.05
0.07
0.07
0.07
0.07
0.07
0.07
0.08
0.09
0.09
0.14
0.19
0.20
0.24
0.25
0.30
0.30
0.30
0.28
0.25
0.25
0.22
0.16
0.09
0.08
0.07
0.03
0.04
0.02
0.04
0.02
0.04
0.04
0.04
0.02
0.04
0.02
0.02
0.02
0.02
0.04
0.02
0.04
0.04
0.02
0.02
0.02
0.02
0.04
0.02
0.01
0.00
0.02
0.00
0.00
0.02
0.00
0.02
0.00
0.02
0.00
0.00
0.02
0.04
0.10
0.04
0.10
0.07
0.46
0.09
0.07
0.01
0.04
0.03
0.04
0.02
0.00
0.01
0.01
0.03
0.04
0.01
0.74
0.15
0.51
0.35
0.73
0.47
0.08
0.02
0.04
0.02
0.02
0.02
0.02
0.01
0.02
0.04
0.04
0.02
0.02
0.04
0.03
0.04
0.07
0.09
0.11
0.16
0.19
0.21
0.25
0.26
0.28
0.28
0.28
0.26
0.22
0.19
0.14
0.10
0.04
0.04
0.01
0.00
0.01
0.02
0.02
0.02
0.00
0.04
0.01
0.02
0.02
0.04
0.04
0.02
0.04
0.02
0.02
0.02
0.02
0.04
0.02
0.04
0.04
0.02
0.02
0.03
0.04
0.02
0.04
0.03
0.03
0.02
0.02
0.02
0.02
0.04
0.06
0.02
0.06
0.02
0.41
0.07
0.02
0.02
0.05
0.07
0.07
0.04
0.03
0.07
0.05
0.07
0.16
0.05
0.16
0.00
0.47
0.35
0.65
0.50
0.25
0.14
0.11
0.09
0.09
0.08
0.07
0.07
0.08
0.08
0.08
0.08
0.08
0.10
0.10
0.11
0.11
0.14
0.14
0.19
0.20
0.22
0.24
0.26
0.25
0.25
0.25
0.25
0.22
0.19
0.11
0.10
0.07
0.04
0.04
0.01
0.00
0.00
0.00
0.04
0.00
0.00
0.01
0.00
0.00
0.01
0.01
0.01
0.00
0.01
0.01
0.01
0.00
0.00
0.02
0.01
0.00
0.04
0.04
0.00
0.02
0.02
0.04
0.04
0.04
0.06
0.06
0.06
0.06
0.21
0.11
0.30
0.21
0.52
0.33
0.21
0.11
0.01
0.00
0.02
0.06
0.02
0.02
0.02
0.02
0.07
0.11
0.06
0.78
0.40
0.51
0.41
0.48
0.33
0.04
0.02
0.02
0.01
0.02
0.02
0.00
0.00
0.02
0.04
0.04
0.00
0.04
0.02
0.02
0.01
0.04
0.02
0.02
0.05
0.08
0.09
0.11
0.16
0.16
0.19
0.19
0.14
0.09
0.07
0.02
0.00
0.07
0.09
0.10
0.21
0.25
0.25
0.21
0.21
0.11
0.16
0.11
0.09
0.10
0.09
0.09
0.06
0.06
0.07
0.07
0.04
0.02
0.02
0.02
0.04
0.02
0.00
0.04
0.00
0.00
0.00
0.00
0.02
0.02
0.02
0.02
0.00
0.00
0.00
0.04
0.09
0.02
0.09
0.30
0.30
0.10
0.07
0.04
0.07
0.03
0.04
0.04
0.04
0.04
0.03
0.10
0.07
0.02
0.76
0.47
0.70
0.48
0.58
0.33
0.05
0.07
0.07
0.04
0.03
0.04
0.03
0.04
0.03
0.04
0.04
0.05
0.04
0.04
0.07
0.07
0.10
0.09
0.14
0.16
0.22
0.22
0.25
0.26
0.28
0.30
0.26
0.26
0.25
0.20
0.16
0.09
0.08
0.05
0.05
0.03
0.04
0.04
0.05
0.05
0.05
0.07
0.07
0.07
0.05
0.05
0.05
0.07
0.04
0.03
0.04
0.04
0.05
0.04
0.02
0.04
0.03
0.02
0.02
0.04
0.01
0.02
0.04
0.02
0.02
0.02
0.01
0.02
0.02
0.02
0.02
0.06
0.00
0.06
0.21
0.11
0.02
0.00
0.07
0.09
0.09
0.07
0.07
0.08
0.07
0.07
0.15
0.04
0.14
0.74
0.48
0.65
0.43
0.72
0.56
0.17
0.19
0.19
0.16
0.14
0.11
0.15
0.16
0.14
0.15
0.11
0.16
0.14
0.16
0.16
0.17
0.19
0.22
0.21
0.26
0.28
0.30
0.33
0.35
0.35
0.37
0.33
0.33
0.25
0.24
0.19
0.17
0.09
0.07
0.07
0.04
0.02
0.02
0.02
0.04
0.04
0.02
0.03
0.03
0.03
0.03
0.02
0.04
0.02
0.04
0.04
0.02
0.02
0.02
0.02
0.02
0.02
0.02
0.02
0.02
0.03
0.02
0.04
0.02
0.04
0.02
0.02
0.03
0.02
0.00
0.06
0.02
0.04
0.06
0.30
0.04
0.00
0.04
0.10
0.10
0.07
0.05
0.07
0.07
0.07
0.09
0.09
0.08
0.60
0.25
0.61
0.40
0.68
0.58
0.20
0.11
0.10
0.09
0.10
0.09
0.08
0.08
0.07
0.08
0.07
0.07
0.07
0.07
0.05
0.07
0.08
0.10
0.09
0.14
0.15
0.19
0.22
0.22
0.24
0.22
0.22
0.22
0.19
0.15
0.09
0.08
0.02
0.02
0.00
0.04
0.07
0.07
0.09
0.06
0.06
0.07
0.06
0.06
0.04
0.02
0.04
0.04
0.00
0.04
0.02
0.02
0.04
0.04
0.02
0.04
0.06
0.06
0.04
0.04
0.07
0.04
0.06
0.04
0.07
0.07
0.07
0.07
0.07
0.21
0.25
0.21
0.30
0.56
0.43
0.33
0.25
0.04
0.02
0.04
0.07
0.04
0.06
0.06
0.06
0.04
0.21
0.07
0.82
0.37
0.65
0.41
0.52
0.33
0.02
0.04
0.01
0.01
0.02
0.02
0.02
0.02
0.00
0.00
0.00
0.00
0.02
0.01
0.01
0.02
0.02
0.02
0.05
0.08
0.09
0.14
0.17
0.20
0.22
0.20
0.19
0.19
0.15
0.09
0.05
0.02
0.00
0.04
0.07
0.09
0.10
0.09
0.09
0.09
0.11
0.09
0.06
0.07
0.10
0.09
0.09
0.09
0.09
0.09
0.10
0.07
0.10
0.09
0.09
0.07
0.09
0.09
0.09
0.07
0.09
0.07
0.07
0.07
0.06
0.06
0.04
0.06
0.04
0.09
0.10
0.09
0.10
0.43
0.21
0.09
0.07
0.03
0.03
0.02
0.02
0.01
0.02
0.02
0.02
0.08
0.07
0.02
0.80
0.40
0.65
0.41
0.61
0.37
0.02
0.04
0.04
0.04
0.02
0.02
0.04
0.02
0.02
0.02
0.02
0.02
0.02
0.02
0.02
0.05
0.07
0.08
0.09
0.15
0.17
0.21
0.21
0.25
0.26
0.28
0.26
0.25
0.22
0.19
0.15
0.08
0.07
0.02
0.04
0.00
0.00
0.02
0.04
0.00
0.00
0.02
0.01
0.00
0.01
0.01
0.00
0.01
0.02
0.02
0.01
0.02
0.02
0.04
0.02
0.02
0.02
0.02
0.02
0.00
0.02
0.01
0.01
0.00
0.00
0.01
0.02
0.00
0.02
0.00
0.02
0.02
0.10
0.00
0.10
0.11
0.37
0.06
0.06
0.04
0.07
0.07
0.03
0.02
0.02
0.07
0.03
0.05
0.09
0.07
0.68
0.19
0.51
0.38
0.76
0.50
0.19
0.15
0.09
0.09
0.08
0.08
0.08
0.09
0.08
0.10
0.08
0.08
0.09
0.10
0.11
0.14
0.15
0.17
0.20
0.22
0.25
0.26
0.30
0.30
0.33
0.32
0.32
0.31
0.25
0.25
0.21
0.15
0.10
0.07
0.05
0.04
0.02
0.04
0.00
0.02
0.02
0.02
0.02
0.04
0.03
0.04
0.02
0.02
0.04
0.03
0.03
0.03
0.03
0.04
0.03
0.03
0.04
0.05
0.05
0.05
0.02
0.04
0.03
0.02
0.02
0.02
0.02
0.04
0.02
0.02
0.01
0.04
0.02
0.21
0.07
0.02
0.01
0.05
0.07
0.07
0.07
0.07
0.07
0.07
0.08
0.22
0.07
0.03
0.56
0.61
0.47
0.61
0.51
0.37
0.09
0.14
0.09
0.08
0.10
0.08
0.07
0.07
0.07
0.07
0.07
0.07
0.07
0.07
0.08
0.08
0.10
0.10
0.09
0.11
0.15
0.19
0.19
0.22
0.22
0.20
0.20
0.19
0.14
0.08
0.05
0.03
0.01
0.04
0.06
0.09
0.06
0.06
0.07
0.06
0.04
0.04
0.02
0.04
0.02
0.02
0.01
0.01
0.01
0.01
0.02
0.02
0.01
0.02
0.01
0.02
0.01
0.00
0.02
0.01
0.02
0.00
0.00
0.00
0.02
0.04
0.02
0.09
0.11
0.07
0.25
0.33
0.41
0.16
0.16
0.01
0.02
0.02
0.02
0.00
0.00
0.00
0.00
0.03
0.02
0.04
0.81
0.32
0.63
0.35
0.65
0.45
0.03
0.03
0.02
0.02
0.02
0.01
0.01
0.02
0.02
0.01
0.01
0.01
0.01
0.02
0.02
0.04
0.02
0.05
0.07
0.08
0.09
0.15
0.19
0.20
0.22
0.22
0.22
0.20
0.16
0.09
0.07
0.05
0.02
0.02
0.04
0.07
0.07
0.09
0.07
0.06
0.07
0.06
0.07
0.04
0.06
0.06
0.06
0.06
0.07
0.04
0.09
0.06
0.07
0.04
0.06
0.07
0.06
0.04
0.04
0.04
0.04
0.04
0.04
0.02
0.04
0.04
0.04
0.02
0.06
0.10
0.09
0.07
0.07
0.46
0.16
0.07
0.06
0.04
0.04
0.03
0.02
0.02
0.04
0.02
0.04
0.11
0.07
0.02
0.74
0.41
0.66
0.47
0.56
0.32
0.04
0.05
0.03
0.02
0.04
0.02
0.02
0.02
0.04
0.04
0.04
0.03
0.02
0.04
0.05
0.05
0.07
0.08
0.09
0.14
0.17
0.20
0.21
0.25
0.26
0.26
0.25
0.24
0.20
0.17
0.09
0.07
0.04
0.02
0.02
0.00
0.04
0.02
0.04
0.02
0.00
0.00
0.00
0.01
0.02
0.01
0.01
0.01
0.00
0.01
0.00
0.00
0.00
0.00
0.00
0.00
0.00
0.02
0.02
0.02
0.04
0.04
0.06
0.06
0.06
0.07
0.06
0.06
0.04
0.04
0.16
0.06
0.16
0.09
0.50
0.16
0.10
0.06
0.03
0.02
0.04
0.00
0.01
0.04
0.02
0.04
0.09
0.07
0.46
0.25
0.47
0.50
0.61
0.47
0.22
0.04
0.05
0.03
0.02
0.03
0.02
0.05
0.03
0.05
0.07
0.05
0.07
0.07
0.10
0.09
0.11
0.11
0.16
0.19
0.22
0.22
0.26
0.26
0.30
0.31
0.30
0.26
0.25
0.22
0.15
0.10
0.05
0.03
0.04
0.02
0.00
0.00
0.00
0.01
0.01
0.02
0.01
0.00
0.00
0.02
0.00
0.01
0.00
0.01
0.01
0.02
0.04
0.01
0.02
0.01
0.02
0.01
0.02
0.00
0.01
0.01
0.00
0.00
0.00
0.02
0.02
0.02
0.07
0.01
0.11
0.07
0.37
0.10
0.07
0.04
0.04
0.04
0.04
0.03
0.03
0.04
0.03
0.08
0.07
0.08
0.67
0.26
0.51
0.28
0.55
0.51
0.09
0.14
0.07
0.07
0.10
0.07
0.07
0.07
0.08
0.08
0.07
0.08
0.10
0.08
0.10
0.09
0.09
0.11
0.14
0.17
0.19
0.22
0.22
0.24
0.24
0.25
0.22
0.22
0.17
0.11
0.08
0.05
0.04
0.01
0.02
0.04
0.06
0.04
0.06
0.06
0.04
0.00
0.04
0.04
0.02
0.02
0.06
0.02
0.02
0.04
0.02
0.02
0.02
0.02
0.01
0.00
0.00
0.00
0.02
0.01
0.00
0.00
0.00
0.00
0.01
0.01
0.01
0.04
0.10
0.02
0.10
0.09
0.37
0.06
0.06
0.03
0.07
0.03
0.03
0.02
0.04
0.02
0.02
0.03
0.05
0.02
0.68
0.17
0.55
0.37
0.70
0.50
0.09
0.07
0.05
0.04
0.03
0.03
0.02
0.02
0.02
0.02
0.03
0.02
0.03
0.04
0.03
0.04
0.05
0.07
0.09
0.09
0.16
0.17
0.24
0.24
0.25
0.26
0.26
0.25
0.22
0.19
0.11
0.09
0.07
0.04
0.02
0.04
0.04
0.02
0.02
0.04
0.02
0.02
0.02
0.03
0.03
0.03
0.04
0.04
0.05
0.05
0.04
0.05
0.04
0.05
0.07
0.05
0.05
0.04
0.05
0.05
0.04
0.04
0.04
0.07
0.04
0.05
0.04
0.07
0.03
0.04
0.02
0.02
0.03
0.16
0.02
0.04
0.04
0.11
0.09
0.09
0.08
0.07
0.08
0.07
0.07
0.20
0.04
0.01
0.56
0.58
0.72
0.68
0.58
0.35
0.09
0.11
0.10
0.07
0.07
0.07
0.08
0.07
0.07
0.07
0.10
0.10
0.09
0.09
0.09
0.14
0.15
0.17
0.20
0.22
0.25
0.25
0.28
0.32
0.32
0.32
0.31
0.28
0.25
0.22
0.15
0.11
0.08
0.07
0.03
0.02
0.03
0.03
0.04
0.05
0.04
0.05
0.07
0.07
0.05
0.07
0.07
0.07
0.07
0.07
0.07
0.07
0.07
0.07
0.07
0.08
0.05
0.07
0.07
0.07
0.07
0.07
0.07
0.07
0.07
0.07
0.04
0.04
0.04
0.04
0.01
0.02
0.01
0.11
0.06
0.00
0.01
0.08
0.08
0.07
0.05
0.04
0.05
0.04
0.05
0.17
0.00
0.00
0.58
0.56
0.61
0.68
0.56
0.30
0.09
0.10
0.10
0.10
0.07
0.07
0.07
0.07
0.07
0.08
0.08
0.09
0.10
0.10
0.09
0.09
0.15
0.16
0.20
0.21
0.26
0.26
0.28
0.33
0.32
0.32
0.26
0.25
0.22
0.17
0.09
0.07
0.05
0.03
0.02
0.04
0.02
0.02
0.03
0.02
0.02
0.03
0.03
0.04
0.04
0.05
0.03
0.04
0.05
0.04
0.05
0.05
0.04
0.04
0.05
0.02
0.03
0.03
0.03
0.02
0.03
0.02
0.04
0.02
0.02
0.04
0.00
0.07
0.02
0.06
0.11
0.25
0.10
0.09
0.03
0.05
0.03
0.03
0.02
0.04
0.02
0.03
0.11
0.02
0.10
0.70
0.40
0.51
0.32
0.47
0.47
0.07
0.10
0.08
0.07
0.05
0.03
0.03
0.04
0.03
0.03
0.03
0.02
0.03
0.03
0.07
0.07
0.08
0.09
0.14
0.15
0.17
0.22
0.22
0.25
0.24
0.24
0.21
0.19
0.15
0.09
0.07
0.02
0.02
0.02
0.06
0.09
0.07
0.07
0.09
0.09
0.02
0.04
0.07
0.30
0.52
0.04
0.88
0.94
0.94
0.94
0.90
0.07
0.94
0.94
0.64
0.02
0.61
0.43
0.35
0.04
0.09
0.37
0.43
0.47
0.52
0.56
0.62
0.64
0.64
0.67
0.69
0.71
0.69
0.70
0.70
0.70
0.71
0.76
0.78
0.79
0.79
0.76
0.74
0.70
0.68
0.63
0.55
0.46
0.33
0.30
0.25
0.21
0.21
0.25
0.25
0.21
0.30
0.30
0.30
0.33
0.33
0.33
0.30
0.33
0.30
0.33
0.25
0.25
0.30
0.21
0.25
0.25
0.21
0.25
0.21
0.16
0.25
0.21
0.25
0.25
0.21
0.25
0.25
0.25
0.25
0.33
0.30
0.30
0.30
0.30
0.30
0.33
0.33
0.33
0.33
0.33
0.37
0.33
0.30
0.37
0.37
0.37
0.37
0.37
0.37
0.33
0.33
0.30
0.30
0.30
0.33
0.33
0.30
0.30
0.30
0.30
0.25
0.37
0.46
0.33
0.46
0.47
0.63
0.43
0.43
0.16
0.07
0.11
0.11
0.11
0.16
0.10
0.11
0.00
0.00
0.03
0.78
0.14
0.26
0.10
0.43
0.37
0.01
0.02
0.01
0.00
0.01
0.04
0.01
0.04
0.04
0.06
0.04
0.06
0.06
0.02
0.04
0.02
0.00
0.02
0.03
0.05
0.07
0.10
0.09
0.16
0.19
0.19
0.19
0.20
0.20
0.19
0.16
0.09
0.10
0.05
0.04
0.00
0.02
0.04
0.06
0.07
0.06
0.07
0.07
0.09
0.06
0.07
0.06
0.07
0.07
0.02
0.07
0.28
0.51
0.80
0.63
0.20
0.87
1.00
1.00
1.00
1.00
0.99
0.94
0.95
1.00
1.00
0.99
0.95
0.41
0.14
0.19
0.33
0.43
0.47
0.52
0.56
0.63
0.70
0.77
0.80
0.84
0.86
0.90
0.91
0.91
0.92
0.93
0.93
0.93
0.93
0.92
0.91
0.91
0.85
0.78
0.56
0.37
0.25
0.19
0.15
0.11
0.14
0.14
0.09
0.09
0.09
0.11
0.09
0.11
0.11
0.11
0.09
0.09
0.10
0.11
0.14
0.09
0.11
0.09
0.14
0.10
0.09
0.11
0.11
0.09
0.10
0.09
0.09
0.10
0.08
0.10
0.10
0.09
0.09
0.09
0.10
0.09
0.14
0.09
0.09
0.09
0.09
0.11
0.09
0.09
0.09
0.09
0.09
0.09
0.09
0.11
0.09
0.05
0.10
0.05
0.09
0.07
0.05
0.05
0.09
0.17
0.16
0.17
0.15
0.17
0.16
0.16
0.19
0.25
0.20
0.10
0.07
0.55
0.35
0.72
0.66
0.37
0.24
0.24
0.21
0.20
0.20
0.19
0.19
0.17
0.19
0.19
0.19
0.17
0.19
0.19
0.19
0.19
0.20
0.21
0.21
0.25
0.25
0.25
0.25
0.28
0.28
0.26
0.26
0.28
0.30
0.26
0.26
0.25
0.21
0.19
0.14
0.11
0.09
0.10
0.08
0.07
0.07
0.07
0.07
0.07
0.07
0.07
0.07
0.08
0.08
0.07
0.07
0.07
0.07
0.07
0.05
0.07
0.07
0.05
0.07
0.05
0.04
0.02
0.02
0.04
0.11
0.07
0.00
0.02
0.10
0.09
0.09
0.07
0.07
0.10
0.10
0.08
0.14
0.10
0.11
0.74
0.31
0.65
0.43
0.76
0.58
0.11
0.14
0.09
0.10
0.08
0.08
0.10
0.10
0.08
0.08
0.10
0.07
0.09
0.10
0.09
0.09
0.14
0.15
0.19
0.22
0.24
0.25
0.28
0.28
0.30
0.32
0.30
0.26
0.25
0.21
0.19
0.14
0.09
0.07
0.07
0.04
0.04
0.04
0.04
0.05
0.05
0.05
0.05
0.05
0.07
0.04
0.05
0.03
0.03
0.04
0.04
0.02
0.03
0.02
0.02
0.01
0.02
0.04
0.02
0.02
0.02
0.04
0.00
0.02
0.01
0.30
0.07
0.00
0.01
0.10
0.10
0.08
0.05
0.07
0.07
0.07
0.08
0.15
0.04
0.09
0.78
0.47
0.78
0.48
0.72
0.47
0.09
0.11
0.09
0.10
0.07
0.08
0.08
0.07
0.08
0.07
0.08
0.10
0.10
0.09
0.09
0.11
0.15
0.19
0.19
0.21
0.26
0.25
0.30
0.31
0.33
0.32
0.33
0.28
0.25
0.22
0.19
0.16
0.11
0.08
0.07
0.08
0.07
0.10
0.08
0.10
0.09
0.08
0.10
0.08
0.09
0.10
0.09
0.09
0.09
0.09
0.11
0.09
0.11
0.11
0.09
0.09
0.09
0.14
0.14
0.11
0.09
0.11
0.14
0.10
0.07
0.11
0.08
0.04
0.02
0.07
0.10
0.17
0.20
0.17
0.15
0.15
0.15
0.15
0.15
0.17
0.22
0.19
0.60
0.31
0.68
0.44
0.79
0.63
0.24
0.22
0.19
0.19
0.15
0.17
0.19
0.19
0.19
0.19
0.17
0.19
0.17
0.19
0.20
0.21
0.22
0.25
0.25
0.26
0.28
0.33
0.35
0.37
0.38
0.38
0.35
0.35
0.32
0.26
0.24
0.20
0.16
0.15
0.15
0.11
0.09
0.09
0.09
0.09
0.11
0.09
0.11
0.11
0.11
0.09
0.09
0.14
0.16
0.11
0.14
0.09
0.14
0.14
0.11
0.11
0.11
0.09
0.09
0.09
0.09
0.09
0.09
0.07
0.04
0.07
0.04
0.05
0.09
0.04
0.04
0.07
0.14
0.11
0.14
0.09
0.09
0.10
0.09
0.14
0.22
0.07
0.03
0.64
0.65
0.61
0.65
0.58
0.43
0.15
0.15
0.11
0.09
0.09
0.09
0.08
0.10
0.08
0.10
0.09
0.10
0.09
0.09
0.09
0.09
0.09
0.15
0.17
0.19
0.22
0.21
0.24
0.25
0.26
0.25
0.25
0.21
0.19
0.11
0.08
0.07
0.03
0.01
0.02
0.04
0.06
0.02
0.06
0.06
0.06
0.07
0.07
0.07
0.09
0.07
0.06
0.09
0.07
0.07
0.07
0.06
0.09
0.07
0.10
0.07
0.09
0.10
0.10
0.11
0.10
0.10
0.16
0.11
0.21
0.30
0.16
0.30
0.43
0.47
0.25
0.25
0.02
0.02
0.04
0.07
0.06
0.09
0.06
0.07
0.07
0.00
0.11
0.74
0.07
0.50
0.47
0.76
0.40
0.04
0.00
0.02
0.07
0.09
0.10
0.09
0.09
0.10
0.10
0.10
0.10
0.10
0.11
0.10
0.09
0.07
0.02
0.00
0.04
0.03
0.08
0.08
0.11
0.14
0.15
0.15
0.09
0.07
0.03
0.01
0.09
0.10
0.21
0.25
0.33
0.37
0.37
0.33
0.37
0.33
0.33
0.30
0.33
0.30
0.30
0.33
0.30
0.30
0.33
0.37
0.33
0.33
0.33
0.30
0.33
0.33
0.33
0.37
0.33
0.33
0.33
0.33
0.33
0.30
0.41
0.47
0.33
0.50
0.50
0.62
0.46
0.43
0.16
0.06
0.10
0.16
0.16
0.21
0.10
0.11
0.11
0.00
0.33
0.70
0.09
0.44
0.40
0.65
0.37
0.03
0.07
0.07
0.09
0.10
0.11
0.11
0.16
0.09
0.11
0.11
0.10
0.09
0.06
0.07
0.02
0.00
0.02
0.04
0.07
0.09
0.14
0.19
0.20
0.22
0.24
0.22
0.21
0.19
0.14
0.09
0.07
0.03
0.00
0.00
0.06
0.04
0.09
0.06
0.07
0.07
0.07
0.06
0.07
0.10
0.09
0.16
0.11
0.10
0.11
0.16
0.16
0.21
0.21
0.21
0.21
0.30
0.21
0.25
0.25
0.21
0.25
0.16
0.21
0.21
0.30
0.25
0.21
0.33
0.41
0.16
0.41
0.43
0.55
0.30
0.30
0.02
0.02
0.02
0.06
0.04
0.06
0.04
0.06
0.01
0.02
0.00
0.72
0.20
0.47
0.25
0.61
0.41
0.03
0.04
0.04
0.01
0.02
0.00
0.02
0.01
0.01
0.01
0.02
0.02
0.04
0.02
0.04
0.04
0.05
0.07
0.10
0.14
0.17
0.19
0.21
0.22
0.24
0.26
0.25
0.21
0.16
0.09
0.07
0.02
0.01
0.04
0.07
0.09
0.09
0.10
0.10
0.07
0.07
0.07
0.06
0.06
0.07
0.06
0.07
0.04
0.06
0.07
0.06
0.04
0.02
0.02
0.04
0.06
0.06
0.06
0.07
0.07
0.06
0.04
0.07
0.09
0.09
0.10
0.11
0.07
0.25
0.16
0.50
0.25
0.10
0.07
0.01
0.00
0.01
0.04
0.01
0.01
0.00
0.02
0.04
0.02
0.63
0.14
0.50
0.25
0.55
0.47
0.14
0.04
0.02
0.03
0.02
0.01
0.01
0.02
0.02
0.02
0.02
0.02
0.03
0.04
0.02
0.04
0.07
0.07
0.08
0.09
0.09
0.16
0.19
0.22
0.22
0.22
0.20
0.19
0.14
0.09
0.04
0.03
0.02
0.02
0.06
0.04
0.07
0.09
0.09
0.10
0.07
0.04
0.06
0.04
0.02
0.04
0.04
0.02
0.00
0.01
0.00
0.04
0.02
0.00
0.02
0.04
0.04
0.04
0.06
0.07
0.07
0.06
0.07
0.09
0.09
0.09
0.21
0.25
0.11
0.33
0.41
0.52
0.37
