0.19
0.05
0.01
0.00
0.01
0.00
0.01
0.04
0.04
0.15
0.03
0.03
0.71
0.59
0.62
0.62
0.59
0.57
0.09
0.15
0.08
0.04
0.04
0.01
0.01
0.00
0.00
0.00
0.00
0.00
0.01
0.00
0.01
0.00
0.00
0.01
0.00
0.00
0.00
0.01
0.05
0.08
0.11
0.15
0.25
0.28
0.28
0.28
0.28
0.27
0.11
0.11
0.08
0.05
0.04
0.01
0.01
0.01
0.04
0.04
0.04
0.01
0.00
0.01
0.04
0.00
0.01
0.00
0.00
0.01
0.01
0.01
0.01
0.01
0.01
0.01
0.01
0.01
0.01
0.01
0.03
0.01
0.01
0.01
0.01
0.01
0.01
0.01
0.01
0.03
0.10
0.03
0.15
0.42
0.30
0.30
0.15
0.01
0.00
0.01
0.00
0.00
0.01
0.01
0.01
0.05
0.15
0.01
0.81
0.56
0.62
0.62
0.62
0.58
0.15
0.15
0.05
0.04
0.04
0.00
0.00
0.00
0.01
0.00
0.00
0.00
0.00
0.00
0.01
0.00
0.00
0.00
0.00
0.00
0.00
0.01
0.04
0.08
0.09
0.15
0.11
0.25
0.20
0.20
0.20
0.15
0.05
0.01
0.00
0.01
0.01
0.01
0.01
0.01
0.01
0.01
0.01
0.01
0.01
0.01
0.01
0.01
0.01
0.01
0.01
0.01
0.03
0.03
0.01
0.01
0.01
0.05
0.05
0.05
0.09
0.05
0.05
0.05
0.05
0.05
0.03
0.03
0.01
0.03
0.01
0.01
0.01
0.09
0.15
0.09
0.15
0.51
0.37
0.33
0.10
0.01
0.00
0.01
0.00
0.00
0.05
0.04
0.04
0.11
0.09
0.09
0.70
0.58
0.62
0.63
0.60
0.58
0.25
0.20
0.15
0.11
0.11
0.08
0.05
0.04
0.01
0.04
0.00
0.00
0.00
0.00
0.00
0.01
0.00
0.01
0.04
0.08
0.05
0.09
0.11
0.20
0.27
0.25
0.28
0.28
0.31
0.28
0.27
0.11
0.08
0.01
0.01
0.01
0.00
0.01
0.01
0.01
0.01
0.01
0.01
0.01
0.01
0.01
0.01
0.01
0.01
0.01
0.05
0.03
0.05
0.09
0.05
0.09
0.05
0.09
0.15
0.09
0.09
0.15
0.15
0.15
0.09
0.15
0.10
0.18
0.10
0.03
0.09
0.18
0.30
0.18
0.28
0.47
0.46
0.37
0.24
0.03
0.01
0.00
0.01
0.01
0.00
0.01
0.01
0.09
0.01
0.01
0.73
0.58
0.59
0.61
0.59
0.57
0.11
0.15
0.09
0.11
0.09
0.04
0.09
0.05
0.08
0.04
0.05
0.01
0.01
0.01
0.01
0.00
0.00
0.05
0.04
0.04
0.08
0.05
0.09
0.11
0.15
0.11
0.15
0.20
0.28
0.15
0.11
0.11
0.04
0.01
0.00
0.01
0.01
0.01
0.01
0.01
0.01
0.01
0.01
0.01
0.01
0.01
0.01
0.01
0.01
0.01
0.01
0.01
0.01
0.01
0.01
0.09
0.05
0.01
0.03
0.01
0.03
0.09
0.05
0.03
0.01
0.05
0.01
0.03
0.01
0.05
0.15
0.09
0.15
0.46
0.37
0.40
0.28
0.05
0.01
0.00
0.00
0.00
0.01
0.01
0.04
0.20
0.01
0.10
0.62
0.60
0.65
0.65
0.60
0.56
0.20
0.20
0.15
0.11
0.11
0.11
0.09
0.08
0.08
0.08
0.09
0.08
0.05
0.04
0.04
0.04
0.01
0.01
0.00
0.00
0.01
0.01
0.05
0.08
0.11
0.15
0.20
0.20
0.27
0.28
0.28
0.20
0.15
0.09
0.05
0.05
0.01
0.00
0.00
0.00
0.00
0.00
0.00
0.00
0.00
0.00
0.01
0.01
0.01
0.01
0.04
0.01
0.01
0.01
0.01
0.01
0.04
0.01
0.00
0.00
0.00
0.00
0.01
0.00
0.00
0.00
0.00
0.00
0.00
0.00
0.00
0.01
0.00
0.01
0.01
0.01
0.03
0.19
0.19
0.18
0.01
0.00
0.04
0.05
0.08
0.05
0.11
0.08
0.09
0.09
0.01
0.00
0.80
0.57
0.62
0.62
0.65
0.59
0.15
0.25
0.15
0.11
0.11
0.08
0.05
0.08
0.09
0.05
0.05
0.05
0.05
0.05
0.01
0.01
0.01
0.00
0.01
0.00
0.00
0.00
0.01
0.05
0.08
0.08
0.15
0.20
0.25
0.27
0.25
0.20
0.11
0.08
0.08
0.01
0.01
0.04
0.04
0.04
0.01
0.01
0.00
0.04
0.04
0.01
0.01
0.01
0.04
0.04
0.04
0.01
0.04
0.04
0.08
0.08
0.08
0.08
0.09
0.09
0.08
0.09
0.09
0.09
0.11
0.08
0.08
0.09
0.05
0.01
0.01
0.00
0.01
0.24
0.10
0.19
0.01
0.00
0.01
0.05
0.00
0.00
0.04
0.01
0.05
0.05
0.09
0.03
0.79
0.56
0.60
0.62
0.61
0.56
0.20
0.25
0.15
0.15
0.09
0.11
0.11
0.11
0.11
0.11
0.11
0.15
0.11
0.11
0.11
0.11
0.11
0.09
0.11
0.15
0.25
0.25
0.27
0.31
0.40
0.40
0.40
0.40
0.40
0.34
0.27
0.15
0.08
0.01
0.00
0.01
0.01
0.01
0.03
0.01
0.01
0.01
0.01
0.01
0.01
0.01
0.01
0.01
0.01
0.01
0.01
0.01
0.01
0.01
0.01
0.01
0.01
0.01
0.01
0.01
0.01
0.01
0.03
0.03
0.03
0.03
0.03
0.03
0.03
0.05
0.05
0.15
0.03
0.19
0.37
0.42
0.40
0.24
0.01
0.01
0.01
0.01
0.01
0.01
0.01
0.01
0.08
0.05
0.01
0.79
0.57
0.58
0.59
0.58
0.56
0.11
0.25
0.11
0.11
0.08
0.05
0.09
0.05
0.08
0.08
0.08
0.08
0.05
0.05
0.01
0.04
0.05
0.04
0.04
0.04
0.05
0.15
0.09
0.11
0.25
0.25
0.20
0.15
0.27
0.15
0.15
0.09
0.08
0.00
0.00
0.01
0.01
0.01
0.01
0.01
0.01
0.01
0.01
0.01
0.01
0.01
0.01
0.01
0.01
0.01
0.01
0.01
0.01
0.05
0.03
0.05
0.03
0.05
0.05
0.03
0.01
0.05
0.01
0.01
0.03
0.01
0.01
0.01
0.15
0.10
0.10
0.15
0.55
0.42
0.40
0.28
0.09
0.01
0.01
0.01
0.01
0.01
0.00
0.00
0.05
0.01
0.47
0.01
0.61
0.60
0.65
0.59
0.52
0.05
0.04
0.04
0.00
0.04
0.00
0.01
0.00
0.01
0.01
0.00
0.00
0.00
0.00
0.00
0.00
0.01
0.01
0.01
0.01
0.01
0.01
0.00
0.00
0.01
0.01
0.01
0.08
0.08
0.09
0.08
0.01
0.01
0.01
0.01
0.01
0.01
0.01
0.01
0.01
0.03
0.01
0.01
0.01
0.01
0.01
0.01
0.01
0.01
0.01
0.01
0.01
0.01
0.01
0.01
0.01
0.01
0.01
0.01
0.01
0.01
0.03
0.01
0.01
0.01
0.01
0.01
0.05
0.09
0.03
0.05
0.40
0.28
0.24
0.09
0.00
0.00
0.04
0.00
0.01
0.01
0.01
0.01
0.08
0.05
0.01
0.80
0.58
0.63
0.63
0.62
0.57
0.11
0.15
0.11
0.08
0.05
0.04
0.04
0.01
0.04
0.01
0.04
0.04
0.04
0.04
0.01
0.00
0.00
0.01
0.00
0.00
0.00
0.00
0.01
0.05
0.11
0.09
0.15
0.11
0.20
0.20
0.15
0.09
0.05
0.00
0.00
0.01
0.01
0.01
0.01
0.01
0.01
0.01
0.01
0.01
0.01
0.01
0.01
0.01
0.03
0.01
0.03
0.09
0.09
0.10
0.05
0.10
0.10
0.09
0.10
0.10
0.09
0.09
0.09
0.09
0.01
0.09
0.09
0.09
0.19
0.09
0.19
0.47
0.37
0.33
0.18
0.01
0.01
0.01
0.01
0.01
0.01
0.01
0.00
0.01
0.18
0.10
0.81
0.56
0.61
0.61
0.61
0.58
0.05
0.09
0.05
0.04
0.01
0.00
0.01
0.00
0.01
0.00
0.00
0.00
0.00
0.00
0.00
0.00
0.01
0.01
0.01
0.05
0.04
0.05
0.11
0.15
0.20
0.20
0.27
0.25
0.25
0.15
0.09
0.08
0.04
0.01
0.01
0.01
0.01
0.03
0.05
0.10
0.05
0.03
0.01
0.01
0.01
0.01
0.01
0.01
0.00
0.01
0.01
0.01
0.01
0.01
0.01
0.01
0.01
0.01
0.01
0.01
0.01
0.01
0.01
0.01
0.01
0.01
0.03
0.05
0.24
0.05
0.24
0.47
0.42
0.47
0.24
0.09
0.01
0.01
0.00
0.01
0.01
0.01
0.00
0.05
0.01
0.01
0.76
0.57
0.58
0.59
0.59
0.57
0.05
0.15
0.09
0.04
0.04
0.04
0.05
0.05
0.04
0.00
0.00
0.04
0.00
0.01
0.01
0.01
0.01
0.01
0.00
0.01
0.04
0.04
0.09
0.15
0.09
0.11
0.11
0.20
0.15
0.11
0.08
0.04
0.01
0.00
0.01
0.01
0.01
0.01
0.01
0.01
0.03
0.01
0.01
0.01
0.03
0.01
0.03
0.01
0.01
0.01
0.05
0.09
0.01
0.03
0.01
0.03
0.09
0.03
0.09
0.05
0.05
0.03
0.01
0.01
0.01
0.05
0.03
0.03
0.01
0.15
0.18
0.28
0.24
0.57
0.42
0.40
0.30
0.03
0.03
0.01
0.00
0.01
0.00
0.04
0.08
0.11
0.00
0.47
0.01
0.61
0.62
0.66
0.58
0.56
0.11
0.08
0.05
0.04
0.04
0.01
0.01
0.01
0.01
0.00
0.01
0.04
0.04
0.01
0.05
0.04
0.05
0.01
0.01
0.04
0.05
0.05
0.08
0.09
0.09
0.09
0.15
0.25
0.27
0.15
0.15
0.09
0.04
0.01
0.01
0.01
0.04
0.00
0.01
0.04
0.05
0.08
0.05
0.04
0.05
0.05
0.08
0.08
0.05
0.04
0.04
0.05
0.04
0.01
0.04
0.01
0.01
0.00
0.00
0.00
0.00
0.00
0.00
0.01
0.00
0.04
0.01
0.01
0.01
0.01
0.37
0.15
0.15
0.01
0.04
0.04
0.09
0.08
0.05
0.08
0.11
0.11
0.28
0.03
0.09
0.66
0.59
0.65
0.65
0.60
0.57
0.28
0.28
0.25
0.15
0.15
0.11
0.11
0.09
0.08
0.05
0.01
0.04
0.01
0.01
0.01
0.01
0.04
0.00
0.01
0.01
0.01
0.08
0.09
0.11
0.11
0.20
0.25
0.27
0.28
0.27
0.25
0.15
0.09
0.05
0.04
0.00
0.01
0.00
0.00
0.00
0.01
0.05
0.01
0.01
0.01
0.01
0.04
0.05
0.04
0.04
0.01
0.00
0.00
0.01
0.00
0.00
0.00
0.00
0.00
0.00
0.00
0.00
0.01
0.00
0.00
0.00
0.00
0.01
0.01
0.01
0.01
0.33
0.15
0.10
0.01
0.08
0.08
0.11
0.08
0.08
0.11
0.15
0.15
0.20
0.03
0.24
0.57
0.59
0.63
0.65
0.61
0.57
0.34
0.28
0.27
0.20
0.25
0.20
0.20
0.15
0.20
0.20
0.20
0.20
0.25
0.20
0.20
0.25
0.15
0.15
0.15
0.15
0.20
0.27
0.20
0.28
0.28
0.31
0.28
0.34
0.31
0.28
0.20
0.11
0.09
0.04
0.00
0.00
0.00
0.01
0.01
0.01
0.00
0.00
0.01
0.01
0.01
0.00
0.00
0.01
0.01
0.01
0.01
0.01
0.01
0.01
0.01
0.01
0.01
0.01
0.01
0.01
0.01
0.01
0.01
0.01
0.03
0.01
0.01
0.01
0.03
0.05
0.09
0.10
0.46
0.37
0.30
0.15
0.00
0.01
0.01
0.00
0.01
0.00
0.00
0.04
0.09
0.01
0.19
0.47
0.58
0.58
0.64
0.59
0.57
0.15
0.25
0.15
0.09
0.11
0.05
0.08
0.08
0.08
0.11
0.09
0.08
0.08
0.08
0.05
0.08
0.08
0.05
0.05
0.11
0.11
0.11
0.09
0.25
0.25
0.28
0.25
0.28
0.25
0.20
0.15
0.09
0.04
0.00
0.00
0.01
0.01
0.01
0.01
0.01
0.01
0.01
0.01
0.01
0.01
0.01
0.01
0.01
0.01
0.01
0.01
0.01
0.01
0.01
0.01
0.01
0.01
0.01
0.01
0.01
0.01
0.01
0.01
0.01
0.01
0.01
0.10
0.01
0.10
0.33
0.37
0.40
0.19
0.05
0.00
0.01
0.01
0.05
0.05
0.09
0.08
0.31
0.00
0.04
0.69
0.58
0.64
0.63
0.60
0.58
0.28
0.37
0.25
0.27
0.20
0.11
0.20
0.11
0.15
0.15
0.11
0.09
0.05
0.04
0.04
0.05
0.04
0.01
0.00
0.00
0.00
0.05
0.04
0.04
0.08
0.09
0.11
0.15
0.15
0.11
0.09
0.09
0.04
0.01
0.00
0.00
0.00
0.01
0.01
0.01
0.00
0.01
0.01
0.01
0.01
0.01
0.00
0.01
0.01
0.01
0.01
0.01
0.01
0.01
0.01
0.01
0.01
0.01
0.01
0.01
0.01
0.01
0.01
0.01
0.01
0.05
0.09
0.09
0.05
0.40
0.18
0.18
0.01
0.00
0.00
0.05
0.05
0.04
0.08
0.08
0.09
0.09
0.01
0.64
0.34
0.61
0.63
0.64
0.61
0.47
0.27
0.20
0.15
0.11
0.09
0.09
0.08
0.11
0.09
0.05
0.08
0.05
0.08
0.04
0.01
0.01
0.01
0.00
0.00
0.01
0.00
0.00
0.04
0.05
0.08
0.08
0.11
0.20
0.11
0.11
0.05
0.05
0.00
0.01
0.01
0.01
0.01
0.01
0.01
0.01
0.01
0.03
0.01
0.01
0.01
0.01
0.01
0.01
0.01
0.01
0.01
0.01
0.01
0.01
0.03
0.03
0.03
0.01
0.01
0.05
0.09
0.01
0.05
0.01
0.05
0.05
0.05
0.03
0.10
0.18
0.10
0.15
0.51
0.33
0.30
0.18
0.01
0.01
0.00
0.01
0.01
0.01
0.00
0.01
0.05
0.15
0.33
0.68
0.58
0.63
0.65
0.60
0.57
0.25
0.20
0.15
0.08
0.09
0.08
0.04
0.04
0.00
0.01
0.01
0.00
0.01
0.01
0.01
0.01
0.00
0.00
0.01
0.00
0.00
0.04
0.04
0.08
0.11
0.15
0.15
0.20
0.15
0.09
0.05
0.04
0.01
0.01
0.01
0.01
0.03
0.03
0.09
0.05
0.03
0.05
0.05
0.01
0.09
0.03
0.03
0.03
0.09
0.09
0.09
0.05
0.09
0.15
0.18
0.15
0.10
0.15
0.19
0.19
0.18
0.19
0.19
0.18
0.15
0.18
0.10
0.15
0.19
0.28
0.09
0.33
0.55
0.51
0.55
0.37
0.10
0.01
0.03
0.03
0.03
0.01
0.01
0.00
0.00
0.10
0.01
0.79
0.56
0.58
0.59
0.57
0.57
0.04
0.09
0.04
0.01
0.01
0.00
0.01
0.01
0.00
0.04
0.01
0.00
0.00
0.00
0.01
0.00
0.04
0.04
0.04
0.08
0.09
0.08
0.11
0.20
0.28
0.28
0.25
0.28
0.28
0.25
0.11
0.08
0.04
0.01
0.00
0.01
0.01
0.01
0.01
0.01
0.01
0.03
0.03
0.05
0.03
0.09
0.03
0.03
0.05
0.05
0.05
0.10
0.09
0.09
0.05
0.09
0.05
0.01
0.03
0.01
0.01
0.01
0.01
0.01
0.00
0.00
0.00
0.00
0.01
0.01
0.01
0.37
0.24
0.18
0.05
0.01
0.04
0.05
0.11
0.08
0.11
0.09
0.15
0.20
0.01
0.42
0.04
0.60
0.61
0.64
0.58
0.52
0.11
0.08
0.08
0.05
0.04
0.01
0.01
0.04
0.01
0.00
0.00
0.00
0.00
0.01
0.00
0.00
0.01
0.00
0.01
0.00
0.01
0.01
0.05
0.08
0.09
0.08
0.11
0.15
0.11
0.09
0.04
0.01
0.00
0.00
0.01
0.01
0.01
0.01
0.01
0.01
0.01
0.01
0.01
0.01
0.01
0.01
0.01
0.01
0.00
0.01
0.01
0.01
0.00
0.00
0.00
0.01
0.00
0.00
0.01
0.00
0.01
0.00
0.00
0.01
0.01
0.03
0.05
0.01
0.40
0.19
0.24
0.05
0.01
0.00
0.04
0.01
0.00
0.04
0.04
0.05
0.15
0.09
0.18
0.68
0.58
0.61
0.65
0.59
0.57
0.15
0.25
0.15
0.11
0.09
0.11
0.09
0.09
0.11
0.08
0.11
0.05
0.05
0.08
0.04
0.05
0.01
0.05
0.04
0.05
0.05
0.05
0.11
0.15
0.15
0.25
0.15
0.25
0.25
0.20
0.11
0.08
0.01
0.00
0.01
0.01
0.01
0.01
0.03
0.01
0.03
0.05
0.05
0.09
0.05
0.03
0.05
0.03
0.09
0.05
0.05
0.05
0.09
0.09
0.10
0.05
0.10
0.09
0.10
0.10
0.09
0.10
0.10
0.10
0.19
0.24
0.24
0.30
0.60
0.46
0.33
0.18
0.03
0.01
0.00
0.01
0.00
0.01
0.00
0.05
0.11
0.03
0.24
0.64
0.57
0.58
0.65
0.58
0.57
0.09
0.09
0.08
0.01
0.00
0.00
0.00
0.00
0.00
0.00
0.01
0.01
0.01
0.01
0.01
0.01
0.01
0.00
0.00
0.00
0.04
0.05
0.08
0.09
0.11
0.11
0.15
0.15
0.15
0.08
0.01
0.01
0.01
0.05
0.10
0.10
0.10
0.15
0.05
0.10
0.10
0.05
0.01
0.03
0.05
0.03
0.03
0.01
0.03
0.05
0.01
0.03
0.09
0.09
0.10
0.09
0.18
0.10
0.10
0.10
0.10
0.15
0.10
0.05
0.10
0.24
0.24
0.30
0.28
0.60
0.55
0.51
0.30
0.09
0.10
0.09
0.03
0.05
0.01
0.01
0.03
0.00
0.09
0.60
0.37
0.57
0.57
0.62
0.56
0.47
0.00
0.00
0.00
0.01
0.01
0.01
0.01
0.00
0.00
0.00
0.00
0.05
0.04
0.05
0.09
0.08
0.20
0.25
0.25
0.25
0.27
0.31
0.37
0.42
0.42
0.40
0.42
0.40
0.34
0.28
0.15
0.08
0.01
0.01
0.00
0.01
0.01
0.01
0.03
0.05
0.09
0.18
0.42
0.33
0.24
0.15
0.08
0.09
0.57
0.58
0.00
0.01
0.57
0.90
0.93
0.90
0.88
0.58
0.47
0.01
0.04
0.04
0.11
0.15
0.11
0.20
0.25
0.15
0.04
0.15
0.15
0.34
0.47
0.48
0.56
0.57
0.56
0.56
0.57
0.56
0.57
0.57
0.57
0.53
0.42
0.34
0.20
0.09
0.05
0.05
0.01
0.00
0.00
0.00
0.00
0.00
0.00
0.00
0.00
0.00
0.01
0.00
0.01
0.01
0.00
0.00
0.00
0.00
0.00
0.00
0.00
0.00
0.00
0.00
0.00
0.00
0.00
0.00
0.01
0.00
0.01
0.01
0.01
0.04
0.04
0.08
0.04
0.08
0.08
0.09
0.09
0.08
0.09
0.08
0.08
0.09
0.08
0.05
0.05
0.05
0.05
0.08
0.08
0.05
0.09
0.08
0.11
0.11
0.09
0.11
0.15
0.15
0.15
0.20
0.15
0.05
0.15
0.04
0.00
0.05
0.00
0.00
0.11
0.27
0.25
0.34
0.42
0.40
0.43
0.42
0.51
0.48
0.40
0.46
0.57
0.61
0.60
0.65
0.63
0.57
0.58
0.56
0.56
0.51
0.48
0.47
0.47
0.42
0.37
0.31
0.27
0.25
0.20
0.15
0.09
0.08
0.08
0.05
0.05
0.04
0.01
0.04
0.05
0.04
0.05
0.05
0.09
0.20
0.25
0.31
0.40
0.40
0.34
0.28
0.20
0.11
0.09
0.09
0.05
0.05
0.04
0.01
0.05
0.01
0.00
0.00
0.00
0.01
0.01
0.01
0.01
0.01
0.00
0.08
0.52
0.56
0.60
0.58
0.47
0.95
0.99
1.00
1.00
0.99
0.98
0.95
0.93
0.98
0.98
0.98
0.93
0.24
0.42
0.57
0.57
0.57
0.59
0.59
0.61
0.61
0.62
0.64
0.66
0.65
0.64
0.66
0.75
0.83
0.86
0.87
0.88
0.89
0.89
0.88
0.87
0.85
0.74
0.64
0.63
0.59
0.56
0.48
0.31
0.27
0.11
0.09
0.09
0.08
0.09
0.09
0.08
0.08
0.08
0.05
0.05
0.04
0.04
0.01
0.01
0.00
0.01
0.01
0.01
0.01
0.01
0.01
0.01
0.03
0.01
0.01
0.01
0.03
0.03
0.01
0.01
0.01
0.01
0.01
0.01
0.01
0.01
0.01
0.01
0.01
0.01
0.01
0.01
0.01
0.01
0.01
0.01
0.03
0.10
0.15
0.19
0.33
0.57
0.42
0.40
0.19
0.03
0.03
0.01
0.00
0.00
0.00
0.00
0.01
0.05
0.00
0.76
0.11
0.56
0.58
0.63
0.58
0.34
0.11
0.11
0.11
0.04
0.05
0.04
0.04
0.04
0.01
0.01
0.00
0.04
0.08
0.08
0.05
0.08
0.09
0.05
0.09
0.09
0.08
0.08
0.08
0.08
0.04
0.01
0.04
0.04
0.08
0.09
0.08
0.04
0.01
0.00
0.01
0.01
0.01
0.03
0.03
0.03
0.03
0.05
0.03
0.05
0.05
0.03
0.03
0.03
0.01
0.01
0.01
0.01
0.01
0.01
0.05
0.03
0.03
0.01
0.03
0.03
0.10
0.10
0.24
0.37
0.47
0.46
0.40
0.19
0.05
0.09
0.03
0.01
0.01
0.01
0.01
0.01
0.01
0.00
0.69
0.15
0.61
0.61
0.61
0.57
0.37
0.08
0.05
0.04
0.00
0.00
0.00
0.00
0.00
0.00
0.00
0.01
0.00
0.00
0.00
0.00
0.00
0.00
0.00
0.01
0.01
0.04
0.04
0.08
0.08
0.15
0.11
0.11
0.11
0.09
0.08
0.01
0.00
0.01
0.01
0.01
0.01
0.05
0.05
0.05
0.03
0.05
0.05
0.09
0.09
0.03
0.05
0.03
0.05
0.05
0.03
0.03
0.09
0.01
0.03
0.03
0.01
0.03
0.01
0.03
0.05
0.18
0.10
0.18
0.46
0.37
0.33
0.19
0.05
0.01
0.01
0.01
0.01
0.01
0.01
0.00
0.00
0.01
0.15
0.84
0.56
0.62
0.63
0.66
0.58
0.27
0.15
0.09
0.04
0.00
0.01
0.00
0.00
0.01
0.01
0.01
0.01
0.01
0.01
0.01
0.03
0.03
0.05
0.05
0.05
0.01
0.01
0.01
0.01
0.01
0.00
0.04
0.05
0.04
0.05
0.01
0.00
0.01
0.01
0.03
0.05
0.09
0.05
0.10
0.03
0.09
0.05
0.03
0.05
0.05
0.09
0.05
0.05
0.10
0.10
0.10
0.15
0.09
0.10
0.10
0.10
0.10
0.09
0.09
0.09
0.03
0.10
0.19
0.18
0.19
0.57
0.40
0.40
0.19
0.05
0.05
0.01
0.01
0.01
0.01
0.01
0.01
0.04
0.19
0.40
0.79
0.58
0.66
0.65
0.61
0.57
0.09
0.15
0.08
0.04
0.05
0.04
0.04
0.04
0.01
0.01
0.01
0.01
0.00
0.00
0.01
0.00
0.01
0.00
0.01
0.01
0.05
0.09
0.11
0.11
0.25
0.25
0.27
0.25
0.25
0.15
0.09
0.08
0.01
0.00
0.01
0.01
0.01
0.01
0.01
0.01
0.01
0.01
0.01
0.01
0.03
0.01
0.01
0.05
0.05
0.09
0.03
0.09
0.05
0.09
0.05
0.05
0.05
0.01
0.01
0.01
0.01
0.05
0.01
0.03
0.01
0.01
0.01
0.05
0.15
0.05
0.19
0.37
0.37
0.33
0.24
0.01
0.01
0.01
0.01
0.01
0.00
0.01
0.01
0.01
0.15
0.10
0.84
0.57
0.61
0.62
0.65
0.58
0.20
0.15
0.05
0.05
0.04
0.05
0.04
0.04
0.04
0.05
0.04
0.05
0.08
0.05
0.08
0.05
0.08
0.08
0.11
0.09
0.25
0.20
0.25
0.28
0.31
0.34
0.31
0.27
0.27
0.15
0.15
0.05
0.01
0.01
0.01
0.01
0.01
0.03
0.01
0.05
0.03
0.03
0.05
0.09
0.05
0.03
0.01
0.05
0.05
0.09
0.03
0.05
0.03
0.09
0.09
0.03
0.03
0.01
0.01
0.01
0.01
0.01
0.01
0.03
0.09
0.51
0.57
0.66
0.80
0.82
0.69
0.40
0.63
0.73
0.82
0.89
0.92
0.92
0.93
0.82
0.18
0.56
0.51
0.47
0.47
0.51
0.53
0.56
0.57
0.57
0.56
0.56
0.56
0.57
0.58
0.58
0.61
0.60
0.62
0.61
0.63
0.60
0.61
0.59
0.58
0.56
0.56
0.56
0.47
0.34
0.25
0.09
0.08
0.04
0.05
0.05
0.05
0.05
0.01
0.01
0.00
0.00
0.00
0.01
0.01
0.01
0.01
0.01
0.01
0.01
0.01
0.01
0.01
0.01
0.01
0.01
0.01
0.01
0.01
0.01
0.01
0.01
0.01
0.01
0.01
0.01
0.01
0.01
0.01
0.01
0.01
0.01
0.01
0.01
0.01
0.01
0.05
0.01
0.10
0.40
0.30
0.28
0.10
0.01
0.00
0.01
0.01
0.05
0.05
0.05
0.08
0.05
0.01
0.03
0.82
0.57
0.60
0.63
0.66
0.59
0.31
0.28
0.25
0.25
0.15
0.15
0.11
0.11
0.11
0.09
0.08
0.08
0.05
0.05
0.04
0.04
0.05
0.04
0.08
0.04
0.05
0.05
0.09
0.15
0.15
0.20
0.25
0.28
0.34
0.34
0.31
0.27
0.20
0.11
0.04
0.01
0.00
0.00
0.00
0.00
0.01
0.00
0.00
0.00
0.00
0.01
0.01
0.01
0.01
0.01
0.01
0.01
0.01
0.01
0.01
0.01
0.01
0.01
0.01
0.01
0.01
0.10
0.03
0.15
0.19
0.46
0.30
0.19
0.03
0.01
0.01
0.01
0.00
0.00
0.01
0.00
0.01
0.04
0.09
0.69
0.01
0.61
0.66
0.64
0.60
0.43
0.25
0.15
0.11
0.09
0.05
0.04
0.04
0.05
0.01
0.00
0.00
0.00
0.00
0.00
0.01
0.00
0.00
0.00
0.00
0.01
0.05
0.08
0.15
0.20
0.25
0.25
0.20
0.20
0.11
0.05
0.00
0.01
0.01
0.05
0.05
0.09
0.05
0.09
0.05
0.05
0.09
0.09
0.03
0.05
0.05
0.03
0.05
0.03
0.03
0.09
0.05
0.09
0.05
0.05
0.05
0.05
0.03
0.03
0.00
0.08
0.03
0.18
0.10
0.01
0.53
0.77
0.79
0.66
0.56
0.61
0.95
0.96
0.96
0.90
0.69
0.47
0.57
0.52
0.40
0.11
0.15
0.11
0.11
0.11
0.08
0.11
0.09
0.20
0.28
0.27
0.31
0.37
0.42
0.47
0.48
0.47
0.42
0.31
0.15
0.04
0.01
0.03
0.10
0.15
0.15
0.15
0.10
0.03
0.01
0.01
0.01
0.01
0.01
0.00
0.01
0.01
0.01
0.01
0.01
0.01
0.01
0.01
0.09
0.09
0.05
0.05
0.05
0.03
0.05
0.05
0.10
0.09
0.10
0.10
0.09
0.03
0.09
0.10
0.05
0.03
0.09
0.03
0.09
0.05
0.05
0.03
0.09
0.03
0.01
0.03
0.03
0.03
0.01
0.01
0.01
0.01
0.01
0.03
0.15
0.05
0.28
0.51
0.47
0.42
0.30
0.15
0.01
0.01
0.01
0.00
0.01
0.00
0.01
0.11
0.01
0.03
0.76
0.56
0.59
0.61
0.61
0.58
0.20
0.15
0.11
0.05
0.05
0.05
0.04
0.01
0.01
0.01
0.00
0.00
0.01
0.04
0.00
0.01
0.05
0.05
0.05
0.05
0.05
0.09
0.09
0.11
0.09
0.11
0.11
0.15
0.20
0.25
0.25
0.11
0.15
0.08
0.04
0.01
0.01
0.00
0.00
0.01
0.01
0.01
0.01
0.01
0.00
0.01
0.01
0.01
0.00
0.00
0.00
0.00
0.01
0.04
0.01
0.01
0.04
0.05
0.05
0.04
0.05
0.01
0.00
0.00
0.01
0.19
0.09
0.03
0.01
0.08
0.08
0.15
0.15
0.11
0.25
0.11
0.15
0.31
0.01
0.30
0.58
0.61
0.65
0.65
0.60
0.56
0.28
0.34
0.27
0.27
0.20
0.25
0.20
0.20
0.25
0.20
0.20
0.11
0.20
0.11
0.09
0.08
0.08
0.09
0.09
0.08
0.08
0.11
0.20
0.27
0.28
0.27
0.31
0.31
0.31
0.28
0.20
0.11
0.08
0.08
0.01
0.01
0.01
0.01
0.01
0.01
0.01
0.04
0.04
0.05
0.04
0.05
0.05
0.04
0.05
0.04
0.04
0.04
0.04
0.04
0.01
0.01
0.01
0.04
0.01
0.00
0.00
0.01
0.01
0.01
0.01
0.10
0.19
0.30
0.24
0.09
0.01
0.00
0.00
0.00
0.04
0.00
0.04
0.01
0.04
0.01
0.09
0.84
0.57
0.62
0.65
0.65
0.59
0.34
0.28
0.20
0.15
0.09
0.09
0.08
0.09
0.08
0.09
0.09
0.08
0.08
0.09
0.08
0.09
0.09
0.09
0.08
0.11
0.15
0.27
0.28
0.31
0.34
0.40
0.42
0.43
0.42
0.34
0.28
0.15
0.11
0.05
0.01
0.00
0.00
0.00
0.01
0.01
0.00
0.01
0.00
0.00
0.00
0.00
0.01
0.00
0.01
0.01
0.01
0.01
0.01
0.01
0.01
0.01
0.01
0.01
0.01
0.01
0.01
0.01
0.01
0.01
0.01
0.01
0.01
0.01
0.10
0.01
0.18
0.42
0.33
0.28
0.09
0.01
0.00
0.00
0.01
0.01
0.00
0.04
0.04
0.00
0.15
0.15
0.85
0.58
0.62
0.62
0.64
0.58
0.15
0.25
0.08
0.08
0.04
0.08
0.11
0.11
0.09
0.15
0.11
0.20
0.15
0.15
0.15
0.25
0.25
0.27
0.25
0.31
0.37
0.37
0.42
0.43
0.48
0.47
0.51
0.51
0.43
0.42
0.34
0.28
0.25
0.09
0.05
0.04
0.00
0.04
0.01
0.01
0.00
0.01
0.00
0.00
0.01
0.00
0.00
0.00
0.00
0.01
0.01
0.01
0.01
0.01
0.01
0.01
0.01
0.01
0.01
0.01
0.01
0.03
0.01
0.01
0.01
0.01
0.09
0.09
0.10
0.10
0.55
0.40
0.37
0.24
0.01
0.01
0.00
0.00
0.01
0.01
0.00
0.04
0.20
0.03
0.30
0.75
0.60
0.62
0.65
0.59
0.57
0.09
0.15
0.15
0.04
0.04
0.01
0.01
0.05
0.04
0.01
0.04
0.00
0.04
0.04
0.04
0.01
0.05
0.04
0.05
0.08
0.08
0.11
0.15
0.20
0.20
0.25
0.27
0.27
0.25
0.11
0.08
0.04
0.05
0.00
0.01
0.01
0.01
0.01
0.01
0.01
0.01
0.01
0.01
0.01
0.01
0.03
0.01
0.01
0.01
0.01
0.01
0.01
0.01
0.01
0.01
0.01
0.01
0.01
0.01
0.01
0.01
0.01
0.01
0.01
0.01
0.18
0.05
0.15
0.40
0.33
0.33
0.15
0.01
0.01
0.04
0.01
0.04
0.08
0.09
0.09
0.11
0.03
0.03
0.79
0.59
0.65
0.65
0.63
0.59
0.20
0.20
0.09
0.09
0.05
0.01
0.01
0.01
0.00
0.01
0.00
0.00
0.01
0.01
0.00
0.01
0.01
0.01
0.01
0.01
0.01
0.01
0.00
0.01
0.08
0.08
0.11
0.15
0.15
0.11
0.09
0.05
0.00
0.00
0.01
0.01
0.01
0.01
0.01
0.01
0.01
0.03
0.01
0.01
0.01
0.01
0.01
0.01
0.01
0.01
0.01
0.01
0.01
0.01
0.01
0.01
0.01
0.01
0.01
0.01
0.01
0.01
0.01
0.01
0.01
0.01
0.01
0.01
0.05
0.18
0.05
0.24
0.47
0.46
0.46
0.30
0.10
0.05
0.03
0.01
0.01
0.01
0.01
0.01
0.01
0.15
0.19
0.84
0.58
0.61
0.62
0.65
0.59
0.25
0.11
0.09
0.11
0.05
0.05
0.05
0.04
0.04
0.01
0.04
0.00
0.00
0.01
0.01
0.00
0.01
0.00
0.04
0.01
0.04
0.04
0.08
0.09
0.15
0.20
0.20
0.20
0.25
0.20
0.08
0.04
0.00
0.01
0.01
0.01
0.03
0.05
0.05
0.01
0.09
0.01
0.03
0.03
0.01
0.01
0.05
0.03
0.03
0.05
0.05
0.09
0.09
0.05
0.05
0.05
0.09
0.09
0.09
0.09
0.15
0.10
0.10
0.10
0.09
0.09
0.15
0.24
0.18
0.30
0.33
0.60
0.42
0.40
0.19
0.05
0.09
0.01
0.01
0.03
0.01
0.01
0.01
0.00
0.30
0.58
0.67
0.58
0.62
0.65
0.58
0.52
0.09
0.08
0.08
0.04
0.04
0.04
0.05
0.04
0.05
0.01
0.04
0.00
0.01
0.01
0.01
0.01
0.01
0.04
0.09
0.05
0.09
0.20
0.27
0.37
0.31
0.34
0.34
0.34
0.34
0.27
0.25
0.09
0.04
0.00
0.00
0.01
0.01
0.01
0.01
0.01
0.01
0.01
0.01
0.00
0.01
0.00
0.01
0.01
0.00
0.00
0.01
0.01
0.01
0.01
0.01
0.01
0.01
0.01
0.01
0.01
0.01
0.01
0.01
0.03
0.05
0.15
0.18
0.19
0.24
0.57
0.42
0.46
0.28
0.05
0.03
0.01
0.00
0.01
0.00
0.00
0.00
0.11
0.01
0.57
0.33
0.60
0.61
0.65
0.59
0.57
0.20
0.25
0.15
0.09
0.15
0.09
0.11
0.08
0.08
0.05
0.09
0.05
0.09
0.11
0.11
0.11
0.11
0.09
0.15
0.20
0.27
0.28
0.25
0.31
0.34
0.37
0.37
0.34
0.34
0.27
0.27
0.20
0.08
0.08
0.04
0.01
0.04
0.00
0.00
0.01
0.00
0.01
0.01
0.01
0.01
0.00
0.01
0.00
0.01
0.00
0.00
0.00
0.00
0.00
0.00
0.01
0.00
0.00
0.00
0.00
0.00
0.01
0.01
0.01
0.01
0.05
0.03
0.15
0.47
0.33
0.33
0.18
0.05
0.01
0.01
0.01
0.01
0.01
0.01
0.04
0.08
0.03
0.03
0.80
0.56
0.62
0.63
0.64
0.59
0.27
0.27
0.20
0.11
0.05
0.05
0.05
0.09
0.04
0.05
0.04
0.01
0.05
0.01
0.00
0.01
0.00
0.01
0.01
0.00
0.00
0.04
0.05
0.08
0.08
0.09
0.15
0.25
0.25
0.15
0.11
0.08
0.04
0.01
0.00
0.01
0.01
0.01
0.01
0.01
0.00
0.00
0.00
0.00
0.00
0.00
0.00
0.01
0.00
0.00
0.01
0.00
0.00
0.00
0.00
0.00
0.01
0.00
0.00
0.01
0.01
0.00
0.01
0.01
0.09
0.01
0.15
0.33
0.37
0.37
0.18
0.03
0.01
0.00
0.00
0.01
0.01
0.01
0.04
0.04
0.00
0.01
0.75
0.37
0.61
0.64
0.64
0.60
0.42
0.27
0.15
0.11
0.08
0.09
0.08
0.08
0.04
0.05
0.05
0.05
0.04
0.01
0.01
0.01
0.05
0.04
0.01
0.05
0.05
0.09
0.09
0.15
0.20
0.25
0.27
0.28
0.28
0.27
0.25
0.11
0.09
0.01
0.00
0.01
0.01
0.01
0.01
0.01
0.01
0.01
0.01
0.01
0.01
0.01
0.01
0.01
0.01
0.01
0.01
0.01
0.01
0.05
0.09
0.05
0.09
0.09
0.05
0.09
0.10
0.15
0.10
0.10
0.15
0.30
0.24
0.40
0.47
0.60
0.57
0.46
0.28
0.10
0.15
0.01
0.01
0.01
0.01
0.01
0.01
0.01
0.01
0.74
0.52
0.59
0.61
0.66
0.59
0.28
0.25
0.09
0.09
0.01
0.05
0.01
0.04
0.01
0.01
0.00
0.00
0.00
0.05
0.01
0.01
0.01
0.00
0.04
0.04
0.11
0.09
0.11
0.15
0.15
0.20
0.25
0.15
0.20
0.08
0.01
0.01
0.01
0.01
0.01
0.03
0.03
0.03
0.03
0.01
0.03
0.01
0.01
0.03
0.01
0.01
0.01
0.01
0.01
0.01
0.01
0.01
0.03
0.01
0.01
0.09
0.10
0.09
0.09
0.05
0.15
0.15
0.09
0.15
0.24
0.19
0.24
0.58
0.47
0.46
0.33
0.09
0.03
0.00
0.01
0.01
0.00
0.00
0.01
0.20
0.01
0.28
0.70
0.62
0.66
0.66
0.61
0.56
0.08
0.15
0.09
0.05
0.08
0.05
0.04
0.01
0.01
0.01
0.01
0.01
0.00
0.00
0.00
0.00
0.00
0.00
0.01
0.01
0.00
0.00
0.00
0.00
0.01
0.00
0.05
0.05
0.08
0.04
0.08
0.01
0.00
0.00
0.01
0.01
0.01
0.00
0.01
0.01
0.01
0.01
0.01
0.01
0.01
0.01
0.00
0.01
0.01
0.01
0.00
0.00
0.00
0.01
0.00
0.00
0.01
0.01
0.01
0.01
0.01
0.01
0.01
0.01
0.01
0.03
0.03
0.03
0.40
0.19
0.24
0.01
0.00
0.04
0.09
0.05
0.11
0.11
0.15
0.20
0.27
0.01
0.15
0.64
0.61
0.64
0.64
0.63
0.58
0.31
0.28
0.27
0.25
0.25
0.15
0.15
0.11
0.15
0.15
0.09
0.08
0.08
0.08
0.08
0.04
0.04
0.04
0.04
0.08
0.08
0.09
0.15
0.20
0.25
0.27
0.31
0.34
0.31
0.31
0.27
0.15
0.11
0.08
0.09
0.04
0.04
0.01
0.04
0.01
0.05
0.01
0.04
0.01
0.01
0.01
0.00
0.00
0.00
0.00
0.00
0.00
0.00
0.01
0.04
0.04
0.04
0.05
0.04
0.05
0.08
0.05
0.04
0.04
0.01
0.01
0.01
0.01
0.09
0.28
0.18
0.09
0.01
0.04
0.05
0.08
0.05
0.04
0.09
0.09
0.11
0.01
0.01
0.77
0.57
0.62
0.64
0.64
0.60
0.37
0.28
0.25
0.15
0.15
0.11
0.11
0.09
0.09
0.05
0.08
0.08
0.05
0.05
0.04
0.01
0.05
0.04
0.05
0.05
0.09
0.09
0.20
0.25
0.27
0.28
0.34
0.34
0.37
0.31
0.31
0.27
0.20
0.09
0.08
0.08
0.05
0.05
0.05
0.09
0.08
0.05
0.09
0.09
0.08
0.11
0.05
0.05
0.01
0.01
0.01
0.01
0.01
0.01
0.04
0.01
0.00
0.01
0.01
0.01
0.00
0.01
0.05
0.04
0.11
0.08
0.01
0.01
0.01
0.01
0.01
0.40
0.18
0.19
0.01
0.00
0.01
0.09
0.05
0.04
0.09
0.08
0.11
0.25
0.01
0.42
0.01
0.60
0.63
0.65
0.59
0.48
0.27
0.25
0.11
0.11
0.09
0.11
0.11
0.05
0.08
0.05
0.09
0.05
0.08
0.05
0.08
0.08
0.08
0.09
0.09
0.11
0.11
0.15
0.15
0.28
0.25
0.31
0.31
0.34
0.20
0.20
0.15
0.09
0.09
0.01
0.04
0.01
0.04
0.04
0.01
0.04
0.04
0.05
0.04
0.04
0.05
0.01
0.04
0.00
0.01
0.00
0.00
0.00
0.01
0.00
0.00
0.00
0.00
0.00
0.01
0.00
0.00
0.00
0.00
0.01
0.01
0.03
0.05
0.10
0.47
0.40
0.37
0.24
0.03
0.01
0.01
0.01
0.01
0.04
0.04
0.08
0.11
0.00
0.57
0.27
0.64
0.65
0.65
0.61
0.58
0.27
0.27
0.25
0.20
0.15
0.15
0.15
0.15
0.11
0.11
0.09
0.08
0.08
0.09
0.04
0.04
0.01
0.01
0.01
0.00
0.01
0.01
0.04
0.05
0.08
0.05
0.09
0.09
0.09
0.08
0.01
0.00
0.01
0.00
0.01
0.01
0.03
0.01
0.01
0.01
0.01
0.01
0.01
0.01
0.03
0.03
0.05
0.03
0.01
0.03
0.05
0.03
0.05
0.01
0.03
0.03
0.09
0.03
0.03
0.03
0.03
0.03
0.03
0.01
0.05
0.18
0.15
0.28
0.30
0.51
0.42
0.30
0.15
0.01
0.01
0.01
0.01
0.01
0.00
0.00
0.00
0.01
0.24
0.71
0.05
0.61
0.64
0.64
0.58
0.31
0.05
0.05
0.01
0.01
0.00
0.01
0.00
0.01
0.00
0.01
0.01
0.01
0.01
0.01
0.01
0.01
0.01
0.01
0.01
0.01
0.01
0.01
0.00
0.01
0.01
0.05
0.04
0.08
0.05
0.04
0.00
0.01
0.01
0.05
0.05
0.03
0.09
0.05
0.09
0.05
0.05
0.05
0.05
0.05
0.03
0.03
0.03
0.05
0.03
0.03
0.01
0.03
0.03
0.05
0.01
0.05
0.09
0.09
0.09
0.09
0.05
0.05
0.09
0.09
0.24
0.15
0.30
0.37
0.55
0.42
0.30
0.15
0.01
0.01
0.01
0.00
0.01
0.00
0.01
0.00
0.01
0.10
0.80
0.52
0.59
0.60
0.66
0.58
0.08
0.08
0.05
0.00
0.00
0.00
0.01
0.00
0.00
0.01
0.01
0.01
0.01
0.00
0.01
0.01
0.01
0.01
0.01
0.01
0.00
0.00
0.01
0.08
0.11
0.11
0.11
0.11
0.09
0.08
0.01
0.00
0.01
0.01
0.10
0.09
0.09
0.03
0.09
0.09
0.09
0.03
0.10
0.05
0.05
0.03
0.05
0.05
0.03
0.15
0.10
0.09
0.10
0.10
0.10
0.15
0.05
0.09
0.10
0.03
0.09
0.05
0.01
0.01
0.01
0.03
0.01
0.03
0.18
0.10
0.28
0.42
0.47
0.47
0.37
0.10
0.09
0.01
0.03
0.01
0.01
0.01
0.01
0.00
0.09
0.03
0.81
0.56
0.60
0.61
0.61
0.56
0.05
0.11
0.04
0.04
0.01
0.01
0.00
0.00
0.00
0.01
0.01
0.01
0.00
0.00
0.00
0.00
0.00
0.00
0.00
0.04
0.01
0.08
0.09
0.11
0.11
0.15
0.11
0.11
0.11
0.08
0.05
0.05
0.04
0.00
0.01
0.01
0.01
0.01
0.01
0.01
0.01
0.01
0.01
0.01
0.01
0.01
0.01
0.01
0.01
0.01
0.03
0.03
0.01
0.03
0.01
0.03
0.01
0.01
0.01
0.01
0.01
0.01
0.01
0.01
0.01
0.03
0.15
0.03
0.10
0.47
0.40
0.37
0.28
0.03
0.01
0.00
0.00
0.01
0.04
0.01
0.08
0.25
0.01
0.03
0.70
0.60
0.65
0.66
0.61
0.58
0.09
0.25
0.15
0.09
0.08
0.08
0.05
0.08
0.05
0.05
0.05
0.01
0.01
0.01
0.01
0.00
0.01
0.00
0.00
0.00
0.00
0.00
0.01
0.05
0.08
0.09
0.11
0.20
0.25
0.27
0.15
0.11
0.08
0.08
0.04
0.01
0.01
0.00
0.00
0.00
0.01
0.00
0.00
0.00
0.00
0.00
0.00
0.00
0.00
0.00
0.00
0.01
0.01
0.00
0.01
0.00
0.01
0.01
0.01
0.01
0.01
0.01
0.01
0.01
0.01
0.09
0.03
0.15
0.28
0.40
0.33
0.18
0.03
0.00
0.00
0.04
0.01
0.01
0.05
0.05
0.09
0.01
0.01
0.76
0.58
0.62
0.65
0.64
0.60
0.34
0.31
0.27
0.25
0.15
0.11
0.11
0.11
0.11
0.11
0.09
0.08
0.09
0.05
0.05
0.08
0.04
0.05
0.01
0.04
0.04
0.05
0.09
0.11
0.15
0.20
0.25
0.27
0.28
0.25
0.15
0.09
0.05
0.00
0.01
0.01
0.01
0.01
0.01
0.01
0.01
0.01
0.01
0.01
0.01
0.01
0.01
0.01
0.01
0.01
0.01
0.03
0.01
0.01
0.03
0.01
0.01
0.01
0.01
0.03
0.01
0.01
0.01
0.01
0.03
0.15
0.09
0.19
0.33
0.46
0.40
0.28
0.10
0.01
0.01
0.01
0.01
0.01
0.00
0.00
0.00
0.00
0.01
0.71
0.31
0.59
0.63
0.64
0.58
0.27
0.11
0.09
0.05
0.04
0.04
0.00
0.04
0.00
0.00
0.01
0.01
0.01
0.01
0.00
0.01
0.01
0.01
0.00
0.04
0.04
0.05
0.05
0.09
0.20
0.25
0.20
0.20
0.20
0.15
0.08
0.01
0.01
0.01
0.01
0.03
0.09
0.09
0.05
0.09
0.03
0.03
0.05
0.09
0.05
0.05
0.03
0.10
0.18
0.15
0.10
0.15
0.15
0.18
0.18
0.18
0.19
0.15
0.18
0.18
0.19
0.18
0.19
0.19
0.19
0.18
0.19
0.19
0.19
0.33
0.19
0.40
0.57
0.57
0.57
0.46
0.19
0.03
0.05
0.01
0.01
0.01
0.01
0.01
0.01
0.01
0.01
0.79
0.56
0.61
0.61
0.62
0.58
0.11
0.20
0.08
0.11
0.05
0.01
0.04
0.01
0.04
0.00
0.00
0.00
0.01
0.01
0.00
0.00
0.00
0.00
0.00
0.01
0.01
0.00
0.00
0.04
0.05
0.08
0.04
0.05
0.04
0.05
0.01
0.01
0.01
0.01
0.03
0.09
0.05
0.05
0.05
0.03
0.05
0.05
0.03
0.03
0.01
0.03
0.09
0.05
0.05
0.01
0.03
0.05
0.05
0.05
0.01
0.09
0.05
0.10
0.09
0.09
0.09
0.05
0.05
0.03
0.05
0.03
0.09
0.15
0.24
0.18
0.18
0.57
0.40
0.42
0.24
0.05
0.01
0.00
0.00
0.00
0.04
0.01
0.04
0.15
0.03
0.18
0.69
0.58
0.63
0.66
0.61
0.56
0.11
0.20
0.11
0.11
0.08
0.08
0.05
0.05
0.09
0.05
0.05
0.01
0.04
0.04
0.05
0.00
0.04
0.00
0.01
0.01
0.01
0.04
0.05
0.08
0.09
0.11
0.20
0.25
0.20
0.15
0.05
0.01
0.01
0.01
0.00
0.01
0.01
0.01
0.01
0.01
0.01
0.03
0.01
0.01
0.01
0.01
0.03
0.01
0.03
0.01
0.01
0.01
0.01
0.01
0.01
0.01
0.01
0.01
0.01
0.01
0.01
0.01
0.01
0.01
0.00
0.00
0.00
0.01
0.03
0.01
0.05
0.33
0.19
0.24
0.01
0.00
0.08
0.11
0.09
0.11
0.11
0.09
0.11
0.20
0.00
0.00
0.80
0.58
0.62
0.63
0.64
0.59
0.11
0.20
0.15
0.08
0.04
0.05
0.01
0.01
0.01
0.00
0.00
0.00
0.01
0.01
0.01
0.01
0.00
0.01
0.01
0.00
0.00
0.00
0.04
0.08
0.09
0.11
0.15
0.25
0.20
0.11
0.09
0.05
0.01
0.00
0.01
0.01
0.01
0.01
0.01
0.01
0.01
0.03
0.03
0.03
0.03
0.03
0.01
0.05
0.03
0.09
0.05
0.03
0.09
0.09
0.09
0.09
0.09
0.09
0.05
0.05
0.10
0.05
0.09
0.05
0.09
0.09
0.05
0.05
0.01
0.09
0.05
0.05
0.09
0.15
0.19
0.24
0.19
0.55
0.40
0.28
0.19
0.01
0.01
0.00
0.01
0.01
0.01
0.00
0.00
0.04
0.19
0.47
0.60
0.58
0.62
0.66
0.59
0.48
0.11
0.09
0.08
0.04
0.05
0.05
0.04
0.01
0.04
0.01
0.01
0.00
0.00
0.00
0.01
0.01
0.00
0.00
0.01
0.05
0.08
0.08
0.09
0.11
0.25
0.25
0.25
0.27
0.11
0.09
0.09
0.00
0.00
0.01
0.03
0.09
0.09
0.09
0.10
0.05
0.05
0.05
0.05
0.09
0.03
0.03
0.05
0.05
0.05
0.01
0.09
0.03
0.05
0.09
0.15
0.15
0.05
0.09
0.05
0.05
0.09
0.05
0.09
0.05
0.03
0.05
0.05
0.18
0.24
0.24
0.28
0.57
0.51
0.47
0.33
0.10
0.09
0.01
0.01
0.03
0.01
0.01
0.01
0.08
0.03
0.42
0.64
0.59
0.58
0.62
0.58
0.58
0.05
0.11
0.05
0.08
0.08
0.04
0.04
0.01
0.01
0.01
0.01
0.00
0.00
0.00
0.00
0.00
0.00
0.01
0.01
0.00
0.05
0.01
0.05
0.05
0.09
0.11
0.09
0.08
0.08
0.05
0.04
0.00
0.01
0.01
0.01
0.01
0.01
0.03
0.03
0.01
0.01
0.01
0.01
0.01
0.01
0.01
0.01
0.01
0.01
0.01
0.01
0.01
0.00
0.01
0.01
0.01
0.01
0.01
0.01
0.01
0.01
0.01
0.01
0.01
0.01
0.01
0.01
0.05
0.19
0.10
0.15
0.51
0.37
0.30
0.19
0.01
0.01
0.01
0.01
0.00
0.01
0.04
0.04
0.05
0.01
0.64
0.31
0.60
0.63
0.65
0.60
0.28
0.27
0.09
0.11
0.05
0.09
0.05
0.05
0.08
0.05
0.05
0.01
0.05
0.04
0.04
0.04
0.04
0.01
0.00
0.04
0.01
0.04
0.05
0.08
0.15
0.20
0.25
0.27
0.27
0.27
0.25
0.15
0.09
0.04
0.01
0.00
0.00
0.01
0.00
0.01
0.00
0.01
0.01
0.01
0.00
0.00
0.01
0.01
0.01
0.01
0.01
0.01
0.01
0.01
0.01
0.01
0.01
0.01
0.01
0.01
0.01
0.01
0.01
0.01
0.01
0.00
0.01
0.09
0.01
0.10
0.30
0.30
0.30
0.10
0.01
0.00
0.01
0.00
0.04
0.04
0.05
0.08
0.08
0.01
0.00
0.81
0.58
0.62
0.62
0.66
0.58
0.25
0.28
0.20
0.09
0.11
0.09
0.05
0.05
0.05
0.04
0.08
0.01
0.01
0.00
0.00
0.00
0.00
0.00
0.00
0.01
0.05
0.08
0.09
0.15
0.25
0.31
0.34
0.31
0.34
0.31
0.28
0.20
0.11
0.08
0.05
0.04
0.04
0.01
0.04
0.01
0.05
0.05
0.01
0.01
0.01
0.01
0.00
0.00
0.01
0.01
0.00
0.01
0.00
0.01
0.01
0.01
0.01
0.01
0.01
0.01
0.00
0.00
0.01
0.01
0.00
0.00
0.00
0.01
0.01
0.01
0.09
0.01
0.15
0.42
0.37
0.37
0.10
0.01
0.00
0.01
0.00
0.00
0.00
0.01
0.04
0.09
0.03
0.01
0.80
0.58
0.63
0.63
0.60
0.58
0.20
0.28
0.27
0.20
0.15
0.08
0.11
0.11
0.09
0.11
0.11
0.09
0.11
0.11
0.08
0.08
0.15
0.20
0.15
0.27
0.27
0.27
0.31
0.34
0.31
0.28
0.31
0.37
0.31
0.20
0.20
0.09
0.05
0.00
0.00
0.01
0.01
0.01
0.01
0.00
0.00
0.00
0.01
0.00
0.00
0.01
0.01
0.00
0.01
0.00
0.00
0.05
0.04
0.01
0.00
0.01
0.00
0.00
0.01
0.00
0.00
0.00
0.00
0.00
0.04
0.01
0.01
0.09
0.03
0.03
0.46
0.24
0.28
0.15
0.01
0.01
0.04
0.01
0.01
0.04
0.04
0.09
0.28
0.00
0.10
0.37
0.63
0.62
0.66
0.59
0.57
0.20
0.25
0.20
0.15
0.15
0.09
0.09
0.09
0.09
0.09
0.05
0.09
0.09
0.09
0.08
0.05
0.05
0.08
0.05
0.05
0.08
0.09
0.15
0.20
0.27
0.27
0.25
0.27
0.15
0.11
0.11
0.08
0.04
0.04
0.00
0.00
0.00
0.00
0.00
0.00
0.00
0.00
0.00
0.01
0.00
0.01
0.00
0.00
0.01
0.00
0.00
0.00
0.00
0.00
0.00
0.00
0.00
0.00
0.00
0.01
0.01
0.01
0.00
0.00
0.01
0.01
0.05
0.03
0.15
0.18
0.37
0.30
0.15
0.03
0.01
0.00
0.01
0.01
0.01
0.04
0.04
0.08
0.01
0.01
0.80
0.59
0.65
0.63
0.64
0.58
0.27
0.27
0.20
0.15
0.15
0.11
0.09
0.11
0.09
0.08
0.05
0.08
0.04
0.04
0.04
0.01
0.00
0.01
0.00
0.01
0.00
0.04
0.04
0.08
0.11
0.15
0.20
0.28
0.28
0.28
0.20
0.09
0.08
0.05
0.04
0.01
0.00
0.00
0.00
0.00
0.00
0.00
0.01
0.00
0.00
0.00
0.00
0.00
0.00
0.01
0.00
0.00
0.00
0.00
0.00
0.00
0.00
0.00
0.01
0.00
0.00
0.01
0.00
0.00
0.01
0.00
0.01
0.03
0.03
0.05
0.42
0.18
0.19
0.03
0.00
0.00
0.04
0.00
0.00
0.05
0.05
0.05
0.09
0.09
0.55
0.15
0.59
0.63
0.64
0.60
0.56
0.25
0.25
0.20
0.11
0.11
0.09
0.08
0.08
0.11
0.09
0.09
0.05
0.09
0.04
0.08
0.04
0.04
0.01
0.04
0.08
0.05
0.11
0.11
0.15
0.25
0.25
0.25
0.20
0.20
0.11
0.05
0.01
0.00
0.01
0.01
0.01
0.01
0.01
0.01
0.01
0.01
0.01
0.01
0.01
0.00
0.01
0.01
0.01
0.01
0.03
0.01
0.03
0.05
0.03
0.05
0.03
0.05
0.05
0.05
0.03
0.03
0.09
0.10
0.09
0.09
0.05
0.09
0.24
0.19
0.19
0.24
0.58
0.51
0.46
0.30
0.05
0.05
0.01
0.01
0.03
0.01
0.01
0.00
0.05
0.03
0.51
0.19
0.59
0.60
0.65
0.59
0.48
0.08
0.04
0.04
0.05
0.04
0.00
0.01
0.01
0.01
0.00
0.00
0.00
0.00
0.00
0.00
0.00
0.00
0.04
0.04
0.01
0.01
0.08
0.09
0.11
0.11
0.09
0.08
0.09
0.04
0.04
0.00
0.01
0.01
0.01
0.01
0.03
0.05
0.05
0.03
0.01
0.09
0.09
0.03
0.05
0.03
0.05
0.09
0.05
0.09
0.03
0.09
0.05
0.05
0.05
0.05
0.05
0.03
0.03
0.05
0.03
0.05
0.03
0.03
0.03
0.01
0.15
0.15
0.28
0.37
0.47
0.47
0.33
0.24
0.01
0.03
0.01
0.01
0.01
0.00
0.00
0.08
0.01
0.01
0.75
0.58
0.64
0.63
0.61
0.59
0.11
0.27
0.09
0.11
0.08
0.08
0.08
0.08
0.05
0.05
0.05
0.08
0.05
0.05
0.04
0.05
0.01
0.01
0.00
0.00
0.00
0.00
0.01
0.05
0.05
0.08
0.09
0.09
0.11
0.08
0.05
0.01
0.00
0.01
0.01
0.01
0.01
0.01
0.01
0.01
0.01
0.01
0.01
0.01
0.01
0.01
0.01
0.01
0.01
0.01
0.01
0.01
0.01
0.01
0.01
0.03
0.01
0.01
0.01
0.03
0.01
0.01
0.01
0.01
0.01
0.01
0.03
0.10
0.09
0.19
0.46
0.37
0.37
0.19
0.05
0.01
0.00
0.01
0.00
0.01
0.00
0.00
0.00
0.05
0.01
0.82
0.57
0.62
0.62
0.63
0.59
0.11
0.15
0.09
0.08
0.05
0.05
0.04
0.04
0.01
0.00
0.01
0.00
0.00
0.00
0.01
0.01
0.01
0.01
0.01
0.01
0.01
0.00
0.01
0.01
0.01
0.05
0.05
0.09
0.08
0.05
0.05
0.01
0.00
0.01
0.01
0.01
0.03
0.01
0.03
0.03
0.01
0.05
0.03
0.05
0.09
0.05
0.01
0.10
0.09
0.05
0.09
0.10
0.10
0.15
0.15
0.10
0.18
0.10
0.09
0.15
0.15
0.10
0.10
0.10
0.10
0.10
0.15
0.19
0.19
0.30
0.30
0.58
0.46
0.40
0.18
0.03
0.03
0.00
0.01
0.01
0.01
0.01
0.01
0.08
0.15
0.28
0.66
0.58
0.62
0.66
0.60
0.57
0.11
0.15
0.09
0.05
0.04
0.04
0.04
0.04
0.01
0.00
0.01
0.00
0.01
0.00
0.00
0.00
0.00
0.01
0.00
0.00
0.00
0.04
0.05
0.09
0.09
0.09
0.09
0.11
0.09
0.04
0.01
0.01
0.01
0.03
0.09
0.15
0.09
0.18
0.15
0.09
0.15
0.10
0.10
0.15
0.09
0.09
0.10
0.10
0.05
0.15
0.15
0.15
0.10
0.10
0.10
0.15
0.10
0.18
0.15
0.15
0.10
0.10
0.15
0.05
0.09
0.09
0.01
0.03
0.03
0.03
0.10
0.19
0.10
0.30
0.57
0.42
0.46
0.28
0.03
0.01
0.01
0.01
0.01
0.01
0.01
0.01
0.05
0.15
0.05
0.70
0.58
0.61
0.60
0.58
0.57
0.01
0.09
0.04
0.04
0.00
0.00
0.01
0.00
0.00
0.01
0.00
0.00
0.01
0.00
0.00
0.01
0.01
0.01
0.01
0.01
0.01
0.04
0.08
0.11
0.09
0.15
0.09
0.15
0.08
0.09
0.04
0.04
0.00
0.01
0.01
0.03
0.03
0.01
0.03
0.01
0.01
0.01
0.01
0.01
0.01
0.01
0.01
0.03
0.03
0.03
0.03
0.05
0.01
0.01
0.01
0.03
0.03
0.01
0.03
0.01
0.01
0.01
0.01
0.01
0.01
0.01
0.01
0.01
0.05
0.15
0.15
0.18
0.51
0.37
0.30
0.18
0.01
0.01
0.00
0.01
0.00
0.04
0.01
0.08
0.15
0.01
0.37
0.09
0.61
0.62
0.65
0.60
0.56
0.25
0.20
0.27
0.15
0.11
0.15
0.11
0.15
0.15
0.09
0.11
0.08
0.09
0.05
0.08
0.05
0.05
0.01
0.08
0.05
0.05
0.05
0.09
0.11
0.11
0.20
0.25
0.27
0.28
0.20
0.11
0.09
0.08
0.05
0.01
0.00
0.00
0.01
0.00
0.00
0.01
0.00
0.00
0.00
0.00
0.00
0.00
0.00
0.00
0.00
0.01
0.00
0.00
0.00
0.01
0.01
0.01
0.01
0.01
0.01
0.00
0.01
0.01
0.00
0.00
0.00
0.00
0.00
0.00
0.00
0.00
0.01
0.01
0.09
0.01
0.09
0.37
0.18
0.18
0.05
0.00
0.01
0.04
0.05
0.05
0.08
0.08
0.09
0.09
0.01
0.00
0.80
0.59
0.64
0.63
0.66
0.59
0.28
0.37
0.31
0.37
0.27
0.28
0.27
0.27
0.31
0.27
0.25
0.25
0.20
0.20
0.15
0.15
0.11
0.11
0.11
0.09
0.11
0.15
0.20
0.25
0.27
0.28
0.31
0.37
0.37
0.31
0.27
0.20
0.11
0.05
0.05
0.04
0.00
0.00
0.00
0.01
0.01
0.01
0.00
0.00
0.01
0.01
0.01
0.00
0.01
0.00
0.01
0.01
0.01
0.01
0.01
0.01
0.01
0.01
0.01
0.01
0.01
0.01
0.01
0.01
0.01
0.01
0.01
0.01
0.01
0.01
0.01
0.01
0.01
0.01
0.10
0.01
0.18
0.18
0.40
0.28
0.15
0.01
0.01
0.00
0.04
0.01
0.00
0.04
0.01
0.04
0.01
0.01
0.75
0.56
0.60
0.60
0.65
0.58
0.31
0.27
0.25
0.11
0.11
0.08
0.09
0.08
0.08
0.08
0.08
0.08
0.04
0.08
0.05
0.08
0.05
0.09
0.05
0.09
0.08
0.20
0.20
0.27
0.27
0.34
0.31
0.37
0.34
0.31
0.25
0.20
0.09
0.04
0.01
0.00
0.00
0.00
0.01
0.01
0.01
0.01
0.01
0.01
0.01
0.01
0.01
0.00
0.01
0.01
0.01
0.00
0.01
0.01
0.01
0.01
0.01
0.01
0.01
0.01
0.01
0.01
0.01
0.01
0.01
0.01
0.01
0.01
0.01
0.01
0.01
0.01
0.10
0.03
0.18
0.19
0.42
0.33
0.24
0.09
0.00
0.00
0.01
0.01
0.01
0.00
0.00
0.04
0.08
0.01
0.60
0.25
0.58
0.59
0.65
0.59
0.47
0.27
0.20
0.09
0.09
0.05
0.04
0.08
0.04
0.05
0.05
0.08
0.05
0.01
0.04
0.04
0.05
0.09
0.05
0.08
0.08
0.11
0.20
0.27
0.28
0.28
0.28
0.28
0.28
0.25
0.20
0.11
0.05
0.08
0.00
0.00
0.00
0.00
0.00
0.01
0.01
0.01
0.00
0.00
0.01
0.01
0.01
0.01
0.01
0.01
0.01
0.01
0.01
0.01
0.01
0.01
0.01
0.01
0.01
0.01
0.03
0.01
0.03
0.03
0.03
0.01
0.03
0.01
0.05
0.03
0.05
0.03
0.09
0.03
0.05
0.19
0.10
0.30
0.30
0.40
0.33
0.28
0.05
0.01
0.00
0.00
0.00
0.01
0.04
0.04
0.09
0.01
0.01
0.71
0.57
0.61
0.60
0.66
0.61
0.42
0.28
0.20
0.15
0.15
0.15
0.09
0.09
0.09
0.08
0.08
0.04
0.04
0.05
0.05
0.05
0.04
0.01
0.01
0.01
0.04
0.05
0.08
0.11
0.15
0.20
0.27
0.27
0.28
0.28
0.28
0.25
0.15
0.08
0.05
0.04
0.05
0.01
0.01
0.01
0.00
0.04
0.00
0.01
0.00
0.00
0.00
0.00
0.00
0.00
0.00
0.00
0.00
0.01
0.01
0.00
0.00
0.01
0.01
0.01
0.01
0.01
0.01
0.01
0.01
0.01
0.01
0.01
0.01
0.01
0.01
0.01
0.01
0.01
0.01
0.00
0.01
0.00
0.01
0.01
0.01
0.01
0.00
0.01
0.00
0.01
0.00
0.00
0.03
0.01
0.03
0.01
0.24
0.03
0.01
0.01
0.11
0.08
0.05
0.01
0.04
0.09
0.08
0.08
0.01
0.01
0.80
0.57
0.59
0.60
0.66
0.59
0.27
0.27
0.15
0.15
0.11
0.08
0.05
0.04
0.04
0.04
0.08
0.04
0.04
0.01
0.01
0.04
0.00
0.04
0.04
0.05
0.05
0.09
0.11
0.25
0.27
0.28
0.31
0.34
0.34
0.37
0.34
0.25
0.20
0.05
0.05
0.01
0.00
0.01
0.00
0.01
0.01
0.01
0.01
0.01
0.01
0.01
0.01
0.01
0.01
0.01
0.01
0.01
0.01
0.01
0.01
0.01
0.01
0.01
0.01
0.01
0.01
0.01
0.01
0.03
0.03
0.01
0.01
0.01
0.01
0.01
0.01
0.01
0.01
0.01
0.01
0.01
0.01
0.01
0.01
0.01
0.01
0.01
0.01
0.01
0.01
0.00
0.00
0.01
0.01
0.01
0.00
0.03
0.00
0.28
0.03
0.01
0.00
0.08
0.08
0.01
0.00
0.01
0.04
0.00
0.04
0.00
0.01
0.75
0.47
0.56
0.58
0.65
0.58
0.25
0.25
0.09
0.09
0.09
0.04
0.08
0.05
0.05
0.09
0.04
0.05
0.05
0.05
0.05
0.08
0.04
0.08
0.05
0.09
0.09
0.25
0.15
0.27
0.34
0.37
0.37
0.43
0.42
0.40
0.37
0.27
0.20
0.09
0.08
0.01
0.00
0.00
0.01
0.01
0.01
0.00
0.00
0.01
0.01
0.01
0.01
0.01
0.01
0.01
0.01
0.01
0.01
0.01
0.01
0.01
0.01
0.01
0.01
0.01
0.01
0.01
0.01
0.01
0.01
0.01
0.01
0.01
0.01
0.01
0.01
0.01
0.01
0.01
0.01
0.00
0.01
0.01
0.01
0.00
0.00
0.00
0.00
0.00
0.00
0.00
0.03
0.01
0.01
0.09
0.03
0.01
0.01
0.01
0.08
0.05
0.00
0.00
0.00
0.01
0.01
0.15
0.03
0.28
0.70
0.58
0.58
0.60
0.58
0.56
0.08
0.15
0.05
0.05
0.01
0.04
0.01
0.00
0.04
0.01
0.04
0.05
0.01
0.04
0.05
0.05
0.05
0.05
0.05
0.08
0.11
0.15
0.20
0.25
0.25
0.27
0.27
0.31
0.34
0.31
0.25
0.25
0.11
0.05
0.01
0.01
0.00
0.01
0.00
0.01
0.01
0.01
0.01
0.01
0.01
0.01
0.00
0.00
0.00
0.00
0.00
0.04
0.00
0.00
0.01
0.01
0.04
0.01
0.00
0.01
0.00
0.01
0.01
0.00
0.00
0.00
0.01
0.00
0.00
0.00
0.00
0.00
0.00
0.01
0.00
0.00
0.01
0.00
0.00
0.00
0.00
0.00
0.01
0.00
0.01
0.01
0.10
0.01
0.00
0.00
0.15
0.15
0.11
0.09
0.09
0.11
0.09
0.15
0.25
0.01
0.47
0.15
0.59
0.62
0.65
0.60
0.56
0.31
0.27
0.20
0.11
0.11
0.11
0.09
0.09
0.08
0.08
0.08
0.04
0.05
0.04
0.05
0.01
0.04
0.01
0.01
0.04
0.08
0.09
0.11
0.20
0.20
0.28
0.27
0.31
0.31
0.31
0.28
0.20
0.08
0.05
0.04
0.01
0.00
0.01
0.01
0.01
0.00
0.01
0.01
0.01
0.01
0.01
0.01
0.01
0.01
0.01
0.01
0.01
0.01
0.03
0.01
0.01
0.03
0.03
0.03
0.03
0.01
0.03
0.03
0.03
0.01
0.01
0.01
0.01
0.01
0.01
0.01
0.01
0.01
0.01
0.01
0.01
0.01
0.03
0.01
0.01
0.01
0.01
0.01
0.03
0.01
0.01
0.01
0.01
0.03
0.09
0.05
0.05
0.19
0.15
0.15
0.03
0.01
0.01
0.01
0.01
0.01
0.01
0.01
0.01
0.01
0.24
0.15
0.81
0.57
0.58
0.61
0.59
0.57
0.01
0.08
0.01
0.01
0.00
0.00
0.00
0.00
0.00
0.01
0.00
0.01
0.01
0.00
0.00
0.00
0.00
0.01
0.01
0.05
0.04
0.05
0.09
0.15
0.25
0.28
0.31
0.31
0.37
0.34
0.28
0.25
0.15
0.08
0.05
0.00
0.01
0.01
0.01
0.01
0.01
0.01
0.01
0.01
0.01
0.03
0.03
0.03
0.09
0.03
0.05
0.09
0.05
0.05
0.05
0.05
0.05
0.05
0.09
0.03
0.10
0.05
0.09
0.05
0.09
0.09
0.10
0.09
0.03
0.10
0.05
0.09
0.09
0.03
0.05
0.03
0.09
0.03
0.03
0.01
0.03
0.05
0.03
0.01
0.01
0.01
0.01
0.09
0.05
0.09
0.09
0.01
0.18
0.10
0.09
0.01
0.05
0.05
0.00
0.00
0.01
0.01
0.01
0.00
0.05
0.03
0.61
0.18
0.57
0.56
0.62
0.56
0.34
0.00
0.00
0.01
0.00
0.00
0.01
0.01
0.00
0.01
0.00
0.00
0.00
0.00
0.00
0.00
0.01
0.01
0.04
0.05
0.09
0.09
0.11
0.25
0.27
0.28
0.27
0.34
0.34
0.31
0.28
0.27
0.20
0.11
0.05
0.01
0.00
0.01
0.00
0.01
0.01
0.01
0.01
0.01
0.01
0.01
0.01
0.01
0.01
0.01
0.01
0.01
0.01
0.01
0.01
0.01
0.01
0.01
0.01
0.01
0.01
0.01
0.01
0.01
0.01
0.01
0.01
0.01
0.01
0.00
0.00
0.00
0.01
0.00
0.01
0.00
0.00
0.00
0.00
0.01
0.00
0.00
0.00
0.00
0.00
0.00
0.00
0.00
0.01
0.01
0.00
0.01
0.03
0.01
0.00
0.15
0.08
0.05
0.04
0.01
0.01
0.01
0.01
0.11
0.15
0.58
0.24
0.58
0.60
0.66
0.58
0.53
0.09
0.11
0.08
0.08
0.04
0.04
0.04
0.05
0.04
0.00
0.00
0.01
0.00
0.00
0.00
0.01
0.00
0.00
0.00
0.00
0.00
0.01
0.05
0.08
0.11
0.20
0.20
0.25
0.31
0.28
0.25
0.20
0.09
0.08
0.00
0.00
0.01
0.01
0.01
0.01
0.01
0.01
0.01
0.01
0.01
0.01
0.01
0.01
0.01
0.01
0.01
0.01
0.01
0.01
0.01
0.01
0.01
0.01
0.01
0.01
0.01
0.01
0.01
0.01
0.01
0.01
0.01
0.01
0.01
0.01
0.01
0.01
0.01
0.01
0.01
0.01
0.01
0.01
0.01
0.01
0.01
0.01
0.01
0.01
0.01
0.01
0.01
0.01
0.01
0.00
0.10
0.01
0.01
0.11
0.09
0.05
0.00
0.01
0.00
0.00
0.00
0.01
0.01
0.05
0.80
0.47
0.58
0.59
0.66
0.58
0.20
0.15
0.05
0.08
0.04
0.05
0.04
0.00
0.04
0.01
0.04
0.00
0.01
0.00
0.00
0.04
0.01
0.04
0.04
0.05
0.05
0.05
0.05
0.11
0.15
0.25
0.27
0.28
0.31
0.34
0.34
0.28
0.20
0.15
0.08
0.04
0.01
0.00
0.00
0.01
0.01
0.00
0.00
0.00
0.00
0.00
0.01
0.00
0.00
0.00
0.00
0.01
0.00
0.00
0.00
0.00
0.00
0.00
0.00
0.01
0.00
0.00
0.01
0.01
0.01
0.01
0.00
0.01
0.01
0.01
0.01
0.01
0.01
0.01
0.03
0.01
0.01
0.01
0.01
0.01
0.01
0.01
0.01
0.01
0.01
0.01
0.01
0.01
0.01
0.03
0.01
0.15
0.01
0.03
0.08
0.05
0.05
0.04
0.01
0.00
0.01
0.01
0.01
0.05
0.01
0.80
0.52
0.57
0.58
0.63
0.58
0.11
0.09
0.05
0.01
0.04
0.01
0.00
0.05
0.04
0.04
0.04
0.05
0.08
0.08
0.09
0.08
0.09
0.11
0.15
0.15
0.25
0.25
0.34
0.28
0.34
0.42
0.42
0.42
0.43
0.40
0.37
0.34
0.27
0.20
0.04
0.01
0.01
0.00
0.01
0.01
0.01
0.00
0.01
0.01
0.01
0.01
0.01
0.01
0.01
0.01
0.01
0.01
0.01
0.01
0.01
0.01
0.01
0.01
0.01
0.01
0.01
0.01
0.01
0.01
0.01
0.01
0.01
0.01
0.01
0.01
0.01
0.01
0.01
0.01
0.01
0.01
0.01
0.01
0.01
0.01
0.01
0.01
0.00
0.01
0.01
0.00
0.01
0.00
0.10
0.05
0.03
0.11
0.08
0.04
0.00
0.01
0.01
0.00
0.01
0.00
0.10
0.10
0.80
0.57
0.59
0.58
0.60
0.57
0.05
0.05
0.00
0.00
0.00
0.01
0.00
0.01
0.01
0.01
0.01
0.00
0.01
0.00
0.00
0.00
0.01
0.01
0.01
0.04
0.05
0.09
0.15
0.20
0.25
0.25
0.28
0.28
0.31
0.31
0.34
0.28
0.20
0.11
0.08
0.05
0.04
0.01
0.00
0.00
0.00
0.01
0.00
0.01
0.00
0.00
0.01
0.00
0.01
0.01
0.01
0.01
0.01
0.01
0.01
0.01
0.01
0.01
0.00
0.01
0.01
0.01
0.01
0.01
0.01
0.01
0.01
0.01
0.01
0.01
0.01
0.01
0.01
0.01
0.01
0.01
0.01
0.00
0.01
0.01
0.01
0.01
0.00
0.01
0.01
0.01
0.01
0.01
0.00
0.05
0.01
0.00
0.25
0.15
0.04
0.08
0.05
0.04
0.04
0.04
0.11
0.15
0.28
0.69
0.58
0.62
0.65
0.61
0.56
0.09
0.25
0.09
0.09
0.08
0.05
0.01
0.04
0.01
0.05
0.01
0.00
0.00
0.00
0.00
0.01
0.01
0.01
0.01
0.00
0.00
0.00
0.01
0.05
0.11
0.11
0.20
0.28
0.28
0.31
0.28
0.27
0.11
0.09
0.05
0.04
0.00
0.00
0.00
0.00
0.00
0.00
0.00
0.00
0.00
0.00
0.00
0.01
0.00
0.00
0.00
0.01
0.01
0.01
0.01
0.01
0.01
0.01
0.01
0.01
0.01
0.01
0.01
0.01
0.01
0.01
0.01
0.01
0.01
0.01
0.00
0.01
0.01
0.01
0.01
0.00
0.01
0.00
0.00
0.01
0.01
0.01
0.01
0.00
0.01
0.00
0.01
0.01
0.09
0.01
0.01
0.20
0.11
0.11
0.08
0.01
0.04
0.04
0.01
0.04
0.01
0.01
0.80
0.57
0.59
0.60
0.65
0.59
0.15
0.15
0.08
0.08
0.04
0.00
0.00
0.00
0.00
0.00
0.00
0.00
0.00
0.01
0.00
0.00
0.00
0.01
0.04
0.04
0.04
0.08
0.09
0.20
0.25
0.27
0.28
0.31
0.37
0.37
0.31
0.27
0.15
0.09
0.01
0.00
0.01
0.01
0.01
0.01
0.01
0.01
0.01
0.01
0.01
0.01
0.01
0.01
0.01
0.01
0.01
0.01
0.01
0.01
0.01
0.01
0.01
0.01
0.01
0.01
0.01
0.01
0.01
0.01
0.01
0.03
0.01
0.01
0.01
0.01
0.01
0.03
0.03
0.01
0.01
0.01
0.01
0.01
0.01
0.01
0.01
0.01
0.01
0.00
0.01
0.01
0.01
0.00
0.09
0.01
0.01
0.15
0.11
0.04
0.04
0.00
0.00
0.00
0.00
0.08
0.18
0.10
0.80
0.57
0.58
0.60
0.58
0.57
0.01
0.08
0.00
0.00
0.00
0.00
0.00
0.00
0.01
0.01
0.00
0.00
0.01
0.00
0.00
0.00
0.01
0.00
0.01
0.04
0.08
0.09
0.11
0.20
0.20
0.27
0.31
0.34
0.28
0.28
0.27
0.20
0.11
0.04
0.01
0.01
0.01
0.01
0.01
0.01
0.01
0.01
0.01
0.00
0.01
0.01
0.00
0.01
0.01
0.00
0.01
0.00
0.01
0.01
0.01
0.01
0.01
0.01
0.01
0.01
0.01
0.01
0.01
0.01
0.01
0.01
0.01
0.01
0.01
0.01
0.01
0.01
0.00
0.01
0.01
0.01
0.01
0.00
0.01
0.00
0.00
0.01
0.00
0.01
0.01
0.10
0.01
0.01
0.11
0.08
0.04
0.01
0.00
0.01
0.01
0.01
0.00
0.09
0.10
0.80
0.57
0.58
0.59
0.61
0.57
0.05
0.09
0.01
0.01
0.00
0.01
0.00
0.00
0.00
0.01
0.01
0.00
0.00
0.00
0.00
0.00
0.01
0.01
0.01
0.04
0.05
0.08
0.09
0.11
0.15
0.20
0.20
0.27
0.27
0.27
0.20
0.11
0.09
0.08
0.01
0.00
0.01
0.01
0.01
0.01
0.01
0.03
0.01
0.01
0.01
0.01
0.01
0.01
0.01
0.01
0.01
0.01
0.01
0.01
0.01
0.01
0.01
0.01
0.01
0.01
0.01
0.01
0.01
0.01
0.01
0.01
0.01
0.01
0.01
0.01
0.01
0.01
0.01
0.00
0.01
0.01
0.01
0.01
0.00
0.01
0.01
0.00
0.00
0.01
0.01
0.01
0.00
0.10
0.01
0.00
0.15
0.11
0.04
0.04
0.01
0.01
0.00
0.00
0.05
0.24
0.51
0.64
0.58
0.63
0.65
0.58
0.56
0.01
0.04
0.04
0.00
0.01
0.00
0.01
0.00
0.00
0.01
0.01
0.01
0.00
0.01
0.01
0.01
0.00
0.00
0.00
0.00
0.01
0.04
0.05
0.09
0.11
0.15
0.20
0.27
0.27
0.25
0.20
0.15
0.08
0.01
0.01
0.01
0.01
0.01
0.01
0.01
0.01
0.01
0.01
0.01
0.01
0.03
0.01
0.01
0.03
0.03
0.01
0.03
0.01
0.01
0.03
0.01
0.01
0.01
0.01
0.01
0.01
0.03
0.03
0.01
0.05
0.03
0.05
0.01
0.03
0.03
0.05
0.03
0.03
0.03
0.05
0.03
0.05
0.03
0.09
0.03
0.03
0.05
0.01
0.01
0.03
0.03
0.01
0.03
0.01
0.15
0.01
0.01
0.09
0.09
0.00
0.00
0.00
0.00
0.00
0.00
0.01
0.18
0.63
0.37
0.57
0.59
0.66
0.58
0.43
0.05
0.05
0.01
0.00
0.00
0.01
0.01
0.01
0.01
0.01
0.00
0.01
0.01
0.01
0.00
0.00
0.00
0.01
0.01
0.01
0.05
0.08
0.11
0.20
0.28
0.31
0.31
0.31
0.34
0.37
0.34
0.28
0.20
0.11
0.08
0.08
0.01
0.00
0.00
0.00
0.00
0.00
0.00
0.00
0.00
0.00
0.00
0.00
0.00
0.01
0.01
0.01
0.00
0.01
0.01
0.01
0.01
0.01
0.01
0.01
0.01
0.01
0.01
0.01
0.01
0.01
0.01
0.01
0.01
0.01
0.01
0.01
0.01
0.01
0.01
0.01
0.01
0.01
0.01
0.01
0.01
0.01
0.01
0.01
0.01
0.01
0.01
0.03
0.01
0.15
0.01
0.01
0.11
0.08
0.00
0.00
0.04
0.00
0.00
0.01
0.09
0.03
0.46
0.51
0.58
0.58
0.64
0.58
0.51
0.04
0.08
0.04
0.01
0.01
0.00
0.00
0.00
0.00
0.04
0.04
0.00
0.00
0.01
0.01
0.05
0.05
0.04
0.08
0.08
0.11
0.15
0.25
0.27
0.27
0.31
0.34
0.34
0.34
0.34
0.27
0.25
0.09
0.08
0.04
0.00
0.00
0.01
0.01
0.01
0.01
0.01
0.01
0.01
0.01
0.03
0.01
0.01
0.01
0.01
0.01
0.01
0.01
0.01
0.03
0.01
0.03
0.01
0.03
0.01
0.05
0.01
0.03
0.03
0.05
0.09
0.01
0.01
0.01
0.01
0.01
0.01
0.01
0.01
0.01
0.01
0.01
0.01
0.01
0.01
0.01
0.01
0.01
0.00
0.01
0.01
0.01
0.01
0.01
0.10
0.03
0.00
0.04
0.08
0.00
0.00
0.00
0.00
0.00
0.00
0.01
0.03
0.75
0.51
0.58
0.58
0.65
0.58
0.27
0.20
0.08
0.08
0.04
0.04
0.04
0.01
0.00
0.01
0.01
0.01
0.00
0.00
0.00
0.01
0.00
0.01
0.00
0.00
0.01
0.00
0.00
0.04
0.04
0.09
0.11
0.11
0.25
0.25
0.25
0.20
0.09
0.05
0.00
0.01
0.01
0.01
0.01
0.01
0.01
0.01
0.01
0.01
0.01
0.01
0.01
0.01
0.05
0.01
0.03
0.01
0.01
0.03
0.03
0.01
0.01
0.01
0.01
0.01
0.01
0.01
0.01
0.01
0.01
0.01
0.01
0.01
0.01
0.03
0.03
0.03
0.05
0.05
0.05
0.03
0.01
0.01
0.01
0.01
0.03
0.01
0.01
0.01
0.01
0.03
0.01
0.01
0.01
0.05
0.01
0.01
0.08
0.09
0.08
0.00
0.01
0.01
0.00
0.01
0.00
0.01
0.10
0.76
0.28
0.58
0.60
0.65
0.57
0.28
0.08
0.01
0.00
0.00
0.00
0.01
0.00
0.01
0.01
0.01
0.01
0.01
0.01
0.00
0.01
0.01
0.00
0.00
0.00
0.00
0.01
0.05
0.09
0.20
0.15
0.27
0.28
0.34
0.34
0.34
0.27
0.20
0.11
0.08
0.01
0.00
0.01
0.00
0.01
0.01
0.01
0.01
0.01
0.01
0.01
0.01
0.01
0.01
0.01
0.01
0.01
0.01
0.01
0.00
0.01
0.01
0.01
0.01
0.01
0.01
0.01
0.01
0.01
0.01
0.01
0.01
0.01
0.01
0.01
0.01
0.01
0.01
0.01
0.01
0.01
0.01
0.01
0.01
0.01
0.01
0.01
0.01
0.01
0.01
0.01
0.01
0.01
0.01
0.01
0.01
0.01
0.09
0.01
0.00
0.20
0.11
0.04
0.00
0.04
0.00
0.00
0.00
0.08
0.18
0.40
0.64
0.57
0.58
0.62
0.57
0.57
0.04
0.05
0.05
0.01
0.00
0.00
0.00
0.00
0.00
0.01
0.00
0.00
0.04
0.05
0.04
0.08
0.05
0.08
0.08
0.11
0.11
0.11
0.25
0.27
0.34
0.28
0.34
0.34
0.37
0.37
0.34
0.25
0.15
0.11
0.08
0.00
0.00
0.01
0.01
0.01
0.01
0.01
0.01
0.00
0.00
0.00
0.00
0.01
0.01
0.00
0.01
0.01
0.00
0.01
0.00
0.00
0.01
0.01
0.01
0.01
0.01
0.01
0.01
0.01
0.01
0.01
0.01
0.01
0.01
0.01
0.01
0.01
0.01
0.01
0.01
0.01
0.01
0.01
0.01
0.00
0.01
0.00
0.01
0.00
0.00
0.00
0.04
0.01
0.00
0.01
0.20
0.15
0.15
0.08
0.08
0.08
0.05
0.05
0.01
0.00
0.01
0.70
0.53
0.57
0.57
0.62
0.58
0.15
0.08
0.00
0.01
0.00
0.01
0.01
0.01
0.01
0.00
0.01
0.01
0.00
0.04
0.04
0.04
0.04
0.08
0.09
0.15
0.11
0.11
0.15
0.20
0.28
0.28
0.31
0.28
0.34
0.37
0.37
0.27
0.27
0.11
0.09
0.04
0.00
0.00
0.00
0.00
0.00
0.00
0.01
0.00
0.00
0.00
0.01
0.01
0.00
0.00
0.00
0.00
0.00
0.00
0.01
0.00
0.00
0.00
0.00
0.00
0.00
0.00
0.00
0.00
0.00
0.00
0.00
0.01
0.00
0.04
0.01
0.04
0.04
0.05
0.05
0.08
0.05
0.09
0.08
0.09
0.11
0.09
0.11
0.05
0.08
0.05
0.15
0.01
0.01
0.04
0.37
0.25
0.11
0.09
0.05
0.05
0.04
0.04
0.08
0.15
0.10
0.80
0.56
0.62
0.61
0.61
0.56
0.04
0.08
0.01
0.00
0.00
0.01
0.01
0.01
0.01
0.00
0.01
0.00
0.01
0.00
0.01
0.00
0.01
0.00
0.05
0.04
0.04
0.08
0.08
0.15
0.20
0.27
0.27
0.31
0.34
0.40
0.40
0.34
0.28
0.20
0.09
0.08
0.04
0.00
0.00
0.00
0.00
0.00
0.00
0.00
0.00
0.00
0.01
0.00
0.00
0.01
0.00
0.01
0.01
0.01
0.01
0.01
0.01
0.01
0.01
0.03
0.03
0.01
0.03
0.03
0.01
0.01
0.01
0.05
0.03
0.03
0.01
0.01
0.01
0.03
0.01
0.01
0.01
0.03
0.03
0.01
0.01
0.01
0.03
0.01
0.01
0.03
0.03
0.01
0.01
0.15
0.01
0.01
0.20
0.09
0.08
0.04
0.01
0.00
0.00
0.00
0.01
0.18
0.01
0.82
0.57
0.59
0.58
0.63
0.58
0.04
0.05
0.00
0.00
0.00
0.01
0.01
0.01
0.01
0.01
0.01
0.01
0.01
0.01
0.01
0.01
0.01
0.01
0.01
0.01
0.00
0.04
0.05
0.15
0.20
0.27
0.27
0.28
0.34
0.37
0.34
0.28
0.20
0.09
0.08
0.01
0.00
0.01
0.01
0.01
0.01
0.01
0.01
0.01
0.01
0.01
0.01
0.01
0.01
0.01
0.01
0.01
0.01
0.01
0.01
0.01
0.03
0.05
0.03
0.09
0.05
0.15
0.15
0.18
0.15
0.15
0.15
0.15
0.15
0.15
0.09
0.10
0.10
0.09
0.10
0.09
0.10
0.18
0.15
0.09
0.15
0.09
0.10
0.05
0.10
0.05
0.05
0.01
0.18
0.09
0.03
0.08
0.04
0.00
0.00
0.01
0.01
0.01
0.01
0.01
0.18
0.09
0.81
0.47
0.56
0.58
0.61
0.56
0.01
0.08
0.01
0.00
0.00
0.01
0.01
0.01
0.01
0.01
0.00
0.01
0.00
0.00
0.00
0.00
0.01
0.04
0.08
0.04
0.09
0.11
0.25
0.27
0.27
0.28
0.27
0.28
0.28
0.27
0.27
0.15
0.09
0.05
0.01
0.01
0.09
0.09
0.15
0.19
0.18
0.15
0.15
0.10
0.18
0.19
0.18
0.18
0.18
0.18
0.18
0.24
0.15
0.10
0.15
0.15
0.18
0.15
0.10
0.10
0.09
0.05
0.05
0.01
0.01
0.01
0.00
0.00
0.00
0.01
0.04
0.04
0.05
0.09
0.15
0.11
0.15
0.25
0.25
0.27
0.27
0.27
0.27
0.34
0.37
0.25
0.27
0.28
0.28
0.27
0.27
0.27
0.43
0.43
0.47
0.42
0.34
0.42
0.37
0.31
0.34
0.31
0.25
0.51
0.48
0.59
0.59
0.66
0.60
0.53
0.34
0.27
0.20
0.15
0.11
0.11
0.08
0.05
0.04
0.05
0.05
0.04
0.04
0.04
0.05
0.05
0.05
0.05
0.09
0.09
0.15
0.15
0.20
0.20
0.31
0.31
0.31
0.28
0.34
0.37
0.34
0.31
0.20
0.11
0.05
0.04
0.01
0.00
0.00
0.01
0.01
0.01
0.01
0.01
0.01
0.01
0.01
0.03
0.01
0.03
0.01
0.01
0.01
0.01
0.01
0.01
0.01
0.01
0.03
0.01
0.03
0.03
0.03
0.05
0.05
0.05
0.05
0.05
0.05
0.05
0.01
0.03
0.01
0.01
0.01
0.01
0.01
0.01
0.01
0.01
0.01
0.00
0.00
0.01
0.00
0.01
0.00
0.09
0.01
0.00
0.15
0.11
0.04
0.01
0.01
0.00
0.00
0.00
0.01
0.28
0.61
0.42
0.58
0.61
0.65
0.59
0.48
0.05
0.05
0.01
0.00
0.00
0.00
0.00
0.01
0.00
0.01
0.00
0.00
0.00
0.01
0.00
0.01
0.00
0.00
0.01
0.00
0.04
0.04
0.08
0.09
0.20
0.20
0.20
0.25
0.27
0.25
0.27
0.20
0.08
0.04
0.00
0.00
0.01
0.00
0.01
0.01
0.01
0.01
0.01
0.00
0.00
0.00
0.00
0.00
0.01
0.01
0.01
0.01
0.01
0.01
0.01
0.01
0.01
0.01
0.01
0.01
0.01
0.01
0.01
0.01
0.01
0.01
0.00
0.01
0.01
0.01
0.01
0.01
0.01
0.01
0.01
0.01
0.01
0.01
0.01
0.03
0.01
0.10
0.01
0.01
0.03
0.19
0.01
0.01
0.11
0.09
0.04
0.01
0.00
0.00
0.00
0.01
0.11
0.15
0.33
0.68
0.56
0.59
0.62
0.58
0.57
0.08
0.11
0.05
0.04
0.01
0.01
0.04
0.04
0.01
0.00
0.01
0.00
0.01
0.01
0.01
0.04
0.05
0.08
0.08
0.11
0.25
0.25
0.34
0.40
0.40
0.40
0.43
0.43
0.43
0.42
0.40
0.27
0.20
0.11
0.05
0.04
0.00
0.00
0.01
0.01
0.01
0.01
0.01
0.01
0.01
0.01
0.01
0.00
0.01
0.00
0.01
0.01
0.01
0.01
0.01
0.01
0.01
0.01
0.01
0.01
0.01
0.01
0.01
0.01
0.01
0.01
0.01
0.01
0.03
0.18
0.09
0.15
0.15
0.47
0.37
0.18
0.09
0.01
0.01
0.01
0.01
0.01
0.00
0.00
0.01
0.11
0.00
0.40
0.19
0.58
0.58
0.60
0.58
0.56
0.11
0.11
0.05
0.08
0.05
0.04
0.05
0.08
0.05
0.05
0.05
0.05
0.08
0.08
0.11
0.09
0.11
0.15
0.20
0.27
0.31
0.31
0.37
0.40
0.40
0.42
0.42
0.40
0.34
0.28
0.25
0.11
0.04
0.00
0.01
0.01
0.01
0.01
0.01
0.01
0.01
0.01
0.01
0.03
0.01
0.01
0.01
0.01
0.01
0.01
0.01
0.01
0.00
0.01
0.01
0.01
0.01
0.03
0.01
0.01
0.01
0.01
0.01
0.01
0.01
0.01
0.10
0.01
0.10
0.37
0.37
0.30
0.19
0.05
0.01
0.00
0.00
0.01
0.04
0.05
0.05
0.27
0.01
0.03
0.75
0.58
0.61
0.61
0.61
0.58
0.27
0.28
0.11
0.20
0.15
0.15
0.20
0.15
0.09
0.15
0.11
0.15
0.11
0.11
0.11
0.09
0.09
0.09
0.08
0.09
0.11
0.20
0.20
0.25
0.27
0.28
0.31
0.31
0.31
0.31
0.25
0.25
0.15
0.08
0.04
0.05
0.00
0.00
0.01
0.00
0.01
0.01
0.01
0.01
0.01
0.01
0.01
0.01
0.01
0.01
0.01
0.01
0.01
0.01
0.01
0.01
0.01
0.01
0.01
0.01
0.01
0.01
0.01
0.01
0.01
0.05
0.03
0.15
0.18
0.46
0.33
0.19
0.09
0.01
0.01
0.00
0.00
0.00
0.00
0.00
0.01
0.01
0.05
0.76
0.34
0.59
0.63
0.65
0.59
0.34
0.11
0.08
0.09
0.08
0.04
0.04
0.01
0.04
0.01
0.01
0.01
0.01
0.00
0.01
0.00
0.00
0.01
0.04
0.01
0.01
0.01
0.05
0.09
0.11
0.11
0.15
0.25
0.27
0.25
0.25
0.15
0.08
0.04
0.00
0.01
0.01
0.01
0.01
0.01
0.01
0.01
0.01
0.01
0.00
0.01
0.00
0.01
0.00
0.01
0.01
0.01
0.01
0.03
0.01
0.05
0.05
0.03
0.05
0.03
0.09
0.05
0.03
0.03
0.01
0.01
0.05
0.15
0.03
0.18
0.42
0.46
0.33
0.24
0.05
0.01
0.01
0.01
0.00
0.01
0.01
0.00
0.01
0.01
0.01
0.77
0.48
0.59
0.61
0.65
0.59
0.34
0.20
0.08
0.11
0.08
0.05
0.05
0.08
0.05
0.05
0.04
0.05
0.05
0.05
0.04
0.04
0.01
0.01
0.04
0.05
0.05
0.08
0.08
0.15
0.25
0.25
0.27
0.28
0.31
0.28
0.27
0.15
0.11
0.05
0.01
0.00
0.01
0.01
0.01
0.01
0.01
0.01
0.01
0.01
0.01
0.01
0.01
0.01
0.01
0.01
0.01
0.01
0.03
0.01
0.01
0.01
0.01
0.01
0.01
0.01
0.01
0.01
0.01
0.01
0.01
0.01
0.01
0.01
0.01
0.01
0.01
0.01
0.03
0.01
0.10
0.28
0.47
0.60
0.63
0.64
0.75
0.58
0.37
0.08
0.61
0.79
0.77
0.88
0.90
0.90
0.92
0.81
0.55
0.31
0.37
0.34
0.42
0.48
0.52
0.56
0.56
0.57
0.57
0.57
0.56
0.58
0.58
0.59
0.61
0.60
0.63
0.63
0.63
0.62
0.62
0.61
0.59
0.59
0.56
0.57
0.53
0.47
0.27
0.11
0.05
0.00
0.00
0.01
0.00
0.00
0.00
0.01
0.00
0.00
0.01
0.01
0.01
0.01
0.01
0.00
0.00
0.01
0.00
0.00
0.00
0.00
0.01
0.01
0.00
0.01
0.00
0.00
0.00
0.00
0.00
0.00
0.01
0.00
0.00
0.00
0.00
0.01
0.01
0.01
0.01
0.00
0.01
0.01
0.01
0.24
0.28
0.18
0.10
0.03
0.00
0.01
0.01
0.05
0.05
0.08
0.11
0.20
0.04
0.00
0.69
0.57
0.62
0.63
0.65
0.61
0.47
0.37
0.28
0.28
0.20
0.15
0.20
0.15
0.15
0.09
0.11
0.08
0.11
0.08
0.08
0.04
0.05
0.05
0.05
0.05
0.05
0.09
0.08
0.15
0.15
0.20
0.27
0.28
0.31
0.34
0.31
0.27
0.20
0.11
0.05
0.04
0.00
0.00
0.01
0.01
0.01
0.01
0.01
0.01
0.01
0.01
0.01
0.01
0.01
0.01
0.01
0.00
0.00
0.00
0.01
0.00
0.01
0.00
0.00
0.00
0.01
0.01
0.00
0.01
0.01
0.01
0.01
0.09
0.01
0.09
0.40
0.28
0.28
0.10
0.01
0.00
0.00
0.01
0.05
0.05
0.04
0.04
0.05
0.03
0.05
0.82
0.57
0.62
0.64
0.66
0.58
0.25
0.15
0.09
0.04
0.00
0.01
0.00
0.01
0.01
0.00
0.01
0.00
0.00
0.00
0.01
0.01
0.01
0.01
0.01
0.01
0.01
0.01
0.00
0.04
0.05
0.08
0.11
0.15
0.20
0.20
0.11
0.08
0.04
0.00
0.01
0.01
0.03
0.01
0.03
0.01
0.01
0.01
0.01
0.01
0.01
0.01
0.01
0.01
0.03
0.05
0.03
0.09
0.03
0.03
0.05
0.09
0.09
0.09
0.03
0.05
0.05
0.05
0.03
0.03
0.01
0.00
0.08
0.24
0.03
0.30
0.15
0.56
0.82
0.80
0.65
0.11
0.74
0.95
0.95
0.96
0.88
0.66
0.47
0.56
0.34
0.31
0.05
0.05
0.05
0.08
0.05
0.05
0.05
0.05
0.09
0.11
0.27
0.27
0.37
0.42
0.47
0.48
0.47
0.43
0.42
0.31
0.20
0.01
0.01
0.10
0.15
0.18
0.18
0.10
0.15
0.10
0.09
0.09
0.10
0.09
0.09
0.15
0.10
0.05
0.10
0.15
0.10
0.19
0.18
0.15
0.18
0.28
0.19
0.24
0.19
0.15
0.19
0.19
0.19
0.15
0.09
0.10
0.15
0.15
0.09
0.09
0.05
0.01
0.05
0.03
0.01
0.01
0.01
0.03
0.03
0.03
0.03
0.05
0.03
0.03
0.03
0.03
0.01
0.01
0.01
0.01
0.01
0.01
0.01
0.09
0.10
0.19
0.42
0.51
0.42
0.37
0.18
0.01
0.03
0.01
0.01
0.01
0.00
0.01
0.01
0.01
0.01
0.71
0.48
0.57
0.58
0.61
0.58
0.34
0.11
0.08
0.08
0.04
0.04
0.04
0.00
0.00
0.00
0.01
0.01
0.00
0.04
0.00
0.01
0.01
0.04
0.08
0.05
0.09
0.04
0.09
0.20
0.09
0.08
0.11
0.15
0.25
0.28
0.27
0.27
0.15
0.09
0.04
0.05
0.01
0.05
0.01
0.00
0.00
0.00
0.00
0.01
0.00
0.01
0.01
0.01
0.00
0.00
0.01
0.01
0.01
0.00
0.00
0.01
0.01
0.01
0.01
0.01
0.01
0.01
0.01
0.01
0.01
0.01
0.10
0.05
0.19
0.28
0.47
0.40
0.33
0.18
0.03
0.01
0.01
0.00
0.01
0.00
0.00
0.04
0.00
0.05
0.69
0.15
0.60
0.60
0.64
0.60
0.51
0.08
0.05
0.08
0.05
0.05
0.04
0.01
0.01
0.00
0.04
0.01
0.01
0.04
0.01
0.01
0.04
0.01
0.01
0.05
0.05
0.05
0.05
0.11
0.20
0.27
0.31
0.31
0.34
0.40
0.37
0.34
0.27
0.27
0.20
0.15
0.15
0.08
0.08
0.09
0.11
0.09
0.08
0.05
0.08
0.05
0.05
0.01
0.01
0.01
0.01
0.01
0.00
0.00
0.01
0.00
0.00
0.01
0.01
0.01
0.00
0.00
0.01
0.00
0.00
0.00
0.00
0.01
0.01
0.01
0.03
0.40
0.19
0.19
0.03
0.00
0.01
0.05
0.04
0.01
0.04
0.08
0.09
0.08
0.18
0.19
0.80
0.59
0.65
0.65
0.64
0.58
0.27
0.27
0.15
0.11
0.11
0.09
0.09
0.05
0.05
0.05
0.05
0.05
0.00
0.00
0.00
0.00
0.01
0.00
0.00
0.00
0.00
0.04
0.04
0.05
0.09
0.15
0.25
0.25
0.25
0.25
0.20
0.15
0.08
0.01
0.00
0.00
0.00
0.01
0.01
0.01
0.01
0.00
0.01
0.00
0.00
0.01
0.01
0.00
0.00
0.00
0.01
0.01
0.00
0.00
0.00
0.00
0.00
0.00
0.00
0.01
0.01
0.00
0.01
0.01
0.01
0.01
0.01
0.01
0.10
0.03
0.18
0.30
0.46
0.33
0.24
0.09
0.01
0.00
0.00
0.00
0.00
0.01
0.01
0.04
0.05
0.19
0.67
0.37
0.59
0.65
0.65
0.60
0.57
0.25
0.20
0.15
0.11
0.11
0.11
0.11
0.09
0.11
0.11
0.09
0.09
0.09
0.11
0.09
0.09
0.09
0.11
0.15
0.15
0.25
0.25
0.28
0.34
0.34
0.37
0.37
0.31
0.31
0.25
0.20
0.08
0.01
0.00
0.01
0.01
0.01
0.01
0.01
0.01
0.01
0.01
0.01
0.01
0.03
0.01
0.03
0.05
0.03
0.01
0.03
0.03
0.03
0.05
0.05
0.01
0.01
0.03
0.01
0.03
0.01
0.01
0.03
0.05
0.03
0.01
0.01
0.01
0.01
0.09
0.18
0.19
0.19
0.57
0.40
0.42
0.24
0.09
0.03
0.01
0.01
0.01
0.01
0.01
0.00
0.08
0.15
0.46
0.70
0.60
0.63
0.63
0.60
0.56
0.04
0.11
0.08
0.04
0.00
0.00
0.00
0.00
0.01
0.00
0.00
0.01
0.00
0.00
0.00
0.00
0.00
0.01
0.00
0.01
0.05
0.04
0.05
0.09
0.09
0.08
0.09
0.09
0.09
0.09
0.05
0.01
0.00
0.00
0.01
0.01
0.01
0.01
0.01
0.01
0.01
0.01
0.01
0.01
0.01
0.03
0.03
0.01
0.01
0.01
0.01
0.01
0.01
0.01
0.01
0.01
0.01
0.03
0.03
0.03
0.03
0.03
0.01
0.01
0.05
0.03
0.01
0.01
0.03
0.05
0.18
0.15
0.28
0.33
0.47
0.42
0.33
0.18
0.01
0.01
0.01
0.00
0.00
0.01
0.04
0.04
0.04
0.05
0.63
0.20
0.62
0.65
0.65
0.61
0.56
0.28
0.25
0.27
0.20
0.25
0.15
0.15
0.11
0.11
0.11
0.08
0.04
0.04
0.04
0.01
0.00
0.00
0.00
0.01
0.01
0.01
0.01
0.00
0.04
0.05
0.08
0.09
0.11
0.15
0.15
0.11
0.09
0.08
0.01
0.01
0.00
0.01
0.01
0.00
0.01
0.01
0.01
0.01
0.01
0.01
0.01
0.01
0.01
0.01
0.01
0.01
0.01
0.01
0.01
0.01
0.01
0.01
0.01
0.01
0.01
0.01
0.01
0.03
0.01
0.01
0.01
0.01
0.01
0.01
0.05
0.09
0.09
0.10
0.46
0.28
0.28
0.09
0.01
0.00
0.08
0.05
0.08
0.08
0.11
0.09
0.09
0.01
0.01
0.82
0.58
0.63
0.64
0.65
0.59
0.20
0.15
0.09
0.08
0.04
0.04
0.01
0.01
0.00
0.00
0.00
0.00
0.00
0.01
0.00
0.01
0.01
0.00
0.00
0.00
0.00
0.01
0.05
0.08
0.11
0.11
0.20
0.20
0.20
0.15
0.09
0.05
0.01
0.01
0.01
0.01
0.01
0.01
0.01
0.01
0.01
0.01
0.01
0.01
0.01
0.01
0.01
0.01
0.01
0.01
0.01
0.01
0.01
0.01
0.03
0.01
0.01
0.01
0.01
0.03
0.01
0.01
0.01
0.01
0.01
0.01
0.01
0.01
0.01
0.01
0.01
0.01
0.01
0.01
0.00
0.01
0.01
0.09
0.10
0.15
0.15
0.40
0.33
0.10
0.10
0.01
0.00
0.00
0.01
0.01
0.01
0.01
0.01
0.00
0.24
0.46
0.82
0.56
0.58
0.61
0.59
0.56
0.04
0.15
0.01
0.01
0.00
0.00
0.01
0.00
0.01
0.01
0.01
0.00
0.01
0.01
0.00
0.01
0.01
0.00
0.04
0.08
0.09
0.09
0.11
0.15
0.25
0.25
0.27
0.20
0.20
0.15
0.08
0.05
0.00
0.01
0.01
0.01
0.05
0.03
0.05
0.03
0.01
0.03
0.03
0.01
0.03
0.01
0.01
0.03
0.01
0.01
0.03
0.01
0.01
0.01
0.01
0.01
0.01
0.01
0.03
0.03
0.01
0.01
0.03
0.03
0.01
0.01
0.01
0.01
0.01
0.03
0.15
0.03
0.28
0.46
0.46
0.47
0.30
0.09
0.01
0.01
0.01
0.04
0.08
0.04
0.05
0.09
0.00
0.03
0.72
0.59
0.63
0.63
0.64
0.58
0.28
0.20
0.09
0.11
0.05
0.05
0.05
0.05
0.04
0.05
0.04
0.05
0.05
0.04
0.01
0.04
0.01
0.01
0.04
0.01
0.01
0.00
0.04
0.05
0.11
0.09
0.09
0.15
0.20
0.15
0.11
0.09
0.05
0.04
0.00
0.00
0.01
0.00
0.00
0.00
0.00
0.00
0.01
0.00
0.00
0.00
0.00
0.00
0.01
0.04
0.01
0.00
0.01
0.01
0.01
0.00
0.00
0.00
0.01
0.01
0.00
0.01
0.01
0.04
0.05
0.04
0.04
0.05
0.04
0.05
0.01
0.01
0.01
0.05
0.28
0.19
0.19
0.15
0.01
0.01
0.01
0.01
0.04
0.04
0.05
0.05
0.08
0.05
0.03
0.80
0.58
0.66
0.65
0.66
0.61
0.40
0.27
0.25
0.15
0.15
0.11
0.09
0.08
0.08
0.08
0.05
0.04
0.04
0.04
0.01
0.04
0.01
0.01
0.00
0.01
0.04
0.05
0.05
0.08
0.11
0.15
0.20
0.20
0.28
0.27
0.27
0.20
0.11
0.08
0.01
0.00
0.00
0.01
0.01
0.01
0.01
0.01
0.01
0.01
0.01
0.01
0.01
0.01
0.01
0.01
0.01
0.01
0.00
0.01
0.00
0.01
0.00
0.01
0.01
0.01
0.00
0.01
0.00
0.01
0.00
0.00
0.00
0.01
0.05
0.01
0.10
0.28
0.33
0.28
0.10
0.01
0.00
0.01
0.00
0.00
0.00
0.04
0.04
0.04
0.01
0.01
0.81
0.57
0.62
0.63
0.66
0.59
0.28
0.27
0.20
0.11
0.11
0.09
0.08
0.08
0.08
0.08
0.05
0.05
0.05
0.05
0.05
0.05
0.04
0.04
0.08
0.04
0.05
0.05
0.08
0.11
0.25
0.25
0.27
0.31
0.31
0.28
0.25
0.09
0.05
0.01
0.00
0.01
0.00
0.01
0.01
0.01
0.01
0.01
0.01
0.01
0.01
0.01
0.01
0.01
0.01
0.01
0.03
0.03
0.05
0.09
0.01
0.05
0.03
0.03
0.05
0.05
0.01
0.01
0.03
0.03
0.05
0.05
0.03
0.03
0.03
0.09
0.18
0.05
0.18
0.51
0.42
0.40
0.24
0.09
0.01
0.01
0.00
0.01
0.00
0.00
0.04
0.08
0.05
0.15
0.79
0.58
0.61
0.62
0.60
0.56
0.15
0.25
0.15
0.08
0.09
0.08
0.08
0.05
0.09
0.08
0.11
0.08
0.09
0.09
0.08
0.11
0.11
0.15
0.15
0.25
0.15
0.25
0.28
0.28
0.31
0.34
0.40
0.40
0.37
0.28
0.25
0.20
0.20
0.08
0.01
0.01
0.01
0.05
0.04
0.00
0.00
0.00
0.01
0.01
0.01
0.01
0.00
0.00
0.00
0.00
0.01
0.01
0.00
0.00
0.01
0.00
0.01
0.01
0.00
0.01
0.01
0.03
0.01
0.01
0.01
0.01
0.03
0.01
0.15
0.10
0.28
0.24
0.46
0.42
0.30
0.18
0.01
0.01
0.01
0.01
0.00
0.05
0.04
0.08
0.05
0.01
0.63
0.25
0.63
0.66
0.66
0.60
0.52
0.27
0.15
0.20
0.15
0.11
0.15
0.11
0.09
0.09
0.09
0.09
0.05
0.05
0.04
0.01
0.04
0.00
0.00
0.01
0.00
0.00
0.00
0.00
0.01
0.04
0.01
0.08
0.09
0.15
0.15
0.15
0.09
0.08
0.05
0.05
0.04
0.04
0.00
0.00
0.01
0.00
0.01
0.01
0.00
0.00
0.00
0.00
0.00
0.00
0.00
0.00
0.01
0.00
0.01
0.00
0.00
0.01
0.00
0.00
0.00
0.00
0.00
0.01
0.01
0.01
0.05
0.15
0.15
0.19
0.57
0.37
0.37
0.19
0.01
0.03
0.00
0.00
0.00
0.01
0.00
0.01
0.09
0.15
0.30
0.75
0.58
0.65
0.65
0.60
0.57
0.09
0.11
0.08
0.01
0.01
0.00
0.00
0.00
0.01
0.01
0.01
0.01
0.01
0.01
0.05
0.01
0.03
0.03
0.01
0.03
0.01
0.01
0.00
0.00
0.04
0.08
0.09
0.15
0.11
0.11
0.09
0.08
0.01
0.00
0.01
0.01
0.01
0.01
0.03
0.03
0.09
0.03
0.09
0.05
0.05
0.05
0.03
0.03
0.03
0.05
0.05
0.05
0.03
0.05
0.09
0.05
0.09
0.05
0.03
0.09
0.05
0.05
0.05
0.03
0.05
0.15
0.15
0.18
0.18
0.55
0.37
0.37
0.15
0.01
0.03
0.01
0.01
0.01
0.01
0.01
0.00
0.04
0.19
0.46
0.68
0.59
0.63
0.65
0.60
0.57
0.11
0.11
0.04
0.08
0.04
0.00
0.00
0.00
0.01
0.01
0.01
0.01
0.00
0.00
0.00
0.00
0.01
0.01
0.00
0.00
0.00
0.04
0.08
0.09
0.09
0.09
0.11
0.15
0.11
0.05
0.01
0.00
0.01
0.01
0.05
0.03
0.09
0.10
0.15
0.15
0.15
0.19
0.18
0.19
0.18
0.24
0.19
0.18
0.28
0.19
0.24
0.19
0.04
0.19
0.28
0.01
0.57
0.64
0.65
0.40
0.42
0.87
0.93
0.96
0.97
0.92
0.82
0.01
0.05
0.24
0.19
0.18
0.18
0.01
0.04
0.08
0.25
0.31
0.27
0.34
0.43
0.43
0.52
0.56
0.57
0.57
0.57
0.57
0.57
0.56
0.56
0.57
0.56
0.42
0.27
0.09
0.01
0.01
0.01
0.01
0.01
0.01
0.01
0.01
0.01
0.01
0.03
0.05
0.10
0.01
0.03
0.09
0.05
0.01
0.03
0.05
0.01
0.01
0.01
0.01
0.01
0.01
0.03
0.05
0.03
0.01
0.01
0.01
0.01
0.03
0.01
0.01
0.01
0.01
0.01
0.01
0.00
0.00
0.00
0.01
0.00
0.00
0.00
0.00
0.01
0.00
0.00
0.01
0.01
0.00
0.00
0.00
0.01
0.00
0.00
0.00
0.00
0.00
0.00
0.01
0.03
0.05
0.05
0.47
0.28
0.28
0.10
0.01
0.01
0.01
0.05
0.04
0.08
0.08
0.11
0.25
0.04
0.37
0.01
0.60
0.60
0.64
0.60
0.57
0.25
0.28
0.25
0.20
0.11
0.11
0.08
0.09
0.08
0.04
0.04
0.00
0.00
0.00
0.01
0.01
0.01
0.01
0.01
0.01
0.01
0.01
0.01
0.01
0.01
0.01
0.00
0.04
0.09
0.25
0.20
0.20
0.20
0.11
0.11
0.05
0.04
0.00
0.01
0.04
0.01
0.01
0.04
0.01
0.04
0.00
0.00
0.00
0.00
0.00
0.00
0.01
0.15
0.56
0.58
0.58
0.34
0.76
0.97
1.00
1.00
1.00
0.99
0.96
0.93
0.96
0.98
0.98
0.97
0.86
0.01
0.42
0.57
0.56
0.58
0.60
0.61
0.63
0.63
0.65
0.66
0.65
0.64
0.66
0.71
0.79
0.83
0.86
0.87
0.88
0.88
0.88
0.88
0.87
0.82
0.69
0.65
0.61
0.58
0.57
0.43
0.31
0.20
0.15
0.09
0.11
0.11
0.09
0.09
0.11
0.15
0.15
0.11
0.11
0.09
0.11
0.09
0.05
0.04
0.05
0.05
0.01
0.01
0.01
0.01
0.01
0.01
0.00
0.00
0.01
0.04
0.04
0.05
0.05
0.04
0.05
0.05
0.05
0.11
0.05
0.08
0.05
0.09
0.09
0.05
0.05
0.05
0.01
0.00
0.05
0.01
0.04
0.05
0.01
0.01
0.01
0.05
0.40
0.30
0.30
0.15
0.01
0.00
0.00
0.00
0.00
0.05
0.01
0.05
0.20
0.01
0.15
0.80
0.56
0.58
0.62
0.61
0.58
0.25
0.20
0.11
0.15
0.04
0.04
0.04
0.04
0.05
0.04
0.01
0.00
0.00
0.04
0.01
0.00
0.04
0.05
0.04
0.05
0.08
0.05
0.05
0.05
0.09
0.04
0.04
0.04
0.08
0.20
0.11
0.15
0.11
0.05
0.09
0.01
0.00
0.01
0.00
0.01
0.01
0.01
0.00
0.01
0.01
0.01
0.01
0.01
0.01
0.01
0.01
0.01
0.00
0.01
0.01
0.01
0.01
0.01
0.01
0.01
0.01
0.05
0.05
0.01
0.15
0.42
0.33
0.33
0.18
0.05
0.00
0.00
0.00
0.01
0.05
0.09
0.05
0.27
0.00
0.01
0.72
0.61
0.65
0.65
0.62
0.58
0.27
0.27
0.11
0.11
0.09
0.08
0.08
0.11
0.09
0.11
0.15
0.09
0.11
0.11
0.15
0.15
0.11
0.09
0.09
0.15
0.09
0.11
0.09
0.11
0.11
0.15
0.11
0.20
0.25
0.25
0.20
0.20
0.15
0.11
0.11
0.05
0.05
0.05
0.05
0.05
0.08
0.04
0.04
0.05
0.05
0.09
0.05
0.04
0.04
0.04
0.05
0.04
0.00
0.01
0.00
0.04
0.00
0.01
0.01
0.01
0.00
0.01
0.01
0.05
0.15
0.28
0.19
0.15
0.01
0.00
0.00
0.05
0.04
0.05
0.05
0.11
0.15
0.04
0.01
0.73
0.57
0.66
0.66
0.64
0.61
0.40
0.28
0.20
0.15
0.15
0.09
0.15
0.09
0.09
0.08
0.08
0.05
0.04
0.00
0.00
0.00
0.01
0.01
0.01
0.01
0.01
0.01
0.01
0.00
0.04
0.04
0.08
0.11
0.20
0.20
0.20
0.09
0.05
0.01
0.00
0.00
0.00
0.01
0.01
0.01
0.00
0.01
0.01
0.01
0.00
0.00
0.00
0.00
0.00
0.00
0.00
0.01
0.00
0.00
0.00
0.00
0.01
0.00
0.00
0.00
0.00
0.01
0.05
0.09
0.09
0.47
0.28
0.33
0.15
0.01
0.01
0.00
0.00
0.01
0.01
0.00
0.00
0.00
0.18
0.33
0.79
0.58
0.65
0.66
0.61
0.56
0.11
0.09
0.08
0.08
0.05
0.05
0.04
0.01
0.04
0.01
0.01
0.01
0.00
0.00
0.00
0.00
0.00
0.01
0.00
0.00
0.04
0.05
0.05
0.09
0.15
0.20
0.20
0.27
0.20
0.15
0.09
0.08
0.04
0.01
0.01
0.01
0.01
0.01
0.01
0.01
0.00
0.01
0.01
0.03
0.01
0.01
0.01
0.01
0.01
0.01
0.01
0.01
0.01
0.01
0.03
0.03
0.01
0.01
0.03
0.05
0.09
0.05
0.01
0.10
0.03
0.05
0.10
0.28
0.10
0.33
0.57
0.42
0.51
0.40
0.24
0.10
0.03
0.09
0.09
0.05
0.09
0.01
0.01
0.24
0.28
0.82
0.58
0.62
0.63
0.59
0.57
0.04
0.05
0.01
0.00
0.01
0.00
0.00
0.01
0.01
0.00
0.00
0.01
0.01
0.00
0.00
0.00
0.00
0.00
0.00
0.00
0.00
0.00
0.00
0.00
0.00
0.05
0.01
0.01
0.00
0.00
0.01
0.01
0.01
0.01
0.01
0.03
0.01
0.01
0.01
0.01
0.01
0.01
0.01
0.01
0.01
0.01
0.01
0.03
0.05
0.03
0.05
0.03
0.05
0.03
0.05
0.03
0.01
0.01
0.01
0.03
0.05
0.03
0.01
0.09
0.19
0.15
0.28
0.42
0.51
0.46
0.37
0.24
0.01
0.01
0.01
0.00
0.01
0.05
0.04
0.11
0.01
0.01
0.72
0.58
0.66
0.64
0.63
0.59
0.27
0.20
0.09
0.08
0.01
0.00
0.01
0.00
0.00
0.01
0.00
0.00
0.00
0.00
0.00
0.00
0.01
0.01
0.01
0.01
0.01
0.01
0.00
0.00
0.01
0.01
0.04
0.08
0.11
0.11
0.09
0.01
0.04
0.00
0.01
0.00
0.01
0.01
0.01
0.00
0.00
0.00
0.01
0.00
0.00
0.01
0.00
0.00
0.00
0.00
0.00
0.00
0.00
0.00
0.01
0.04
0.04
0.04
0.04
0.04
0.05
0.01
0.01
0.01
0.01
0.01
0.03
0.09
0.09
0.42
0.30
0.24
0.10
0.01
0.01
0.04
0.00
0.00
0.04
0.01
0.04
0.01
0.15
0.67
0.04
0.62
0.66
0.64
0.60
0.43
0.20
0.15
0.09
0.08
0.05
0.05
0.05
0.04
0.04
0.04
0.04
0.01
0.00
0.00
0.00
0.00
0.01
0.01
0.01
0.01
0.00
0.00
0.00
0.05
0.05
0.11
0.09
0.09
0.08
0.04
0.01
0.00
0.01
0.01
0.01
0.01
0.01
0.03
0.03
0.01
0.03
0.01
0.01
0.03
0.01
0.01
0.01
0.01
0.01
0.01
0.01
0.01
0.01
0.01
0.01
0.01
0.01
0.01
0.01
0.01
0.01
0.01
0.01
0.01
0.01
0.03
0.09
0.09
0.15
0.47
0.30
0.33
0.10
0.01
0.01
0.01
0.00
0.01
0.00
0.01
0.00
0.04
0.19
0.15
0.79
0.58
0.64
0.65
0.61
0.56
0.09
0.20
0.05
0.05
0.01
0.04
0.05
0.04
0.01
0.00
0.00
0.01
0.01
0.00
0.01
0.04
0.01
0.04
0.08
0.08
0.08
0.09
0.15
0.25
0.25
0.27
0.28
0.27
0.25
0.15
0.09
0.05
0.04
0.00
0.01
0.01
0.01
0.00
0.01
0.01
0.01
0.01
0.01
0.01
0.01
0.01
0.01
0.01
0.01
0.01
0.01
0.05
0.01
0.05
0.01
0.05
0.01
0.03
0.05
0.05
0.05
0.01
0.05
0.05
0.09
0.03
0.09
0.01
0.18
0.15
0.19
0.28
0.47
0.42
0.37
0.28
0.03
0.01
0.01
0.01
0.01
0.00
0.01
0.01
0.04
0.01
0.57
0.01
0.62
0.64
0.66
0.59
0.48
0.09
0.05
0.04
0.00
0.01
0.00
0.01
0.00
0.01
0.01
0.00
0.01
0.00
0.01
0.01
0.00
0.01
0.01
0.01
0.01
0.01
0.01
0.00
0.00
0.04
0.04
0.05
0.08
0.08
0.04
0.01
0.04
0.01
0.01
0.00
0.00
0.00
0.00
0.00
0.00
0.01
0.01
0.01
0.01
0.01
0.00
0.00
0.01
0.00
0.00
0.00
0.01
0.01
0.00
0.01
0.00
0.00
0.00
0.00
0.01
0.01
0.00
0.00
0.00
0.00
0.00
0.00
0.03
0.03
0.09
0.15
0.37
0.30
0.28
0.10
0.01
0.00
0.00
0.01
0.00
0.04
0.05
0.08
0.04
0.05
0.64
0.28
0.63
0.66
0.65
0.60
0.40
0.25
0.20
0.15
0.09
0.11
0.11
0.08
0.08
0.08
0.05
0.05
0.04
0.01
0.00
0.00
0.00
0.00
0.00
0.00
0.00
0.01
0.00
0.05
0.08
0.15
0.20
0.25
0.25
0.20
0.15
0.20
0.08
0.05
0.01
0.00
0.01
0.00
0.00
0.00
0.01
0.00
0.01
0.01
0.01
0.01
0.01
0.01
0.01
0.01
0.01
0.01
0.01
0.01
0.01
0.01
0.00
0.00
0.00
0.00
0.00
0.01
0.01
0.01
0.01
0.01
0.01
0.01
0.00
0.01
0.19
0.10
0.10
0.01
0.01
0.08
0.09
0.08
0.08
0.05
0.08
0.09
0.04
0.01
0.01
0.80
0.57
0.62
0.62
0.66
0.58
0.25
0.27
0.20
0.15
0.11
0.09
0.11
0.05
0.05
0.04
0.04
0.04
0.04
0.00
0.01
0.01
0.01
0.00
0.00
0.01
0.04
0.09
0.11
0.15
0.20
0.28
0.34
0.31
0.27
0.28
0.20
0.11
0.09
0.04
0.00
0.00
0.01
0.01
0.01
0.01
0.01
0.01
0.01
0.01
0.01
0.03
0.01
0.03
0.05
0.05
0.05
0.01
0.05
0.05
0.09
0.09
0.09
0.03
0.10
0.09
0.05
0.09
0.03
0.10
0.05
0.10
0.09
0.03
0.15
0.24
0.24
0.28
0.58
0.46
0.46
0.37
0.18
0.09
0.01
0.01
0.03
0.01
0.00
0.01
0.01
0.10
0.30
0.68
0.60
0.62
0.65
0.59
0.56
0.09
0.11
0.04
0.01
0.04
0.01
0.00
0.00
0.00
0.00
0.01
0.00
0.01
0.00
0.04
0.01
0.01
0.05
0.08
0.04
0.04
0.04
0.05
0.09
0.11
0.15
0.15
0.25
0.11
0.08
0.11
0.04
0.04
0.04
0.00
0.01
0.04
0.00
0.01
0.01
0.01
0.04
0.04
0.04
0.00
0.04
0.00
0.00
0.00
0.00
0.00
0.01
0.01
0.01
0.01
0.01
0.01
0.01
0.00
0.01
0.00
0.00
0.00
0.00
0.00
0.00
0.01
0.05
0.01
0.10
0.37
0.24
0.30
0.19
0.05
0.01
0.00
0.00
0.00
0.04
0.00
0.05
0.11
0.03
0.09
0.69
0.61
0.65
0.66
0.61
0.57
0.20
0.27
0.20
0.15
0.15
0.15
0.11
0.08
0.09
0.05
0.08
0.08
0.08
0.04
0.05
0.04
0.04
0.01
0.01
0.01
0.01
0.01
0.04
0.05
0.09
0.15
0.25
0.25
0.27
0.27
0.25
0.15
0.11
0.08
0.04
0.05
0.01
0.01
0.01
0.01
0.04
0.04
0.01
0.00
0.01
0.00
0.04
0.00
0.00
0.00
0.00
0.00
0.00
0.01
0.01
0.01
0.00
0.01
0.01
0.01
0.00
0.00
0.00
0.00
0.01
0.01
0.00
0.01
0.01
0.05
0.24
0.10
0.19
0.09
0.01
0.01
0.01
0.01
0.05
0.04
0.08
0.05
0.09
0.01
0.01
0.80
0.58
0.66
0.64
0.66
0.60
0.34
0.34
0.27
0.20
0.20
0.15
0.11
0.11
0.05
0.09
0.08
0.08
0.08
0.04
0.04
0.04
0.04
0.01
0.00
0.00
0.01
0.04
0.05
0.05
0.09
0.20
0.20
0.25
0.25
0.20
0.15
0.09
0.05
0.00
0.00
0.00
0.01
0.01
0.01
0.01
0.01
0.00
0.01
0.01
0.01
0.01
0.01
0.01
0.01
0.01
0.01
0.01
0.01
0.01
0.01
0.01
0.03
0.01
0.03
0.01
0.01
0.01
0.01
0.01
0.01
0.01
0.05
0.15
0.10
0.24
0.40
0.40
0.40
0.24
0.10
0.01
0.01
0.00
0.01
0.01
0.00
0.01
0.01
0.00
0.01
0.75
0.56
0.60
0.63
0.65
0.58
0.27
0.20
0.20
0.08
0.04
0.04
0.01
0.04
0.04
0.04
0.04
0.04
0.08
0.04
0.04
0.05
0.05
0.05
0.05
0.09
0.11
0.11
0.20
0.25
0.28
0.27
0.27
0.27
0.28
0.20
0.11
0.08
0.05
0.00
0.01
0.01
0.01
0.01
0.01
0.09
0.01
0.01
0.01
0.01
0.03
0.01
0.01
0.01
0.01
0.01
0.05
0.05
0.03
0.01
0.05
0.10
0.05
0.05
0.03
0.05
0.03
0.09
0.03
0.09
0.05
0.15
0.09
0.15
0.19
0.15
0.33
0.46
0.55
0.47
0.46
0.24
0.10
0.03
0.01
0.01
0.01
0.01
0.01
0.04
0.01
0.01
0.72
0.58
0.62
0.60
0.62
0.58
0.20
0.15
0.11
0.05
0.05
0.04
0.04
0.08
0.04
0.00
0.00
0.01
0.00
0.01
0.01
0.01
0.01
0.01
0.01
0.01
0.01
0.01
0.01
0.01
0.04
0.05
0.09
0.09
0.11
0.15
0.11
0.05
0.04
0.05
0.04
0.01
0.00
0.00
0.00
0.01
0.00
0.00
0.01
0.01
0.01
0.01
0.01
0.01
0.01
0.01
0.01
0.01
0.01
0.01
0.01
0.01
0.01
0.01
0.01
0.01
0.01
0.01
0.01
0.01
0.01
0.01
0.01
0.05
0.01
0.15
0.28
0.33
0.30
0.15
0.01
0.00
0.01
0.04
0.05
0.05
0.08
0.08
0.11
0.01
0.01
0.73
0.58
0.65
0.63
0.63
0.59
0.15
0.20
0.09
0.09
0.05
0.05
0.08
0.08
0.08
0.05
0.05
0.04
0.01
0.01
0.00
0.00
0.00
0.00
0.00
0.00
0.01
0.01
0.01
0.08
0.08
0.09
0.11
0.15
0.20
0.11
0.09
0.05
0.01
0.01
0.01
0.01
0.01
0.01
0.01
0.01
0.01
0.01
0.01
0.01
0.01
0.01
0.01
0.01
0.01
0.01
0.01
0.01
0.01
0.00
0.01
0.01
0.01
0.01
0.01
0.00
0.01
0.01
0.00
0.00
0.00
0.01
0.09
0.01
0.09
0.46
0.24
0.30
0.09
0.01
0.00
0.04
0.01
0.00
0.04
0.04
0.04
0.09
0.09
0.03
0.73
0.58
0.64
0.64
0.60
0.58
0.20
0.27
0.20
0.15
0.11
0.08
0.05
0.05
0.05
0.08
0.04
0.01
0.01
0.01
0.00
0.01
0.01
0.01
0.01
0.05
0.04
0.05
0.09
0.15
0.15
0.27
0.20
0.20
0.27
0.20
0.15
0.05
0.04
0.01
0.00
0.00
0.01
0.01
0.01
0.01
0.01
0.01
0.01
0.01
0.01
0.01
0.01
0.01
0.01
0.01
0.01
0.01
0.01
0.01
0.01
0.01
0.03
0.01
0.01
0.01
0.01
0.01
0.01
0.01
0.01
0.01
0.01
0.05
0.18
0.10
0.15
0.51
0.37
0.37
0.19
0.01
0.01
0.01
0.01
0.01
0.01
0.01
0.00
0.04
0.10
0.30
0.64
0.58
0.61
0.66
0.58
0.56
0.08
0.11
0.11
0.08
0.09
0.05
0.05
0.08
0.15
0.15
0.05
0.09
0.09
0.11
0.15
0.15
0.20
0.11
0.11
0.15
0.20
0.25
0.20
0.28
0.34
0.27
0.25
0.27
0.15
0.25
0.09
0.01
0.00
0.00
0.01
0.01
0.01
0.01
0.01
0.01
0.03
0.01
0.01
0.01
0.01
0.01
0.05
0.01
0.03
0.01
0.03
0.03
0.05
0.03
0.01
0.05
0.05
0.03
0.01
0.05
0.01
0.01
0.01
0.03
0.01
0.01
0.01
0.10
0.09
0.24
0.40
0.42
0.37
0.33
0.15
0.01
0.01
0.01
0.01
0.00
0.00
0.00
0.09
0.01
0.01
0.73
0.61
0.66
0.63
0.61
0.58
0.08
0.11
0.05
0.04
0.05
0.04
0.00
0.00
0.01
0.04
0.00
0.00
0.00
0.00
0.00
0.00
0.00
0.01
0.00
0.00
0.00
0.00
0.01
0.00
0.09
0.05
0.09
0.15
0.15
0.15
0.09
0.05
0.04
0.00
0.00
0.01
0.01
0.01
0.01
0.03
0.09
0.10
0.09
0.10
0.10
0.15
0.15
0.15
0.10
0.09
0.10
0.09
0.05
0.09
0.03
0.03
0.03
0.01
0.01
0.01
0.01
0.01
0.01
0.01
0.01
0.03
0.10
0.09
0.19
0.37
0.40
0.37
0.24
0.03
0.01
0.00
0.00
0.00
0.00
0.01
0.00
0.01
0.09
0.05
0.81
0.58
0.63
0.62
0.63
0.58
0.05
0.11
0.08
0.05
0.08
0.05
0.05
0.05
0.05
0.05
0.05
0.04
0.01
0.01
0.00
0.00
0.01
0.00
0.01
0.01
0.00
0.01
0.00
0.01
0.04
0.05
0.09
0.11
0.09
0.09
0.09
0.01
0.00
0.00
0.00
0.00
0.00
0.00
0.00
0.00
0.01
0.00
0.00
0.00
0.01
0.01
0.00
0.00
0.00
0.00
0.00
0.00
0.00
0.00
0.00
0.00
0.00
0.00
0.01
0.00
0.00
0.01
0.01
0.01
0.01
0.01
0.01
0.05
0.10
0.18
0.19
0.46
0.33
0.24
0.05
0.01
0.01
0.00
0.00
0.00
0.01
0.00
0.01
0.04
0.03
0.63
0.09
0.59
0.62
0.65
0.59
0.42
0.20
0.11
0.11
0.08
0.05
0.08
0.04
0.05
0.05
0.04
0.04
0.04
0.01
0.01
0.04
0.00
0.00
0.01
0.04
0.04
0.08
0.09
0.11
0.20
0.27
0.25
0.31
0.27
0.27
0.20
0.11
0.05
0.04
0.00
0.01
0.01
0.01
0.01
0.01
0.01
0.01
0.01
0.01
0.01
0.01
0.03
0.03
0.03
0.03
0.09
0.09
0.09
0.09
0.03
0.03
0.05
0.10
0.09
0.01
0.01
0.05
0.03
0.05
0.01
0.01
0.01
0.03
0.09
0.19
0.15
0.28
0.33
0.57
0.47
0.40
0.18
0.05
0.03
0.01
0.00
0.01
0.00
0.00
0.00
0.00
0.00
0.74
0.57
0.60
0.60
0.63
0.58
0.25
0.27
0.15
0.08
0.09
0.08
0.08
0.11
0.05
0.04
0.08
0.09
0.04
0.09
0.04
0.04
0.04
0.04
0.08
0.05
0.04
0.09
0.08
0.11
0.15
0.25
0.25
0.15
0.15
0.15
0.09
0.08
0.08
0.04
0.04
0.01
0.01
0.01
0.00
0.00
0.00
0.01
0.00
0.01
0.00
0.01
0.01
0.00
0.00
0.00
0.01
0.01
0.01
0.01
0.01
0.01
0.01
0.01
0.01
0.01
0.01
0.01
0.01
0.01
0.01
0.01
0.03
0.15
0.18
0.24
0.19
0.57
0.46
0.40
0.30
0.05
0.05
0.01
0.00
0.00
0.01
0.00
0.05
0.05
0.01
0.57
0.15
0.62
0.63
0.66
0.59
0.43
0.20
0.11
0.11
0.08
0.05
0.05
0.04
0.04
0.04
0.00
0.00
0.01
0.00
0.00
0.00
0.00
0.00
0.00
0.00
0.00
0.00
0.00
0.01
0.05
0.08
0.08
0.11
0.15
0.11
0.09
0.09
0.04
0.01
0.00
0.01
0.01
0.01
0.01
0.01
0.01
0.01
0.01
0.01
0.01
0.01
0.01
0.01
0.01
0.01
0.01
0.01
0.01
0.01
0.01
0.01
0.01
0.01
0.03
0.01
0.03
0.03
0.05
0.01
0.01
0.03
0.03
0.01
0.10
0.19
0.10
0.19
0.51
0.33
0.37
0.18
0.01
0.01
0.01
0.00
0.00
0.00
0.00
0.01
0.11
0.15
0.09
0.74
0.59
0.65
0.65
0.60
0.56
0.20
0.25
0.20
0.11
0.11
0.11
0.15
0.11
0.11
0.09
0.09
0.08
0.08
0.05
0.05
0.01
0.05
0.04
0.04
0.04
0.05
0.08
0.11
0.11
0.20
0.20
0.25
0.27
0.27
0.20
0.11
0.09
0.05
0.00
0.01
0.00
0.00
0.00
0.01
0.00
0.00
0.00
0.01
0.00
0.00
0.00
0.00
0.00
0.00
0.01
0.00
0.00
0.00
0.01
0.01
0.01
0.01
0.01
0.01
0.01
0.01
0.03
0.01
0.03
0.03
0.01
0.01
0.09
0.19
0.05
0.18
0.47
0.33
0.37
0.19
0.01
0.01
0.00
0.00
0.00
0.00
0.00
0.01
0.05
0.10
0.01
0.80
0.57
0.61
0.62
0.63
0.57
0.15
0.27
0.15
0.08
0.08
0.05
0.05
0.01
0.00
0.00
0.00
0.01
0.00
0.00
0.00
0.00
0.01
0.00
0.04
0.01
0.05
0.09
0.15
0.25
0.27
0.31
0.34
0.28
0.27
0.25
0.15
0.08
0.01
0.00
0.01
0.01
0.01
0.01
0.01
0.01
0.01
0.01
0.01
0.01
0.01
0.03
0.01
0.01
0.01
0.03
0.03
0.01
0.05
0.03
0.09
0.09
0.05
0.09
0.03
0.05
0.03
0.03
0.01
0.03
0.03
0.05
0.03
0.10
0.24
0.15
0.28
0.57
0.42
0.42
0.30
0.05
0.03
0.01
0.01
0.01
0.01
0.01
0.00
0.08
0.05
0.05
0.64
0.58
0.61
0.63
0.59
0.57
0.11
0.11
0.08
0.04
0.08
0.08
0.11
0.05
0.04
0.05
0.05
0.05
0.08
0.04
0.01
0.05
0.04
0.08
0.08
0.05
0.08
0.08
0.11
0.09
0.15
0.11
0.15
0.09
0.09
0.04
0.04
0.00
0.01
0.01
0.01
0.03
0.01
0.03
0.03
0.01
0.03
0.01
0.01
0.01
0.01
0.01
0.01
0.01
0.01
0.01
0.01
0.01
0.01
0.05
0.01
0.01
0.01
0.01
0.01
0.01
0.01
0.01
0.01
0.01
0.01
0.01
0.01
0.03
0.01
0.01
0.03
0.15
0.15
0.30
0.37
0.47
0.42
0.37
0.19
0.05
0.03
0.01
0.01
0.01
0.01
0.01
0.00
0.01
0.09
0.70
0.48
0.61
0.62
0.66
0.58
0.34
0.11
0.08
0.05
0.04
0.01
0.01
0.01
0.00
0.01
0.00
0.00
0.00
0.00
0.00
0.00
0.00
0.00
0.01
0.00
0.00
0.00
0.01
0.01
0.04
0.08
0.08
0.11
0.15
0.15
0.15
0.09
0.08
0.01
0.00
0.01
0.01
0.01
0.01
0.03
0.03
0.01
0.01
0.01
0.03
0.01
0.01
0.01
0.01
0.01
0.01
0.01
0.01
0.01
0.01
0.01
0.01
0.01
0.01
0.01
0.01
0.01
0.01
0.01
0.01
0.03
0.01
0.01
0.01
0.03
0.05
0.10
0.19
0.10
0.19
0.55
0.40
0.37
0.19
0.01
0.03
0.01
0.01
0.01
0.01
0.01
0.01
0.01
0.19
0.15
0.77
0.56
0.62
0.62
0.60
0.58
0.08
0.15
0.08
0.09
0.04
0.05
0.04
0.04
0.05
0.04
0.04
0.04
0.04
0.04
0.01
0.01
0.01
0.01
0.01
0.00
0.01
0.05
0.09
0.15
0.15
0.15
0.25
0.25
0.27
0.27
0.15
0.11
0.05
0.04
0.00
0.00
0.01
0.00
0.01
0.01
0.01
0.01
0.01
0.00
0.01
0.01
0.01
0.01
0.01
0.01
0.01
0.01
0.03
0.05
0.05
0.03
0.05
0.05
0.03
0.03
0.03
0.01
0.01
0.01
0.00
0.01
0.01
0.00
0.00
0.04
0.01
0.00
0.04
0.04
0.05
0.04
0.04
0.04
0.04
0.01
0.01
0.05
0.01
0.05
0.01
0.33
0.03
0.01
0.01
0.20
0.05
0.05
0.04
0.01
0.04
0.01
0.05
0.09
0.01
0.82
0.57
0.59
0.58
0.62
0.58
0.09
0.20
0.09
0.09
0.15
0.09
0.09
0.08
0.08
0.09
0.09
0.08
0.08
0.08
0.11
0.05
0.09
0.09
0.11
0.15
0.11
0.20
0.27
0.31
0.34
0.40
0.40
0.40
0.40
0.31
0.28
0.15
0.08
0.04
0.01
0.00
0.00
0.00
0.00
0.00
0.00
0.01
0.00
0.01
0.01
0.00
0.00
0.01
0.00
0.01
0.00
0.01
0.01
0.01
0.01
0.00
0.01
0.01
0.01
0.01
0.01
0.01
0.01
0.01
0.00
0.01
0.01
0.01
0.01
0.00
0.01
0.00
0.00
0.00
0.01
0.01
0.01
0.05
0.01
0.15
0.01
0.33
0.15
0.10
0.01
0.01
0.05
0.04
0.05
0.05
0.09
0.05
0.05
0.11
0.00
0.47
0.05
0.59
0.59
0.64
0.59
0.57
0.15
0.25
0.15
0.15
0.11
0.11
0.09
0.11
0.11
0.08
0.08
0.08
0.08
0.11
0.11
0.09
0.11
0.09
0.09
0.15
0.20
0.15
0.15
0.25
0.20
0.28
0.28
0.28
0.31
0.27
0.20
0.15
0.08
0.08
0.05
0.01
0.00
0.00
0.01
0.00
0.00
0.00
0.01
0.01
0.00
0.01
0.01
0.01
0.01
0.01
0.00
0.01
0.01
0.01
0.01
0.01
0.01
0.01
0.01
0.01
0.01
0.01
0.01
0.01
0.01
0.01
0.01
0.01
0.01
0.01
0.01
0.01
0.01
0.01
0.00
0.00
0.00
0.00
0.00
0.00
0.01
0.03
0.01
0.01
0.10
0.18
0.01
0.01
0.08
0.11
0.09
0.09
0.09
0.09
0.09
0.08
0.15
0.03
0.01
0.80
0.58
0.60
0.61
0.62
0.58
0.20
0.27
0.15
0.15
0.08
0.09
0.09
0.08
0.08
0.04
0.04
0.01
0.05
0.01
0.00
0.00
0.00
0.00
0.00
0.00
0.01
0.08
0.05
0.09
0.15
0.20
0.27
0.28
0.31
0.34
0.31
0.28
0.20
0.11
0.08
0.04
0.01
0.01
0.01
0.00
0.00
0.01
0.00
0.01
0.01
0.00
0.01
0.01
0.01
0.01
0.01
0.01
0.01
0.01
0.03
0.03
0.03
0.01
0.01
0.01
0.03
0.03
0.01
0.01
0.01
0.01
0.00
0.01
0.01
0.01
0.01
0.01
0.00
0.00
0.00
0.01
0.01
0.00
0.00
0.01
0.01
0.01
0.01
0.01
0.00
0.01
0.01
0.05
0.01
0.10
0.09
0.24
0.01
0.01
0.01
0.09
0.05
0.04
0.04
0.01
0.01
0.01
0.05
0.09
0.01
0.80
0.57
0.58
0.60
0.60
0.56
0.08
0.15
0.11
0.09
0.08
0.05
0.08
0.05
0.08
0.05
0.04
0.05
0.05
0.05
0.05
0.05
0.04
0.04
0.08
0.09
0.09
0.11
0.15
0.25
0.25
0.27
0.28
0.31
0.31
0.28
0.20
0.11
0.09
0.05
0.00
0.01
0.01
0.01
0.01
0.01
0.01
0.03
0.03
0.01
0.01
0.01
0.01
0.01
0.01
0.03
0.01
0.01
0.01
0.01
0.01
0.01
0.01
0.01
0.01
0.03
0.03
0.01
0.03
0.01
0.01
0.01
0.01
0.03
0.01
0.03
0.01
0.01
0.01
0.01
0.01
0.01
0.01
0.01
0.01
0.01
0.01
0.01
0.01
0.01
0.01
0.01
0.01
0.01
0.01
0.15
0.01
0.19
0.10
0.24
0.03
0.09
0.00
0.04
0.04
0.01
0.00
0.00
0.00
0.00
0.05
0.01
0.01
0.79
0.57
0.56
0.57
0.61
0.57
0.11
0.15
0.09
0.09
0.08
0.05
0.08
0.05
0.08
0.05
0.08
0.11
0.11
0.08
0.05
0.08
0.05
0.11
0.08
0.09
0.15
0.25
0.27
0.28
0.34
0.40
0.34
0.37
0.37
0.40
0.34
0.25
0.11
0.04
0.00
0.00
0.01
0.01
0.01
0.01
0.01
0.01
0.01
0.01
0.01
0.01
0.01
0.01
0.03
0.01
0.01
0.01
0.01
0.01
0.01
0.01
0.01
0.01
0.01
0.03
0.01
0.01
0.01
0.01
0.01
0.01
0.01
0.01
0.00
0.00
0.01
0.00
0.00
0.00
0.00
0.01
0.00
0.00
0.00
0.00
0.00
0.01
0.01
0.00
0.01
0.01
0.01
0.10
0.03
0.18
0.03
0.33
0.19
0.05
0.09
0.00
0.01
0.01
0.00
0.01
0.01
0.00
0.01
0.01
0.03
0.69
0.51
0.57
0.58
0.62
0.58
0.27
0.09
0.05
0.05
0.01
0.04
0.01
0.04
0.01
0.01
0.04
0.05
0.08
0.05
0.04
0.08
0.08
0.08
0.09
0.08
0.09
0.11
0.11
0.15
0.25
0.25
0.28
0.31
0.37
0.34
0.28
0.25
0.15
0.08
0.04
0.00
0.00
0.01
0.01
0.01
0.01
0.01
0.01
0.01
0.01
0.01
0.01
0.01
0.01
0.01
0.01
0.01
0.01
0.00
0.00
0.01
0.00
0.01
0.00
0.00
0.00
0.01
0.01
0.01
0.01
0.01
0.01
0.01
0.00
0.00
0.00
0.00
0.00
0.01
0.00
0.00
0.00
0.00
0.00
0.03
0.03
0.03
0.03
0.28
0.09
0.01
0.05
0.04
0.04
0.04
0.04
0.00
0.04
0.04
0.04
0.09
0.10
0.57
0.15
0.58
0.61
0.65
0.59
0.56
0.28
0.27
0.25
0.20
0.15
0.11
0.09
0.09
0.08
0.08
0.05
0.04
0.05
0.05
0.05
0.05
0.04
0.04
0.05
0.09
0.09
0.15
0.25
0.25
0.34
0.31
0.31
0.34
0.34
0.28
0.25
0.09
0.04
0.00
0.01
0.01
0.01
0.03
0.03
0.01
0.01
0.03
0.01
0.03
0.01
0.01
0.01
0.01
0.01
0.01
0.01
0.01
0.01
0.01
0.01
0.01
0.01
0.01
0.01
0.01
0.01
0.01
0.01
0.01
0.01
0.01
0.01
0.01
0.01
0.01
0.01
0.01
0.01
0.01
0.01
0.01
0.15
0.09
0.24
0.09
0.46
0.18
0.10
0.09
0.05
0.01
0.00
0.00
0.00
0.00
0.01
0.01
0.05
0.05
0.63
0.01
0.58
0.61
0.65
0.58
0.53
0.25
0.25
0.15
0.20
0.15
0.15
0.11
0.11
0.09
0.11
0.09
0.11
0.09
0.11
0.09
0.09
0.11
0.11
0.15
0.15
0.25
0.27
0.31
0.34
0.40
0.43
0.42
0.43
0.43
0.42
0.31
0.25
0.11
0.05
0.01
0.00
0.01
0.01
0.01
0.01
0.01
0.01
0.01
0.01
0.01
0.01
0.01
0.01
0.01
0.01
0.01
0.01
0.01
0.01
0.01
0.01
0.01
0.03
0.03
0.01
0.01
0.01
0.01
0.01
0.01
0.01
0.01
0.01
0.01
0.01
0.01
0.01
0.01
0.01
0.15
0.09
0.19
0.15
0.51
0.40
0.24
0.05
0.00
0.01
0.00
0.01
0.01
0.00
0.01
0.00
0.01
0.01
0.69
0.47
0.58
0.58
0.66
0.58
0.28
0.11
0.08
0.09
0.08
0.05
0.05
0.08
0.05
0.04
0.04
0.05
0.04
0.04
0.05
0.04
0.05
0.05
0.09
0.09
0.15
0.15
0.20
0.27
0.28
0.37
0.34
0.34
0.31
0.31
0.27
0.20
0.11
0.05
0.01
0.01
0.01
0.01
0.01
0.01
0.01
0.01
0.01
0.01
0.01
0.01
0.01
0.01
0.01
0.01
0.01
0.01
0.01
0.01
0.01
0.01
0.01
0.01
0.03
0.01
0.03
0.01
0.03
0.01
0.01
0.01
0.03
0.05
0.05
0.09
0.19
0.18
0.18
0.57
0.37
0.37
0.19
0.01
0.01
0.01
0.00
0.00
0.01
0.04
0.08
0.15
0.01
0.33
0.19
0.59
0.61
0.66
0.60
0.58
0.27
0.25
0.20
0.11
0.11
0.11
0.15
0.11
0.11
0.11
0.11
0.11
0.09
0.09
0.09
0.08
0.11
0.09
0.05
0.05
0.05
0.08
0.09
0.15
0.15
0.15
0.25
0.25
0.27
0.20
0.11
0.09
0.04
0.04
0.00
0.00
0.00
0.01
0.01
0.01
0.00
0.00
0.00
0.00
0.00
0.00
0.01
0.00
0.00
0.00
0.01
0.00
0.00
0.00
0.00
0.00
0.00
0.01
0.01
0.01
0.01
0.01
0.01
0.01
0.01
0.01
0.01
0.01
0.01
0.01
0.09
0.01
0.10
0.37
0.28
0.28
0.10
0.01
0.01
0.01
0.01
0.01
0.04
0.05
0.04
0.11
0.00
0.04
0.80
0.58
0.63
0.62
0.66
0.59
0.28
0.31
0.25
0.25
0.15
0.09
0.08
0.08
0.09
0.05
0.01
0.00
0.01
0.00
0.00
0.00
0.00
0.00
0.00
0.00
0.00
0.01
0.05
0.11
0.15
0.25
0.27
0.28
0.31
0.27
0.27
0.20
0.09
0.05
0.04
0.00
0.00
0.00
0.00
0.00
0.00
0.01
0.00
0.01
0.01
0.01
0.01
0.01
0.01
0.01
0.01
0.01
0.01
0.01
0.01
0.01
0.01
0.01
0.01
0.01
0.01
0.03
0.01
0.03
0.01
0.01
0.01
0.01
0.01
0.01
0.01
0.10
0.03
0.19
0.30
0.46
0.37
0.19
0.03
0.00
0.01
0.00
0.01
0.00
0.00
0.01
0.00
0.00
0.03
0.73
0.47
0.58
0.60
0.65
0.59
0.43
0.27
0.20
0.20
0.11
0.11
0.09
0.08
0.08
0.08
0.09
0.08
0.05
0.08
0.05
0.08
0.09
0.05
0.08
0.08
0.11
0.15
0.20
0.27
0.31
0.34
0.31
0.34
0.34
0.31
0.28
0.15
0.08
0.00
0.00
0.01
0.01
0.01
0.01
0.01
0.01
0.01
0.03
0.01
0.01
0.01
0.01
0.01
0.01
0.01
0.01
0.01
0.01
0.01
0.01
0.01
0.01
0.01
0.01
0.01
0.01
0.00
0.01
0.01
0.01
0.01
0.01
0.01
0.03
0.03
0.03
0.03
0.03
0.05
0.15
0.03
0.10
0.46
0.40
0.37
0.18
0.01
0.01
0.00
0.00
0.00
0.00
0.00
0.01
0.09
0.03
0.03
0.70
0.57
0.60
0.63
0.58
0.57
0.08
0.20
0.15
0.15
0.09
0.11
0.09
0.09
0.09
0.08
0.11
0.08
0.09
0.11
0.08
0.09
0.11
0.11
0.11
0.11
0.11
0.15
0.20
0.27
0.28
0.31
0.28
0.31
0.31
0.31
0.25
0.20
0.08
0.05
0.04
0.00
0.00
0.00
0.00
0.00
0.00
0.00
0.00
0.00
0.01
0.00
0.01
0.01
0.01
0.01
0.01
0.01
0.01
0.01
0.01
0.03
0.03
0.05
0.01
0.03
0.03
0.03
0.01
0.01
0.03
0.03
0.03
0.10
0.09
0.46
0.61
0.68
0.80
0.67
0.69
0.28
0.71
0.88
0.84
0.90
0.93
0.93
0.93
0.69
0.01
0.56
0.40
0.53
0.48
0.51
0.51
0.53
0.56
0.56
0.57
0.57
0.56
0.57
0.58
0.58
0.60
0.61
0.63
0.62
0.62
0.62
0.60
0.61
0.58
0.58
0.57
0.58
0.51
0.37
0.25
0.08
0.08
0.01
0.00
0.00
0.00
0.00
0.00
0.00
0.00
0.00
0.00
0.00
0.01
0.01
0.01
0.01
0.01
0.01
0.01
0.01
0.01
0.03
0.05
0.03
0.03
0.01
0.01
0.01
0.03
0.01
0.01
0.01
0.01
0.01
0.01
0.01
0.01
0.01
0.01
0.01
0.01
0.03
0.01
0.03
0.01
0.01
0.01
0.01
0.01
0.01
0.01
0.10
0.03
0.24
0.37
0.46
0.30
0.19
0.05
0.01
0.01
0.00
0.00
0.00
0.04
0.01
0.05
0.01
0.01
0.82
0.56
0.58
0.60
0.64
0.59
0.15
0.25
0.11
0.08
0.08
0.05
0.05
0.04
0.01
0.01
0.00
0.00
0.00
0.00
0.01
0.00
0.00
0.00
0.00
0.00
0.01
0.04
0.04
0.08
0.09
0.09
0.11
0.20
0.27
0.27
0.27
0.25
0.20
0.04
0.01
0.01
0.01
0.01
0.05
0.09
0.09
0.05
0.09
0.05
0.10
0.10
0.10
0.10
0.15
0.15
0.18
0.18
0.18
0.15
0.15
0.15
0.15
0.15
0.15
0.15
0.15
0.15
0.10
0.15
0.10
0.09
0.09
0.05
0.10
0.10
0.19
0.24
0.51
0.37
0.24
0.03
0.00
0.01
0.04
0.00
0.00
0.01
0.04
0.04
0.04
0.05
0.64
0.00
0.59
0.61
0.65
0.59
0.48
0.15
0.08
0.05
0.01
0.01
0.04
0.00
0.00
0.01
0.01
0.00
0.00
0.01
0.01
0.00
0.04
0.01
0.04
0.05
0.08
0.11
0.20
0.25
0.28
0.28
0.37
0.34
0.34
0.28
0.25
0.11
0.05
0.01
0.00
0.01
0.01
0.01
0.01
0.03
0.01
0.01
0.01
0.01
0.03
0.03
0.05
0.03
0.01
0.01
0.05
0.03
0.01
0.05
0.03
0.05
0.05
0.03
0.09
0.09
0.09
0.05
0.09
0.05
0.09
0.09
0.05
0.05
0.10
0.09
0.15
0.19
0.18
0.19
0.57
0.37
0.40
0.24
0.01
0.01
0.00
0.01
0.01
0.00
0.00
0.00
0.09
0.03
0.40
0.51
0.59
0.61
0.66
0.58
0.57
0.20
0.20
0.11
0.09
0.11
0.05
0.08
0.08
0.09
0.08
0.08
0.05
0.08
0.09
0.09
0.05
0.04
0.08
0.04
0.08
0.05
0.05
0.15
0.15
0.20
0.15
0.11
0.11
0.11
0.09
0.04
0.00
0.01
0.03
0.03
0.05
0.05
0.09
0.09
0.05
0.05
0.05
0.03
0.03
0.01
0.01
0.03
0.01
0.01
0.01
0.01
0.01
0.01
0.01
0.03
0.01
0.01
0.01
0.01
0.01
0.01
0.05
0.05
0.05
0.05
0.03
0.15
0.28
0.24
0.30
0.60
0.51
0.51
0.37
0.18
0.15
0.01
0.03
0.03
0.01
0.01
0.01
0.04
0.18
0.10
0.81
0.58
0.60
0.60
0.60
0.57
0.05
0.11
0.04
0.04
0.04
0.01
0.04
0.01
0.04
0.04
0.05
0.04
0.05
0.05
0.04
0.01
0.01
0.00
0.00
0.04
0.04
0.05
0.05
0.09
0.08
0.11
0.15
0.15
0.20
0.15
0.15
0.09
0.04
0.00
0.01
0.01
0.01
0.01
0.01
0.01
0.01
0.01
0.01
0.01
0.01
0.01
0.01
0.01
0.01
0.01
0.01
0.01
0.01
0.01
0.03
0.03
0.05
0.03
0.03
0.03
0.05
0.03
0.03
0.03
0.03
0.01
0.01
0.01
0.09
0.09
0.19
0.19
0.42
0.30
0.19
0.09
0.01
0.00
0.00
0.00
0.00
0.04
0.00
0.04
0.01
0.01
0.79
0.58
0.61
0.62
0.65
0.59
0.31
0.25
0.11
0.09
0.09
0.04
0.08
0.05
0.04
0.04
0.04
0.01
0.01
0.00
0.00
0.00
0.01
0.00
0.00
0.01
0.01
0.08
0.05
0.11
0.20
0.27
0.28
0.28
0.28
0.27
0.27
0.15
0.09
0.05
0.00
0.00
0.00
0.00
0.01
0.00
0.00
0.00
0.00
0.00
0.01
0.01
0.01
0.01
0.01
0.01
0.01
0.01
0.01
0.01
0.03
0.05
0.09
0.05
0.05
0.03
0.05
0.05
0.05
0.05
0.03
0.05
0.01
0.01
0.01
0.03
0.03
0.15
0.03
0.24
0.37
0.42
0.33
0.15
0.03
0.00
0.00
0.00
0.00
0.00
0.00
0.00
0.01
0.09
0.05
0.82
0.58
0.62
0.63
0.62
0.57
0.11
0.27
0.15
0.11
0.15
0.08
0.05
0.08
0.08
0.09
0.08
0.05
0.05
0.05
0.08
0.04
0.08
0.08
0.08
0.08
0.11
0.09
0.20
0.28
0.28
0.37
0.31
0.37
0.40
0.34
0.28
0.25
0.15
0.09
0.05
0.01
0.04
0.01
0.05
0.01
0.00
0.00
0.00
0.00
0.00
0.00
0.01
0.00
0.00
0.01
0.01
0.01
0.01
0.01
0.01
0.01
0.01
0.01
0.00
0.01
0.01
0.01
0.01
0.01
0.01
0.01
0.01
0.01
0.01
0.10
0.03
0.10
0.47
0.37
0.37
0.15
0.03
0.01
0.01
0.01
0.01
0.00
0.01
0.00
0.15
0.03
0.03
0.71
0.58
0.60
0.63
0.60
0.56
0.11
0.27
0.20
0.09
0.09
0.04
0.08
0.08
0.08
0.04
0.08
0.08
0.04
0.04
0.05
0.05
0.04
0.05
0.08
0.08
0.05
0.09
0.20
0.11
0.15
0.11
0.15
0.20
0.15
0.11
0.08
0.04
0.04
0.00
0.01
0.01
0.01
0.01
0.00
0.01
0.01
0.00
0.00
0.00
0.00
0.00
0.01
0.00
0.00
0.00
0.01
0.01
0.01
0.01
0.01
0.01
0.01
0.01
0.01
0.01
0.03
0.01
0.01
0.01
0.01
0.01
0.01
0.05
0.15
0.19
0.28
0.30
0.57
0.46
0.33
0.19
0.01
0.01
0.01
0.00
0.01
0.00
0.01
0.04
0.04
0.05
0.66
0.31
0.60
0.62
0.66
0.59
0.31
0.20
0.15
0.09
0.09
0.08
0.08
0.09
0.09
0.08
0.08
0.08
0.05
0.05
0.04
0.08
0.04
0.05
0.05
0.04
0.08
0.09
0.11
0.25
0.25
0.25
0.28
0.28
0.31
0.27
0.20
0.09
0.05
0.05
0.00
0.01
0.01
0.01
0.01
0.01
0.01
0.01
0.01
0.01
0.01
0.01
0.01
0.01
0.01
0.01
0.01
0.01
0.01
0.01
0.01
0.01
0.01
0.01
0.01
0.01
0.01
0.01
0.01
0.01
0.01
0.03
0.03
0.15
0.05
0.18
0.51
0.42
0.37
0.18
0.03
0.01
0.01
0.01
0.01
0.01
0.01
0.01
0.01
0.18
0.30
0.70
0.59
0.63
0.65
0.60
0.57
0.11
0.11
0.09
0.09
0.05
0.01
0.04
0.04
0.04
0.01
0.00
0.00
0.00
0.00
0.01
0.01
0.00
0.00
0.00
0.00
0.01
0.05
0.09
0.15
0.20
0.20
0.25
0.25
0.27
0.20
0.11
0.05
0.04
0.00
0.00
0.00
0.01
0.01
0.01
0.01
0.01
0.01
0.01
0.00
0.01
0.01
0.01
0.01
0.01
0.01
0.01
0.01
0.01
0.01
0.01
0.03
0.01
0.03
0.01
0.01
0.03
0.05
0.01
0.03
0.01
0.03
0.03
0.05
0.19
0.09
0.19
0.55
0.42
0.42
0.19
0.03
0.01
0.01
0.01
0.01
0.01
0.01
0.01
0.00
0.28
0.09
0.81
0.58
0.62
0.62
0.61
0.56
0.04
0.08
0.05
0.01
0.01
0.00
0.04
0.00
0.00
0.00
0.01
0.00
0.01
0.04
0.01
0.01
0.04
0.04
0.04
0.04
0.08
0.11
0.15
0.27
0.27
0.25
0.28
0.28
0.27
0.20
0.09
0.04
0.00
0.01
0.01
0.01
0.01
0.05
0.03
0.01
0.01
0.01
0.01
0.01
0.01
0.01
0.01
0.01
0.01
0.01
0.01
0.01
0.01
0.01
0.01
0.09
0.05
0.03
0.05
0.05
0.03
0.09
0.05
0.09
0.05
0.10
0.24
0.18
0.28
0.30
0.57
0.57
0.40
0.28
0.03
0.01
0.01
0.01
0.01
0.00
0.01
0.01
0.01
0.01
0.68
0.57
0.60
0.59
0.62
0.58
0.27
0.09
0.05
0.04
0.01
0.04
0.01
0.01
0.00
0.01
0.01
0.01
0.00
0.01
0.00
0.01
0.04
0.01
0.00
0.01
0.01
0.01
0.01
0.00
0.05
0.05
0.08
0.08
0.05
0.04
0.04
0.01
0.00
0.01
0.01
0.01
0.01
0.01
0.01
0.01
0.01
0.01
0.01
0.01
0.01
0.01
0.01
0.01
0.01
0.01
0.01
0.01
0.01
0.01
0.01
0.01
0.01
0.01
0.01
0.03
0.01
0.01
0.01
0.01
0.01
0.15
0.15
0.19
0.24
0.55
0.46
0.37
0.19
0.03
0.05
0.01
0.01
0.00
0.01
0.00
0.04
0.01
0.01
0.66
0.53
0.62
0.62
0.66
0.59
0.27
0.20
0.08
0.08
0.04
0.04
0.00
0.04
0.04
0.04
0.00
0.00
0.00
0.00
0.00
0.01
0.00
0.01
0.01
0.01
0.01
0.01
0.01
0.01
0.00
0.01
0.01
0.05
0.08
0.05
0.01
0.00
0.01
0.01
0.01
0.01
0.05
0.03
0.05
0.03
0.05
0.03
0.05
0.05
0.03
0.03
0.01
0.03
0.03
0.01
0.03
0.01
0.01
0.01
0.01
0.03
0.03
0.05
0.03
0.05
0.03
0.01
0.03
0.05
0.15
0.09
0.24
0.33
0.46
0.40
0.15
0.05
0.01
0.01
0.01
0.00
0.00
0.01
0.00
0.04
0.01
0.01
0.80
0.56
0.63
0.60
0.65
0.59
0.20
0.27
0.15
0.15
0.11
0.09
0.05
0.08
0.05
0.05
0.04
0.05
0.01
0.05
0.00
0.04
0.01
0.01
0.01
0.00
0.01
0.01
0.04
0.09
0.08
0.11
0.11
0.15
0.20
0.11
0.08
0.04
0.00
0.01
0.01
0.01
0.01
0.01
0.01
0.01
0.01
0.01
0.01
0.01
0.01
0.01
0.01
0.01
0.01
0.01
0.01
0.03
0.03
0.05
0.03
0.09
0.05
0.09
0.05
0.09
0.09
0.10
0.09
0.10
0.24
0.10
0.30
0.46
0.55
0.46
0.28
0.09
0.05
0.01
0.01
0.01
0.01
0.01
0.01
0.00
0.05
0.01
0.79
0.57
0.61
0.61
0.66
0.58
0.15
0.20
0.09
0.04
0.01
0.00
0.00
0.05
0.00
0.00
0.00
0.00
0.00
0.01
0.00
0.00
0.00
0.00
0.01
0.01
0.01
0.01
0.08
0.08
0.11
0.11
0.15
0.09
0.09
0.08
0.01
0.01
0.01
0.01
0.09
0.09
0.18
0.10
0.10
0.05
0.15
0.10
0.10
0.05
0.10
0.10
0.10
0.09
0.10
0.10
0.10
0.15
0.10
0.10
0.15
0.10
0.15
0.10
0.10
0.10
0.10
0.05
0.15
0.10
0.24
0.19
0.30
0.30
0.57
0.55
0.46
0.30
0.05
0.05
0.01
0.01
0.01
0.01
0.00
0.00
0.05
0.00
0.57
0.20
0.60
0.61
0.65
0.58
0.42
0.08
0.05
0.00
0.01
0.00
0.01
0.00
0.01
0.01
0.01
0.01
0.01
0.01
0.01
0.01
0.01
0.01
0.03
0.01
0.01
0.05
0.03
0.01
0.00
0.01
0.01
0.01
0.04
0.04
0.01
0.01
0.00
0.01
0.00
0.01
0.01
0.01
0.01
0.01
0.01
0.01
0.01
0.01
0.00
0.01
0.01
0.01
0.00
0.01
0.01
0.00
0.00
0.00
0.00
0.00
0.00
0.00
0.00
0.00
0.00
0.00
0.00
0.01
0.05
0.05
0.05
0.42
0.24
0.28
0.09
0.01
0.01
0.08
0.01
0.00
0.01
0.04
0.05
0.27
0.01
0.05
0.57
0.62
0.65
0.66
0.59
0.57
0.08
0.09
0.08
0.05
0.01
0.01
0.04
0.00
0.00
0.00
0.01
0.00
0.01
0.00
0.01
0.01
0.00
0.01
0.01
0.01
0.01
0.00
0.00
0.01
0.04
0.08
0.09
0.15
0.15
0.20
0.11
0.09
0.04
0.04
0.00
0.00
0.00
0.01
0.00
0.01
0.01
0.00
0.00
0.00
0.00
0.00
0.01
0.00
0.01
0.00
0.00
0.00
0.00
0.00
0.00
0.00
0.00
0.00
0.01
0.00
0.01
0.00
0.01
0.03
0.03
0.05
0.40
0.19
0.18
0.01
0.01
0.00
0.08
0.04
0.05
0.08
0.05
0.08
0.20
0.01
0.05
0.64
0.58
0.65
0.65
0.61
0.56
0.28
0.28
0.28
0.27
0.11
0.15
0.15
0.11
0.11
0.09
0.08
0.05
0.05
0.05
0.01
0.01
0.01
0.01
0.04
0.01
0.01
0.05
0.09
0.09
0.15
0.11
0.20
0.25
0.25
0.11
0.05
0.04
0.00
0.01
0.01
0.01
0.01
0.01
0.01
0.01
0.01
0.01
0.01
0.01
0.01
0.01
0.01
0.01
0.01
0.01
0.01
0.01
0.01
0.01
0.01
0.01
0.03
0.01
0.01
0.01
0.01
0.01
0.01
0.03
0.10
0.03
0.24
0.28
0.40
0.40
0.24
0.03
0.01
0.01
0.01
0.00
0.01
0.01
0.01
0.00
0.01
0.01
0.69
0.48
0.59
0.59
0.66
0.59
0.25
0.11
0.09
0.05
0.04
0.05
0.01
0.01
0.01
0.04
0.01
0.00
0.01
0.01
0.01
0.00
0.01
0.00
0.04
0.05
0.05
0.08
0.11
0.15
0.20
0.11
0.20
0.27
0.27
0.15
0.11
0.08
0.04
0.00
0.01
0.00
0.01
0.01
0.01
0.00
0.01
0.01
0.01
0.01
0.04
0.01
0.01
0.01
0.01
0.01
0.01
0.01
0.01
0.01
0.01
0.03
0.01
0.03
0.09
0.01
0.03
0.05
0.05
0.03
0.15
0.15
0.28
0.30
0.55
0.47
0.47
0.37
0.10
0.10
0.01
0.01
0.01
0.01
0.01
0.00
0.04
0.00
0.55
0.27
0.61
0.61
0.64
0.58
0.43
0.09
0.05
0.05
0.00
0.00
0.00
0.01
0.01
0.00
0.01
0.01
0.00
0.01
0.01
0.01
0.00
0.01
0.01
0.01
0.01
0.00
0.04
0.04
0.05
0.08
0.11
0.20
0.25
0.15
0.11
0.09
0.09
0.08
0.04
0.04
0.01
0.01
0.00
0.00
0.00
0.00
0.01
0.00
0.00
0.01
0.01
0.01
0.01
0.01
0.01
0.01
0.01
0.01
0.01
0.01
0.01
0.01
0.01
0.01
0.01
0.01
0.01
0.01
0.05
0.10
0.18
0.10
0.51
0.30
0.30
0.15
0.01
0.01
0.01
0.00
0.00
0.04
0.05
0.09
0.15
0.01
0.37
0.01
0.60
0.62
0.66
0.61
0.56
0.25
0.25
0.15
0.15
0.11
0.15
0.11
0.09
0.09
0.09
0.11
0.09
0.08
0.05
0.04
0.04
0.04
0.01
0.01
0.01
0.04
0.04
0.05
0.09
0.11
0.20
0.25
0.27
0.25
0.20
0.09
0.08
0.04
0.01
0.00
0.00
0.01
0.00
0.01
0.01
0.01
0.01
0.01
0.01
0.01
0.01
0.01
0.01
0.01
0.01
0.01
0.00
0.00
0.01
0.01
0.01
0.01
0.00
0.01
0.01
0.01
0.01
0.01
0.01
0.03
0.03
0.42
0.28
0.28
0.05
0.00
0.00
0.04
0.01
0.00
0.04
0.04
0.05
0.15
0.09
0.10
0.69
0.59
0.60
0.64
0.60
0.56
0.15
0.27
0.11
0.09
0.05
0.05
0.05
0.04
0.01
0.01
0.01
0.01
0.00
0.01
0.00
0.00
0.00
0.01
0.00
0.00
0.04
0.08
0.15
0.15
0.28
0.28
0.28
0.31
0.27
0.27
0.15
0.11
0.05
0.01
0.00
0.00
0.01
0.00
0.01
0.01
0.01
0.00
0.00
0.01
0.00
0.01
0.01
0.01
0.01
0.01
0.01
0.01
0.01
0.01
0.01
0.01
0.01
0.05
0.01
0.05
0.05
0.05
0.09
0.09
0.10
0.19
0.24
0.24
0.58
0.47
0.51
0.33
0.05
0.09
0.01
0.01
0.03
0.01
0.01
0.01
0.08
0.03
0.40
0.64
0.59
0.59
0.64
0.58
0.57
0.05
0.08
0.05
0.05
0.05
0.01
0.04
0.01
0.04
0.05
0.05
0.04
0.04
0.01
0.09
0.08
0.09
0.05
0.11
0.15
0.15
0.20
0.25
0.28
0.27
0.27
0.28
0.27
0.09
0.05
0.04
0.04
0.01
0.01
0.01
0.01
0.01
0.03
0.01
0.01
0.01
0.01
0.05
0.01
0.03
0.01
0.01
0.01
0.01
0.01
0.01
0.01
0.01
0.03
0.01
0.01
0.01
0.05
0.01
0.01
0.01
0.01
0.01
0.09
0.18
0.09
0.19
0.46
0.42
0.46
0.28
0.10
0.01
0.00
0.01
0.00
0.01
0.04
0.04
0.11
0.01
0.15
0.75
0.62
0.66
0.65
0.60
0.58
0.15
0.25
0.11
0.11
0.09
0.08
0.05
0.05
0.05
0.05
0.01
0.01
0.04
0.01
0.01
0.00
0.00
0.00
0.00
0.00
0.00
0.01
0.01
0.08
0.08
0.09
0.11
0.15
0.15
0.15
0.09
0.08
0.04
0.01
0.01
0.00
0.00
0.00
0.00
0.00
0.00
0.00
0.01
0.00
0.01
0.00
0.00
0.01
0.01
0.04
0.01
0.04
0.01
0.04
0.04
0.05
0.04
0.04
0.04
0.04
0.05
0.04
0.04
0.04
0.05
0.00
0.01
0.01
0.01
0.37
0.15
0.18
0.01
0.00
0.00
0.08
0.05
0.01
0.08
0.08
0.09
0.20
0.09
0.18
0.69
0.60
0.65
0.65
0.62
0.56
0.28
0.34
0.27
0.27
0.27
0.25
0.25
0.20
0.25
0.20
0.25
0.20
0.15
0.11
0.11
0.09
0.11
0.08
0.09
0.08
0.09
0.15
0.15
0.25
0.28
0.34
0.34
0.37
0.31
0.28
0.25
0.20
0.08
0.04
0.01
0.00
0.00
0.00
0.00
0.00
0.00
0.00
0.01
0.00
0.00
0.01
0.00
0.01
0.01
0.01
0.01
0.01
0.01
0.01
0.01
0.01
0.01
0.01
0.01
0.01
0.01
0.01
0.01
0.01
0.01
0.01
0.00
0.00
0.01
0.05
0.03
0.05
0.47
0.28
0.33
0.10
0.01
0.01
0.00
0.01
0.01
0.00
0.01
0.01
0.04
0.18
0.15
0.82
0.59
0.64
0.64
0.63
0.58
0.11
0.27
0.11
0.09
0.09
0.11
0.05
0.05
0.05
0.05
0.09
0.01
0.01
0.01
0.01
0.01
0.04
0.01
0.05
0.08
0.09
0.09
0.27
0.27
0.28
0.31
0.34
0.31
0.31
0.27
0.27
0.09
0.04
0.00
0.01
0.01
0.01
0.01
0.01
0.01
0.00
0.01
0.01
0.01
0.01
0.01
0.01
0.01
0.01
0.03
0.01
0.01
0.03
0.10
0.09
0.05
0.03
0.09
0.15
0.05
0.09
0.05
0.09
0.09
0.09
0.09
0.03
0.09
0.05
0.18
0.24
0.28
0.28
0.58
0.47
0.42
0.33
0.05
0.05
0.01
0.01
0.00
0.01
0.01
0.04
0.09
0.03
0.60
0.01
0.61
0.62
0.66
0.59
0.48
0.05
0.08
0.08
0.05
0.05
0.00
0.00
0.05
0.04
0.00
0.00
0.00
0.00
0.00
0.00
0.00
0.00
0.05
0.04
0.00
0.08
0.08
0.08
0.11
0.11
0.09
0.11
0.09
0.11
0.08
0.01
0.01
0.00
0.01
0.01
0.01
0.01
0.01
0.01
0.01
0.01
0.01
0.00
0.01
0.00
0.00
0.00
0.01
0.01
0.00
0.00
0.00
0.00
0.00
0.01
0.01
0.01
0.01
0.01
0.01
0.00
0.01
0.01
0.01
0.01
0.01
0.01
0.01
0.01
0.01
0.15
0.09
0.18
0.47
0.37
0.40
0.24
0.03
0.01
0.00
0.00
0.01
0.01
0.04
0.08
0.08
0.03
0.03
0.79
0.60
0.66
0.65
0.65
0.60
0.28
0.31
0.25
0.15
0.11
0.11
0.09
0.08
0.05
0.08
0.04
0.04
0.04
0.01
0.01
0.00
0.00
0.01
0.01
0.00
0.00
0.00
0.01
0.04
0.08
0.11
0.15
0.20
0.20
0.11
0.09
0.05
0.01
0.00
0.01
0.01
0.01
0.01
0.03
0.03
0.01
0.01
0.01
0.01
0.01
0.01
0.01
0.01
0.01
0.01
0.01
0.03
0.01
0.01
0.03
0.01
0.01
0.01
0.01
0.01
0.01
0.01
0.01
0.01
0.01
0.01
0.01
0.01
0.01
0.01
0.01
0.01
0.01
0.01
0.01
0.09
0.15
0.09
0.18
0.51
0.30
0.33
0.10
0.01
0.01
0.00
0.00
0.00
0.01
0.04
0.05
0.05
0.18
0.24
0.71
0.60
0.65
0.66
0.60
0.57
0.20
0.20
0.20
0.11
0.08
0.05
0.04
0.05
0.08
0.00
0.05
0.01
0.04
0.00
0.00
0.01
0.00
0.00
0.00
0.00
0.01
0.01
0.05
0.11
0.15
0.20
0.27
0.27
0.27
0.25
0.15
0.08
0.01
0.00
0.00
0.01
0.01
0.01
0.01
0.01
0.01
0.01
0.01
0.01
0.01
0.01
0.01
0.03
0.03
0.01
0.03
0.05
0.05
0.03
0.09
0.05
0.09
0.09
0.09
0.03
0.05
0.09
0.03
0.03
0.01
0.01
0.03
0.03
0.05
0.03
0.03
0.03
0.09
0.19
0.18
0.28
0.40
0.57
0.40
0.33
0.15
0.01
0.03
0.00
0.01
0.01
0.01
0.01
0.00
0.00
0.10
0.69
0.04
0.58
0.61
0.65
0.58
0.34
0.09
0.08
0.04
0.04
0.04
0.00
0.01
0.00
0.01
0.00
0.01
0.04
0.01
0.01
0.01
0.05
0.08
0.05
0.09
0.09
0.15
0.15
0.31
0.31
0.31
0.37
0.34
0.31
0.28
0.15
0.11
0.04
0.04
0.00
0.01
0.01
0.01
0.01
0.01
0.01
0.01
0.01
0.01
0.01
0.01
0.01
0.01
0.01
0.01
0.01
0.03
0.01
0.01
0.01
0.03
0.03
0.03
0.03
0.03
0.03
0.01
0.05
0.03
0.05
0.01
0.01
0.03
0.05
0.03
0.01
0.01
0.09
0.15
0.15
0.28
0.33
0.51
0.42
0.33
0.15
0.01
0.01
0.01
0.00
0.00
0.00
0.01
0.04
0.04
0.01
0.68
0.48
0.61
0.62
0.65
0.59
0.40
0.20
0.15
0.15
0.11
0.09
0.09
0.08
0.05
0.11
0.05
0.05
0.05
0.08
0.08
0.08
0.05
0.08
0.08
0.11
0.09
0.09
0.11
0.15
0.25
0.28
0.27
0.28
0.28
0.25
0.20
0.11
0.05
0.04
0.00
0.00
0.01
0.01
0.01
0.01
0.01
0.01
0.01
0.01
0.01
0.01
0.01
0.01
0.01
0.00
0.00
0.01
0.01
0.01
0.01
0.01
0.01
0.01
0.01
0.01
0.01
0.01
0.01
0.01
0.01
0.01
0.01
0.01
0.01
0.01
0.00
0.00
0.00
0.00
0.00
0.00
0.01
0.00
0.00
0.03
0.01
0.09
0.05
0.30
0.18
0.05
0.00
0.04
0.05
0.08
0.04
0.05
0.08
0.08
0.08
0.09
0.15
0.62
0.15
0.60
0.64
0.64
0.59
0.51
0.20
0.20
0.20
0.11
0.09
0.08
0.09
0.08
0.08
0.05
0.04
0.04
0.04
0.04
0.04
0.04
0.01
0.01
0.04
0.04
0.05
0.09
0.15
0.15
0.27
0.27
0.28
0.34
0.37
0.31
0.27
0.20
0.09
0.05
0.04
0.00
0.00
0.01
0.01
0.00
0.01
0.01
0.00
0.00
0.00
0.00
0.01
0.01
0.00
0.01
0.01
0.01
0.01
0.01
0.01
0.01
0.01
0.01
0.01
0.01
0.01
0.01
0.01
0.01
0.01
0.01
0.01
0.01
0.01
0.01
0.01
0.01
0.01
0.01
0.10
0.01
0.18
0.33
0.42
0.30
0.10
0.01
0.00
0.01
0.01
0.00
0.01
0.04
0.00
0.00
0.00
0.10
0.76
0.51
0.59
0.63
0.65
0.58
0.31
0.25
0.15
0.11
0.08
0.08
0.08
0.05
0.08
0.05
0.08
0.04
0.04
0.05
0.04
0.04
0.04
0.04
0.04
0.01
0.05
0.09
0.15
0.25
0.20
0.25
0.27
0.31
0.31
0.27
0.15
0.09
0.05
0.00
0.00
0.01
0.01
0.01
0.03
0.01
0.01
0.01
0.01
0.01
0.01
0.01
0.01
0.01
0.01
0.01
0.01
0.01
0.01
0.01
0.01
0.01
0.01
0.01
0.01
0.00
0.01
0.01
0.01
0.01
0.01
0.01
0.01
0.01
0.00
0.00
0.01
0.01
0.01
0.00
0.01
0.00
0.01
0.01
0.03
0.01
0.09
0.33
0.30
0.24
0.10
0.00
0.04
0.01
0.01
0.05
0.05
0.08
0.09
0.15
0.00
0.01
0.80
0.58
0.58
0.61
0.61
0.59
0.27
0.31
0.20
0.15
0.15
0.08
0.11
0.04
0.05
0.08
0.09
0.09
0.09
0.09
0.11
0.09
0.05
0.09
0.20
0.15
0.25
0.25
0.28
0.27
0.34
0.27
0.31
0.28
0.28
0.28
0.20
0.08
0.08
0.00
0.00
0.01
0.01
0.01
0.01
0.01
0.01
0.01
0.01
0.01
0.01
0.01
0.01
0.01
0.01
0.01
0.00
0.00
0.01
0.01
0.01
0.01
0.01
0.01
0.01
0.01
0.01
0.01
0.01
0.01
0.01
0.01
0.00
0.01
0.01
0.01
0.00
0.01
0.01
0.00
0.01
0.01
0.09
0.05
0.18
0.47
0.37
0.37
0.24
0.05
0.01
0.01
0.00
0.00
0.01
0.01
0.04
0.11
0.03
0.05
0.80
0.58
0.61
0.62
0.62
0.59
0.28
0.31
0.27
0.20
0.20
0.20
0.20
0.11
0.15
0.11
0.11
0.09
0.11
0.08
0.09
0.08
0.08
0.09
0.08
0.08
0.08
0.09
0.11
0.15
0.20
0.25
0.27
0.31
0.28
0.28
0.25
0.15
0.09
0.05
0.01
0.00
0.00
0.01
0.01
0.01
0.01
0.01
0.00
0.01
0.01
0.01
0.01
0.00
0.00
0.00
0.00
0.00
0.01
0.00
0.00
0.01
0.00
0.01
0.01
0.00
0.01
0.00
0.01
0.04
0.01
0.00
0.00
0.00
0.01
0.00
0.00
0.01
0.05
0.01
0.05
0.30
0.30
0.19
0.05
0.01
0.00
0.01
0.04
0.05
0.04
0.05
0.04
0.05
0.01
0.01
0.80
0.57
0.60
0.63
0.64
0.59
0.28
0.15
0.11
0.11
0.05
0.08
0.04
0.04
0.04
0.01
0.01
0.04
0.04
0.04
0.01
0.01
0.04
0.04
0.04
0.04
0.04
0.05
0.11
0.25
0.25
0.27
0.28
0.31
0.34
0.28
0.27
0.15
0.08
0.04
0.00
0.01
0.01
0.01
0.01
0.01
0.01
0.01
0.01
0.01
0.01
0.01
0.01
0.01
0.01
0.01
0.01
0.01
0.01
0.03
0.01
0.01
0.01
0.01
0.01
0.03
0.03
0.05
0.01
0.03
0.01
0.03
0.01
0.03
0.01
0.01
0.03
0.01
0.01
0.01
0.01
0.01
0.09
0.15
0.15
0.15
0.55
0.33
0.19
0.10
0.00
0.00
0.00
0.01
0.00
0.00
0.05
0.05
0.11
0.10
0.55
0.46
0.59
0.63
0.65
0.58
0.57
0.15
0.20
0.11
0.08
0.08
0.05
0.08
0.01
0.04
0.05
0.05
0.01
0.01
0.00
0.00
0.01
0.01
0.04
0.04
0.05
0.09
0.15
0.15
0.27
0.28
0.34
0.34
0.37
0.34
0.31
0.25
0.09
0.04
0.00
0.01
0.01
0.01
0.01
0.01
0.01
0.01
0.01
0.01
0.01
0.01
0.03
0.01
0.03
0.03
0.01
0.01
0.03
0.03
0.03
0.09
0.05
0.09
0.10
0.10
0.10
0.10
0.10
0.09
0.10
0.10
0.10
0.09
0.09
0.10
0.18
0.28
0.10
0.37
0.47
0.58
0.55
0.37
0.28
0.09
0.05
0.03
0.01
0.01
0.01
0.01
0.01
0.01
0.05
0.76
0.56
0.58
0.58
0.62
0.58
0.15
0.11
0.08
0.08
0.05
0.01
0.04
0.08
0.05
0.05
0.04
0.04
0.04
0.05
0.09
0.04
0.04
0.09
0.08
0.09
0.08
0.09
0.09
0.20
0.15
0.25
0.20
0.20
0.11
0.09
0.05
0.01
0.01
0.01
0.03
0.09
0.05
0.09
0.09
0.09
0.09
0.10
0.09
0.09
0.05
0.05
0.09
0.05
0.09
0.03
0.09
0.05
0.05
0.03
0.05
0.09
0.10
0.15
0.09
0.03
0.10
0.10
0.09
0.09
0.09
0.09
0.03
0.05
0.05
0.03
0.09
0.18
0.15
0.28
0.42
0.47
0.46
0.33
0.19
0.01
0.01
0.01
0.01
0.01
0.00
0.01
0.00
0.03
0.03
0.80
0.58
0.62
0.62
0.63
0.58
0.15
0.15
0.09
0.04
0.01
0.01
0.00
0.01
0.00
0.00
0.00
0.01
0.01
0.01
0.01
0.01
0.01
0.01
0.01
0.01
0.01
0.00
0.00
0.04
0.09
0.09
0.11
0.11
0.15
0.15
0.11
0.09
0.04
0.00
0.01
0.01
0.01
0.01
0.03
0.03
0.01
0.01
0.01
0.03
0.01
0.03
0.03
0.03
0.03
0.05
0.05
0.03
0.09
0.05
0.09
0.09
0.05
0.05
0.10
0.05
0.05
0.03
0.03
0.05
0.05
0.03
0.03
0.01
0.01
0.01
0.01
0.09
0.18
0.10
0.19
0.57
0.37
0.37
0.19
0.05
0.01
0.01
0.00
0.01
0.01
0.00
0.00
0.05
0.19
0.09
0.80
0.59
0.63
0.65
0.61
0.56
0.11
0.25
0.11
0.09
0.08
0.05
0.05
0.04
0.01
0.01
0.01
0.01
0.01
0.00
0.00
0.00
0.00
0.00
0.04
0.04
0.08
0.11
0.11
0.20
0.27
0.27
0.28
0.31
0.28
0.27
0.11
0.08
0.04
0.00
0.01
0.00
0.01
0.01
0.01
0.01
0.01
0.01
0.01
0.01
0.01
0.01
0.01
0.01
0.01
0.03
0.01
0.03
0.01
0.03
0.09
0.09
0.05
0.03
0.05
0.09
0.09
0.09
0.05
0.05
0.05
0.01
0.09
0.05
0.01
0.05
0.03
0.01
0.01
0.09
0.15
0.10
0.19
0.57
0.37
0.37
0.18
0.01
0.01
0.00
0.01
0.01
0.01
0.00
0.00
0.04
0.15
0.03
0.80
0.58
0.61
0.63
0.60
0.56
0.20
0.25
0.11
0.15
0.11
0.11
0.15
0.09
0.09
0.09
0.09
0.09
0.05
0.09
0.08
0.11
0.20
0.15
0.25
0.28
0.34
0.37
0.34
0.42
0.43
0.43
0.47
0.47
0.43
0.37
0.37
0.28
0.20
0.11
0.05
0.04
0.04
0.01
0.00
0.04
0.04
0.01
0.01
0.01
0.00
0.01
0.00
0.00
0.01
0.01
0.00
0.00
0.00
0.01
0.01
0.01
0.01
0.01
0.01
0.01
0.01
0.01
0.01
0.01
0.01
0.01
0.01
0.01
0.03
0.03
0.15
0.09
0.19
0.46
0.47
0.47
0.28
0.15
0.01
0.01
0.01
0.01
0.01
0.00
0.00
0.09
0.01
0.03
0.79
0.58
0.60
0.61
0.62
0.58
0.15
0.20
0.11
0.15
0.09
0.09
0.09
0.08
0.09
0.11
0.09
0.11
0.11
0.15
0.11
0.15
0.20
0.25
0.27
0.25
0.27
0.31
0.37
0.40
0.42
0.42
0.40
0.42
0.40
0.40
0.34
0.28
0.20
0.11
0.09
0.05
0.05
0.04
0.04
0.04
0.01
0.00
0.01
0.01
0.04
0.01
0.00
0.01
0.00
0.01
0.00
0.01
0.00
0.00
0.00
0.01
0.00
0.00
0.00
0.00
0.00
0.00
0.00
0.00
0.01
0.01
0.00
0.01
0.00
0.01
0.03
0.09
0.09
0.51
0.28
0.24
0.09
0.00
0.01
0.04
0.01
0.04
0.05
0.05
0.09
0.20
0.10
0.55
0.24
0.61
0.65
0.64
0.60
0.51
0.20
0.25
0.15
0.08
0.08
0.05
0.08
0.05
0.05
0.04
0.04
0.04
0.00
0.01
0.00
0.00
0.00
0.01
0.01
0.01
0.05
0.09
0.09
0.15
0.20
0.25
0.31
0.31
0.31
0.27
0.15
0.09
0.08
0.04
0.00
0.00
0.00
0.00
0.00
0.01
0.00
0.00
0.01
0.01
0.01
0.01
0.01
0.01
0.01
0.03
0.01
0.01
0.03
0.03
0.03
0.03
0.05
0.03
0.05
0.05
0.05
0.03
0.03
0.05
0.03
0.01
0.01
0.01
0.09
0.05
0.18
0.28
0.40
0.30
0.15
0.03
0.00
0.00
0.05
0.04
0.04
0.05
0.08
0.08
0.04
0.01
0.69
0.27
0.61
0.64
0.64
0.60
0.43
0.27
0.25
0.15
0.11
0.08
0.08
0.05
0.05
0.04
0.04
0.00
0.00
0.00
0.00
0.00
0.00
0.01
0.01
0.00
0.01
0.04
0.05
0.09
0.11
0.25
0.20
0.25
0.25
0.25
0.15
0.09
0.01
0.00
0.01
0.01
0.01
0.05
0.03
0.03
0.03
0.03
0.03
0.05
0.05
0.09
0.05
0.05
0.05
0.09
0.09
0.03
0.09
0.10
0.09
0.09
0.05
0.09
0.15
0.15
0.10
0.09
0.10
0.15
0.09
0.15
0.09
0.09
0.10
0.19
0.30
0.30
0.30
0.64
0.57
0.51
0.37
0.18
0.18
0.03
0.09
0.05
0.01
0.03
0.03
0.05
0.19
0.42
0.70
0.56
0.60
0.62
0.59
0.57
0.01
0.08
0.01
0.04
0.00
0.00
0.01
0.04
0.04
0.01
0.00
0.00
0.01
0.01
0.00
0.00
0.01
0.08
0.04
0.04
0.05
0.05
0.09
0.15
0.11
0.15
0.11
0.11
0.11
0.08
0.00
0.00
0.01
0.01
0.01
0.05
0.09
0.05
0.09
0.09
0.10
0.05
0.05
0.09
0.05
0.09
0.10
0.09
0.03
0.10
0.05
0.09
0.10
0.09
0.05
0.15
0.10
0.15
0.10
0.05
0.09
0.09
0.10
0.09
0.05
0.09
0.10
0.24
0.19
0.33
0.33
0.58
0.47
0.40
0.28
0.05
0.09
0.01
0.01
0.00
0.00
0.00
0.00
0.01
0.01
0.79
0.57
0.62
0.63
0.62
0.59
0.11
0.11
0.04
0.05
0.01
0.00
0.00
0.00
0.00
0.00
0.00
0.01
0.01
0.00
0.01
0.01
0.01
0.01
0.01
0.01
0.00
0.00
0.00
0.05
0.08
0.09
0.11
0.20
0.20
0.25
0.11
0.05
0.01
0.00
0.00
0.01
0.01
0.01
0.01
0.01
0.01
0.01
0.01
0.01
0.01
0.01
0.01
0.01
0.01
0.01
0.01
0.01
0.01
0.01
0.01
0.01
0.01
0.01
0.01
0.01
0.01
0.01
0.01
0.01
0.01
0.09
0.10
0.18
0.18
0.51
0.33
0.24
0.10
0.01
0.01
0.00
0.00
0.00
0.01
0.04
0.05
0.09
0.05
0.57
0.19
0.60
0.66
0.64
0.60
0.56
0.20
0.15
0.11
0.09
0.08
0.09
0.05
0.05
0.05
0.05
0.05
0.05
0.04
0.01
0.01
0.01
0.01
0.00
0.00
0.01
0.04
0.05
0.09
0.11
0.15
0.20
0.27
0.27
0.25
0.27
0.20
0.11
0.04
0.04
0.00
0.01
0.00
0.00
0.00
0.00
0.00
0.00
0.00
0.01
0.00
0.01
0.01
0.01
0.01
0.01
0.01
0.01
0.01
0.03
0.01
0.03
0.01
0.03
0.03
0.05
0.03
0.01
0.03
0.05
0.18
0.15
0.28
0.24
0.57
0.42
0.33
0.15
0.01
0.01
0.00
0.01
0.01
0.01
0.04
0.04
0.05
0.01
0.57
0.01
0.58
0.61
0.65
0.58
0.53
0.20
0.15
0.11
0.09
0.05
0.05
0.05
0.04
0.04
0.05
0.04
0.01
0.01
0.01
0.01
0.01
0.05
0.05
0.08
0.09
0.09
0.15
0.20
0.27
0.34
0.31
0.28
0.25
0.28
0.08
0.05
0.01
0.00
0.00
0.01
0.01
0.01
0.03
0.01
0.01
0.01
0.01
0.01
0.01
0.01
0.01
0.03
0.01
0.01
0.09
0.01
0.01
0.03
0.01
0.03
0.03
0.01
0.01
0.03
0.01
0.01
0.01
0.01
0.03
0.24
0.09
0.19
0.47
0.46
0.51
0.37
0.15
0.03
0.01
0.01
0.01
0.00
0.01
0.00
0.08
0.01
0.00
0.76
0.58
0.60
0.60
0.62
0.57
0.15
0.15
0.05
0.08
0.04
0.00
0.01
0.00
0.08
0.01
0.01
0.01
0.04
0.00
0.01
0.01
0.04
0.01
0.04
0.00
0.08
0.00
0.09
0.05
0.09
0.11
0.09
0.09
0.09
0.11
0.08
0.05
0.01
0.00
0.00
0.01
0.00
0.01
0.00
0.00
0.04
0.09
0.01
0.00
0.01
0.00
0.24
0.04
0.08
0.01
0.03
0.08
0.00
0.01
0.04
0.00
0.00
0.01
0.00
0.01
0.01
0.01
0.01
0.01
0.10
0.33
0.37
0.24
0.28
0.15
0.01
0.01
0.05
0.01
0.05
0.09
0.01
0.11
0.42
0.33
0.37
0.62
0.65
0.66
0.66
0.64
0.58
0.37
0.42
0.42
0.37
0.34
0.34
0.25
0.48
0.28
0.34
0.09
0.25
0.11
0.25
0.15
0.08
0.04
0.01
0.01
0.01
0.00
0.00
0.00
0.00
0.04
0.00
0.08
0.01
0.15
0.20
0.01
0.01
0.04
0.01
0.01
0.01
0.01
0.00
0.00
0.00
0.01
0.03
0.05
0.01
0.03
0.01
0.09
0.03
0.01
0.08
0.10
0.05
0.05
0.01
0.01
0.00
0.00
0.04
0.05
0.09
0.01
0.01
0.05
0.05
0.19
0.60
0.05
0.30
0.00
0.08
0.05
0.15
0.00
0.20
0.00
0.20
0.01
0.00
0.04
0.68
0.61
0.65
0.65
0.64
0.57
0.08
0.40
0.05
0.15
0.08
0.05
0.04
0.04
0.00
0.08
0.00
0.01
0.00
0.11
0.04
0.00
0.00
0.01
0.04
0.10
0.25
0.01
0.27
0.05
0.27
0.01
0.15
0.28
0.27
0.34
0.05
0.25
0.08
0.09
0.05
0.01
0.04
0.00
0.01
0.08
0.00
0.09
0.00
0.00
0.00
0.00
0.00
0.00
0.00
0.01
0.00
0.01
0.01
0.01
0.01
0.01
0.01
0.15
0.00
0.05
0.37
0.01
0.19
0.15
0.37
0.28
0.15
0.24
0.11
0.01
0.00
0.00
0.01
0.08
0.08
0.01
0.08
0.05
0.46
0.01
0.65
0.65
0.65
0.59
0.56
0.08
0.34
0.08
0.00
0.01
0.04
0.37
0.03
0.01
0.04
0.01
0.01
0.18
0.03
0.00
0.10
0.01
0.40
0.15
0.01
0.25
0.37
0.25
0.28
0.28
0.28
0.47
0.20
0.34
0.40
0.28
0.18
0.40
0.00
0.47
0.05
0.20
0.05
0.01
0.04
0.09
0.05
0.00
0.04
0.09
0.09
0.00
0.03
0.11
0.05
0.04
0.03
0.01
0.01
0.01
0.00
0.04
0.01
0.01
0.03
0.03
0.10
0.30
0.33
0.33
0.03
0.04
0.01
0.11
0.00
0.00
0.00
0.20
0.01
0.01
0.09
0.28
0.18
0.63
0.65
0.66
0.59
0.53
0.11
0.27
0.08
0.09
0.09
0.08
0.01
0.08
0.08
0.05
0.01
0.09
0.01
0.05
0.05
0.09
0.11
0.08
0.09
0.01
0.31
0.27
0.08
0.27
0.20
0.37
0.27
0.09
0.34
0.11
0.04
0.01
0.01
0.01
0.01
0.00
0.01
0.01
0.09
0.01
0.01
0.01
0.01
0.03
0.01
0.15
0.01
0.01
0.01
0.01
0.00
0.01
0.01
0.01
0.01
0.01
0.10
0.10
0.01
0.24
0.37
0.51
0.33
0.24
0.10
0.01
0.01
0.09
0.01
0.01
0.01
0.01
0.01
0.09
0.01
0.79
0.57
0.58
0.59
0.64
0.58
0.20
0.20
0.04
0.01
0.05
0.00
0.00
0.01
0.01
0.05
0.01
0.01
0.01
0.00
0.00
0.00
0.00
0.05
0.01
0.05
0.08
0.08
0.20
0.20
0.25
0.28
0.25
0.31
0.25
0.15
0.08
0.09
0.00
0.01
0.01
0.01
0.05
0.01
0.01
0.01
0.01
0.03
0.01
0.01
0.05
0.01
0.03
0.01
0.05
0.03
0.03
0.03
0.01
0.15
0.05
0.15
0.09
0.37
0.19
0.28
0.37
0.60
0.55
0.37
0.28
0.03
0.18
0.01
0.01
0.03
0.01
0.10
0.01
0.01
0.05
0.68
0.01
0.57
0.60
0.65
0.57
0.40
0.09
0.05
0.05
0.04
0.05
0.04
0.01
0.01
0.05
0.04
0.00
0.05
0.01
0.00
0.05
0.00
0.01
0.04
0.08
0.08
0.09
0.09
0.20
0.27
0.25
0.28
0.20
0.25
0.25
0.01
0.00
0.00
0.01
0.01
0.01
0.01
0.01
0.01
0.01
0.01
0.03
0.01
0.01
0.01
0.03
0.01
0.01
0.01
0.01
0.00
0.03
0.01
0.01
0.01
0.01
0.01
0.03
0.10
0.10
0.19
0.57
0.33
0.30
0.15
0.01
0.01
0.00
0.01
0.01
0.00
0.01
0.00
0.01
0.18
0.51
0.67
0.58
0.63
0.66
0.59
0.48
0.09
0.09
0.05
0.08
0.01
0.01
0.04
0.00
0.01
0.01
0.00
0.04
0.00
0.01
0.01
0.00
0.04
0.04
0.05
0.04
0.09
0.09
0.20
0.20
0.27
0.25
0.25
0.25
0.11
0.15
0.00
0.00
0.01
0.01
0.01
0.01
0.03
0.03
0.01
0.01
0.01
0.01
0.03
0.01
0.03
0.09
0.05
0.10
0.03
0.10
0.05
0.05
0.09
0.03
0.01
0.05
0.15
0.19
0.19
0.19
0.57
0.42
0.42
0.15
0.01
0.05
0.01
0.01
0.01
0.01
0.01
0.01
0.01
0.15
0.64
0.05
0.58
0.63
0.65
0.58
0.34
0.15
0.09
0.05
0.05
0.04
0.05
0.04
0.01
0.01
0.01
0.01
0.01
0.00
0.00
0.01
0.00
0.01
0.04
0.09
0.09
0.15
0.11
0.25
0.27
0.28
0.28
0.27
0.27
0.11
0.09
0.05
0.01
0.00
0.00
0.01
0.00
0.01
0.01
0.01
0.00
0.01
0.01
0.01
0.01
0.01
0.01
0.03
0.01
0.09
0.01
0.01
0.03
0.01
0.01
0.01
0.01
0.03
0.15
0.01
0.24
0.40
0.42
0.40
0.28
0.05
0.03
0.01
0.01
0.00
0.00
0.00
0.01
0.00
0.01
0.00
0.72
0.57
0.58
0.59
0.63
0.59
0.27
0.25
0.09
0.11
0.08
0.05
0.04
0.05
0.11
0.08
0.05
0.05
0.08
0.05
0.09
0.04
0.08
0.09
0.09
0.09
0.15
0.11
0.20
0.27
0.20
0.25
0.25
0.20
0.11
0.09
0.05
0.04
0.00
0.00
0.00
0.01
0.01
0.01
0.01
0.01
0.01
0.01
0.01
0.01
0.00
0.01
0.01
0.01
0.01
0.00
0.01
0.01
0.01
0.01
0.03
0.01
0.03
0.09
0.15
0.03
0.30
0.42
0.57
0.40
0.40
0.15
0.05
0.05
0.01
0.00
0.01
0.00
0.05
0.08
0.04
0.08
0.57
0.57
0.63
0.62
0.64
0.59
0.40
0.20
0.09
0.09
0.01
0.04
0.01
0.01
0.01
0.00
0.00
0.00
0.00
0.00
0.01
0.01
0.01
0.01
0.01
0.01
0.00
0.00
0.00
0.04
0.04
0.05
0.08
0.09
0.11
0.05
0.08
0.01
0.01
0.01
0.01
0.01
0.01
0.01
0.01
0.01
0.01
0.01
0.01
0.01
0.01
0.01
0.01
0.00
0.00
0.01
0.00
0.00
0.00
0.00
0.01
0.00
0.01
0.00
0.00
0.01
0.03
0.10
0.03
0.37
0.24
0.18
0.01
0.00
0.01
0.04
0.01
0.00
0.04
0.01
0.05
0.09
0.15
0.55
0.46
0.59
0.65
0.65
0.59
0.53
0.20
0.11
0.09
0.05
0.08
0.04
0.08
0.05
0.04
0.04
0.01
0.00
0.00
0.00
0.01
0.00
0.01
0.01
0.01
0.01
0.00
0.01
0.00
0.04
0.05
0.08
0.15
0.20
0.20
0.11
0.08
0.04
0.00
0.00
0.01
0.01
0.01
0.01
0.01
0.01
0.01
0.00
0.01
0.01
0.01
0.01
0.01
0.01
0.01
0.01
0.01
0.01
0.03
0.03
0.01
0.03
0.01
0.05
0.05
0.24
0.15
0.28
0.40
0.47
0.46
0.33
0.15
0.01
0.01
0.01
0.03
0.01
0.01
0.01
0.01
0.01
0.03
0.75
0.56
0.60
0.63
0.65
0.58
0.28
0.25
0.15
0.20
0.09
0.05
0.05
0.05
0.08
0.08
0.05
0.01
0.01
0.00
0.01
0.01
0.00
0.01
0.01
0.04
0.05
0.08
0.09
0.15
0.25
0.25
0.25
0.25
0.20
0.25
0.15
0.08
0.05
0.01
0.04
0.00
0.00
0.01
0.01
0.01
0.00
0.00
0.00
0.01
0.00
0.01
0.01
0.01
0.01
0.01
0.01
0.01
0.03
0.01
0.05
0.03
0.01
0.05
0.05
0.03
0.10
0.18
0.09
0.19
0.30
0.40
0.28
0.24
0.05
0.00
0.00
0.01
0.00
0.04
0.15
0.04
0.08
0.11
0.00
0.60
0.25
0.61
0.62
0.66
0.58
0.51
0.25
0.25
0.15
0.15
0.08
0.05
0.09
0.05
0.05
0.09
0.05
0.04
0.04
0.04
0.04
0.08
0.00
0.08
0.05
0.05
0.11
0.11
0.20
0.20
0.25
0.15
0.20
0.20
0.09
0.08
0.04
0.04
0.01
0.01
0.00
0.00
0.01
0.01
0.01
0.01
0.00
0.01
0.01
0.01
0.00
0.00
0.00
0.00
0.01
0.01
0.01
0.00
0.01
0.01
0.01
0.01
0.01
0.00
0.01
0.01
0.09
0.09
0.15
0.10
0.51
0.46
0.40
0.24
0.05
0.09
0.01
0.01
0.01
0.00
0.01
0.04
0.15
0.01
0.19
0.10
0.63
0.63
0.65
0.58
0.57
0.11
0.20
0.11
0.09
0.08
0.09
0.09
0.08
0.08
0.09
0.09
0.09
0.08
0.05
0.04
0.05
0.05
0.01
0.01
0.00
0.01
0.05
0.01
0.04
0.01
0.04
0.08
0.04
0.08
0.00
0.01
0.00
0.00
0.00
0.01
0.01
0.00
0.01
0.00
0.01
0.01
0.00
0.01
0.00
0.01
0.00
0.00
0.01
0.00
0.01
0.01
0.00
0.01
0.00
0.00
0.00
0.00
0.04
0.01
0.00
0.00
0.01
0.01
0.05
0.09
0.42
0.24
0.18
0.03
0.00
0.01
0.04
0.04
0.04
0.05
0.08
0.09
0.11
0.05
0.57
0.09
0.61
0.66
0.65
0.59
0.43
0.11
0.09
0.08
0.04
0.00
0.00
0.01
0.00
0.00
0.00
0.00
0.00
0.01
0.01
0.01
0.03
0.03
0.01
0.05
0.09
0.03
0.01
0.01
0.01
0.01
0.00
0.01
0.04
0.04
0.00
0.00
0.01
0.01
0.05
0.03
0.05
0.03
0.03
0.01
0.03
0.03
0.01
0.01
0.01
0.05
0.01
0.03
0.01
0.05
0.03
0.01
0.05
0.03
0.01
0.01
0.01
0.01
0.01
0.01
0.01
0.01
0.05
0.01
0.10
0.28
0.33
0.24
0.10
0.01
0.01
0.00
0.00
0.01
0.00
0.00
0.01
0.00
0.01
0.01
0.80
0.57
0.60
0.61
0.65
0.59
0.15
0.11
0.05
0.08
0.01
0.01
0.00
0.01
0.00
0.00
0.01
0.01
0.01
0.01
0.01
0.01
0.01
0.01
0.01
0.01
0.01
0.00
0.01
0.05
0.08
0.15
0.11
0.20
0.20
0.15
0.09
0.08
0.01
0.04
0.00
0.00
0.01
0.01
0.00
0.00
0.00
0.00
0.00
0.00
0.00
0.01
0.00
0.01
0.00
0.01
0.01
0.01
0.05
0.03
0.05
0.05
0.15
0.05
0.09
0.05
0.09
0.05
0.18
0.19
0.18
0.18
0.55
0.40
0.47
0.19
0.09
0.03
0.01
0.03
0.01
0.01
0.01
0.01
0.00
0.09
0.01
0.80
0.58
0.60
0.60
0.60
0.58
0.15
0.08
0.04
0.00
0.01
0.04
0.00
0.00
0.00
0.01
0.01
0.04
0.01
0.00
0.05
0.04
0.01
0.04
0.01
0.01
0.08
0.04
0.09
0.01
0.09
0.15
0.11
0.11
0.09
0.05
0.04
0.01
0.00
0.00
0.01
0.01
0.01
0.01
0.01
0.01
0.01
0.01
0.01
0.01
0.05
0.01
0.01
0.05
0.05
0.05
0.03
0.03
0.03
0.09
0.05
0.10
0.03
0.09
0.05
0.15
0.05
0.05
0.18
0.15
0.30
0.18
0.57
0.46
0.46
0.33
0.09
0.05
0.01
0.01
0.01
0.00
0.01
0.00
0.15
0.05
0.19
0.55
0.62
0.64
0.65
0.58
0.57
0.04
0.09
0.01
0.01
0.00
0.01
0.00
0.00
0.01
0.00
0.00
0.01
0.01
0.01
0.01
0.03
0.01
0.03
0.01
0.01
0.03
0.03
0.03
0.01
0.01
0.01
0.01
0.00
0.00
0.00
0.00
0.00
0.00
0.01
0.01
0.01
0.01
0.01
0.01
0.00
0.00
0.00
0.00
0.01
0.00
0.08
0.00
0.04
0.04
0.01
0.04
0.04
0.04
0.01
0.01
0.01
0.00
0.00
0.01
0.05
0.05
0.00
0.01
0.01
0.01
0.18
0.03
0.03
0.01
0.09
0.15
0.31
0.27
0.34
0.37
0.42
0.43
0.52
0.20
0.25
0.61
0.63
0.64
0.64
0.66
0.61
0.52
0.52
0.51
0.40
0.42
0.37
0.28
0.28
0.27
0.25
0.25
0.11
0.08
0.08
0.08
0.04
0.01
0.00
0.00
0.01
0.00
0.00
0.00
0.01
0.04
0.05
0.08
0.09
0.09
0.09
0.05
0.05
0.04
0.00
0.01
0.01
0.00
0.00
0.01
0.01
0.00
0.01
0.01
0.01
0.01
0.01
0.01
0.01
0.01
0.01
0.01
0.00
0.01
0.01
0.01
0.01
0.00
0.01
0.01
0.01
0.03
0.09
0.03
0.10
0.42
0.30
0.28
0.10
0.01
0.00
0.05
0.05
0.00
0.05
0.04
0.08
0.11
0.01
0.01
0.72
0.59
0.64
0.64
0.60
0.58
0.25
0.28
0.20
0.20
0.11
0.11
0.11
0.08
0.04
0.05
0.01
0.04
0.01
0.00
0.00
0.01
0.00
0.00
0.01
0.01
0.05
0.05
0.09
0.11
0.25
0.20
0.27
0.28
0.20
0.15
0.09
0.08
0.05
0.05
0.04
0.00
0.00
0.04
0.01
0.00
0.01
0.00
0.00
0.01
0.00
0.01
0.00
0.00
0.01
0.01
0.01
0.01
0.01
0.01
0.01
0.05
0.01
0.01
0.01
0.01
0.01
0.00
0.01
0.01
0.01
0.09
0.09
0.33
0.19
0.15
0.01
0.00
0.00
0.04
0.08
0.05
0.09
0.09
0.20
0.11
0.05
0.60
0.56
0.62
0.62
0.65
0.60
0.42
0.34
0.25
0.20
0.11
0.15
0.15
0.09
0.08
0.09
0.09
0.11
0.11
0.09
0.04
0.09
0.08
0.11
0.15
0.09
0.09
0.15
0.15
0.25
0.11
0.27
0.28
0.25
0.25
0.20
0.20
0.15
0.15
0.05
0.05
0.01
0.04
0.05
0.04
0.01
0.01
0.05
0.05
0.04
0.01
0.05
0.04
0.04
0.05
0.04
0.00
0.04
0.00
0.01
0.01
0.00
0.00
0.01
0.00
0.00
0.01
0.01
0.01
0.01
0.15
0.24
0.37
0.37
0.15
0.09
0.01
0.01
0.00
0.11
0.08
0.09
0.15
0.25
0.05
0.08
0.64
0.58
0.66
0.65
0.64
0.60
0.42
0.40
0.27
0.20
0.20
0.20
0.11
0.15
0.09
0.08
0.05
0.04
0.04
0.01
0.04
0.01
0.00
0.00
0.01
0.01
0.01
0.01
0.01
0.00
0.01
0.01
0.09
0.09
0.15
0.09
0.09
0.11
0.09
0.08
0.08
0.04
0.05
0.04
0.04
0.01
0.01
0.01
0.05
0.01
0.01
0.00
0.00
0.01
0.01
0.01
0.00
0.00
0.01
0.01
0.00
0.00
0.00
0.00
0.01
0.00
0.01
0.01
0.01
0.01
0.18
0.15
0.15
0.01
0.01
0.05
0.05
0.05
0.08
0.11
0.11
0.11
0.15
0.01
0.00
0.79
0.59
0.66
0.65
0.65
0.59
0.28
0.34
0.27
0.25
0.20
0.11
0.11
0.15
0.11
0.11
0.11
0.08
0.05
0.08
0.04
0.01
0.01
0.00
0.00
0.01
0.00
0.00
0.01
0.05
0.08
0.09
0.11
0.20
0.11
0.09
0.09
0.04
0.05
0.03
0.01
0.00
0.01
0.01
0.00
0.01
0.00
0.01
0.01
0.11
0.69
0.01
0.01
0.00
0.00
0.01
0.01
0.01
0.01
0.01
0.01
0.09
0.01
0.08
0.69
0.31
0.24
0.18
0.00
0.24
0.01
0.18
0.70
0.37
0.37
0.03
0.15
0.01
0.11
0.15
0.15
0.10
0.11
0.03
0.25
0.60
0.19
0.09
0.60
0.66
0.66
0.58
0.40
0.20
0.00
0.15
0.18
0.27
0.01
0.00
0.28
0.01
0.03
0.01
0.03
0.08
0.24
0.05
0.24
0.15
0.03
0.05
0.10
0.05
0.05
0.01
0.15
0.09
0.01
0.31
0.05
0.01
0.01
0.01
0.03
0.18
0.09
0.33
0.00
0.01
0.15
0.18
0.30
0.01
0.09
0.28
0.01
0.15
0.18
0.33
0.03
0.10
0.30
0.18
0.19
0.51
0.09
0.09
0.24
0.33
0.05
0.15
0.15
0.24
0.09
0.28
0.28
0.30
0.30
0.37
0.58
0.63
0.42
0.57
0.28
0.24
0.09
0.37
0.01
0.40
0.05
0.03
0.04
0.33
0.57
0.47
0.60
0.60
0.62
0.57
0.27
0.01
0.03
0.64
0.27
0.18
0.05
0.01
0.24
0.69
0.20
0.01
0.40
0.09
0.00
0.69
0.01
0.01
0.61
0.19
0.01
0.01
0.01
0.00
0.10
0.01
0.05
0.55
0.42
0.61
0.09
0.01
0.01
0.15
0.03
0.01
0.09
0.01
0.03
0.01
0.33
0.01
0.40
0.01
0.01
0.15
0.30
0.00
0.19
0.19
0.01
0.00
0.10
0.18
0.01
0.24
0.09
0.18
0.19
0.33
0.37
0.09
0.19
0.74
0.09
0.37
0.62
0.58
0.62
0.60
0.40
0.28
0.30
0.58
0.05
0.10
0.24
0.05
0.01
0.58
0.40
0.69
0.62
0.64
0.65
0.58
0.57
0.05
0.01
0.42
0.00
0.10
0.18
0.01
0.09
0.57
0.01
0.42
0.01
0.18
0.28
0.28
0.58
0.03
0.24
0.42
0.30
0.15
0.42
0.01
0.05
0.37
0.05
0.01
0.11
0.10
0.09
0.15
0.40
0.27
0.18
0.01
0.10
0.09
0.01
0.69
0.01
0.05
0.30
0.43
0.70
0.27
0.18
0.24
0.28
0.48
0.90
0.58
0.60
0.01
0.19
0.03
0.01
0.63
0.15
0.01
0.40
0.03
0.18
0.55
0.01
0.51
0.33
0.47
0.15
0.01
0.01
0.01
0.01
0.01
0.01
0.30
0.56
0.10
0.01
0.33
0.48
0.65
0.65
0.65
0.58
0.34
0.08
0.01
0.01
0.00
0.01
0.00
0.00
0.05
0.01
0.01
0.00
0.00
0.01
0.00
0.01
0.01
0.00
0.01
0.00
0.01
0.01
0.04
0.01
0.11
0.25
0.08
0.40
0.28
0.20
0.28
0.28
0.00
0.28
0.05
0.11
0.08
0.20
0.04
0.11
0.11
0.08
0.08
0.08
0.05
0.05
0.01
0.09
0.00
0.04
0.00
0.01
0.01
0.09
0.01
0.01
0.03
0.01
0.01
0.03
0.00
0.18
0.01
0.19
0.40
0.24
0.24
0.03
0.00
0.01
0.04
0.05
0.01
0.05
0.11
0.08
0.09
0.01
0.01
0.75
0.61
0.66
0.62
0.63
0.57
0.37
0.31
0.27
0.20
0.20
0.28
0.20
0.20
0.11
0.25
0.15
0.20
0.15
0.09
0.11
0.11
0.11
0.05
0.15
0.20
0.15
0.20
0.34
0.15
0.31
0.40
0.28
0.31
0.31
0.27
0.25
0.15
0.27
0.01
0.09
0.04
0.08
0.04
0.08
0.00
0.05
0.08
0.04
0.08
0.00
0.08
0.04
0.08
0.01
0.05
0.00
0.01
0.00
0.01
0.00
0.00
0.00
0.01
0.01
0.01
0.01
0.01
0.28
0.37
0.19
0.10
0.00
0.01
0.00
0.05
0.09
0.05
0.09
0.11
0.08
0.09
0.01
0.62
0.57
0.60
0.60
0.65
0.58
0.47
0.37
0.25
0.20
0.25
0.11
0.15
0.25
0.11
0.25
0.05
0.08
0.15
0.20
0.11
0.11
0.09
0.08
0.11
0.11
0.11
0.28
0.15
0.34
0.28
0.37
0.40
0.42
0.40
0.27
0.20
0.11
0.04
0.09
0.05
0.00
0.01
0.04
0.01
0.01
0.05
0.01
0.09
0.01
0.09
0.01
0.01
0.05
0.01
0.00
0.01
0.01
0.00
0.01
0.01
0.01
0.00
0.01
0.01
0.01
0.01
0.09
0.01
0.37
0.19
0.15
0.01
0.01
0.01
0.05
0.09
0.00
0.08
0.11
0.15
0.11
0.00
0.30
0.15
0.60
0.62
0.65
0.59
0.57
0.34
0.28
0.31
0.11
0.28
0.15
0.15
0.25
0.11
0.15
0.27
0.11
0.11
0.27
0.09
0.20
0.25
0.25
0.31
0.25
0.37
0.31
0.40
0.37
0.40
0.43
0.37
0.40
0.28
0.15
0.15
0.08
0.01
0.04
0.01
0.01
0.01
0.00
0.00
0.00
0.04
0.00
0.00
0.01
0.01
0.01
0.00
0.00
0.01
0.01
0.00
0.01
0.00
0.00
0.00
0.00
0.01
0.00
0.01
0.01
0.01
0.15
0.10
0.37
0.19
0.18
0.01
0.01
0.01
0.01
0.01
0.05
0.08
0.09
0.15
0.27
0.08
0.40
0.05
0.62
0.65
0.65
0.61
0.57
0.43
0.43
0.31
0.34
0.34
0.31
0.27
0.31
0.25
0.25
0.20
0.15
0.15
0.25
0.15
0.11
0.09
0.20
0.11
0.25
0.27
0.27
0.40
0.37
0.34
0.31
0.34
0.34
0.20
0.25
0.15
0.15
0.08
0.05
0.08
0.01
0.00
0.08
0.05
0.08
0.04
0.05
0.04
0.05
0.00
0.01
0.00
0.00
0.01
0.01
0.00
0.01
0.01
0.01
0.01
0.01
0.01
0.01
0.01
0.01
0.09
0.10
0.15
0.19
0.28
0.51
0.42
0.33
0.18
0.03
0.05
0.01
0.01
0.01
0.01
0.01
0.01
0.09
0.01
0.24
0.33
0.64
0.65
0.65
0.59
0.57
0.20
0.25
0.09
0.09
0.05
0.05
0.01
0.04
0.04
0.00
0.00
0.01
0.01
0.01
0.01
0.01
0.01
0.01
0.01
0.01
0.01
0.01
0.01
0.04
0.04
0.08
0.05
0.09
0.09
0.08
0.04
0.01
0.00
0.00
0.01
0.01
0.00
0.01
0.01
0.01
0.01
0.01
0.01
0.00
0.01
0.01
0.01
0.01
0.01
0.01
0.01
0.01
0.03
0.01
0.03
0.01
0.01
0.05
0.01
0.03
0.03
0.15
0.24
0.10
0.18
0.57
0.37
0.37
0.24
0.01
0.03
0.01
0.01
0.01
0.01
0.01
0.00
0.00
0.19
0.19
0.81
0.59
0.65
0.63
0.61
0.57
0.05
0.11
0.04
0.04
0.01
0.00
0.00
0.00
0.00
0.00
0.00
0.01
0.01
0.01
0.01
0.01
0.01
0.03
0.01
0.01
0.01
0.01
0.01
0.04
0.01
0.05
0.09
0.11
0.11
0.08
0.04
0.01
0.00
0.01
0.01
0.00
0.01
0.00
0.01
0.00
0.01
0.01
0.01
0.00
0.01
0.01
0.01
0.01
0.01
0.01
0.01
0.01
0.01
0.01
0.01
0.03
0.03
0.01
0.03
0.01
0.01
0.03
0.01
0.01
0.09
0.18
0.18
0.18
0.51
0.37
0.37
0.10
0.03
0.01
0.01
0.01
0.01
0.01
0.00
0.01
0.00
0.30
0.19
0.81
0.58
0.63
0.63
0.61
0.57
0.05
0.08
