0.01
0.02
0.01
0.03
0.03
0.03
0.02
0.04
0.03
0.03
0.03
0.03
0.03
0.02
0.02
0.01
0.02
0.00
0.01
0.00
0.00
0.00
0.00
0.00
0.03
0.07
0.03
0.14
0.27
0.32
0.14
0.14
0.03
0.11
0.16
0.09
0.10
0.09
0.13
0.11
0.13
0.05
0.22
0.72
0.51
0.77
0.79
0.66
0.54
0.35
0.13
0.16
0.09
0.10
0.03
0.05
0.09
0.03
0.01
0.01
0.01
0.00
0.00
0.00
0.00
0.00
0.01
0.00
0.05
0.05
0.13
0.13
0.14
0.19
0.19
0.28
0.23
0.23
0.18
0.18
0.11
0.10
0.03
0.09
0.01
0.00
0.01
0.01
0.01
0.03
0.05
0.01
0.03
0.00
0.01
0.00
0.03
0.05
0.01
0.01
0.01
0.01
0.00
0.01
0.03
0.03
0.01
0.05
0.00
0.03
0.03
0.05
0.05
0.01
0.00
0.02
0.02
0.03
0.06
0.42
0.20
0.31
0.07
0.01
0.09
0.11
0.09
0.09
0.13
0.13
0.11
0.18
0.07
0.45
0.72
0.57
0.76
0.64
0.57
0.55
0.11
0.14
0.03
0.03
0.01
0.01
0.00
0.02
0.03
0.03
0.03
0.06
0.04
0.06
0.06
0.09
0.06
0.09
0.07
0.07
0.07
0.04
0.03
0.01
0.00
0.01
0.01
0.03
0.01
0.03
0.00
0.00
0.01
0.02
0.03
0.03
0.03
0.03
0.03
0.06
0.03
0.04
0.03
0.04
0.03
0.06
0.03
0.07
0.03
0.04
0.06
0.06
0.04
0.06
0.06
0.04
0.04
0.06
0.06
0.06
0.06
0.04
0.04
0.03
0.04
0.00
0.00
0.34
0.62
0.45
0.61
0.72
0.84
0.93
0.97
0.97
0.97
0.95
0.97
0.97
0.99
0.97
0.95
0.65
0.07
0.21
0.49
0.51
0.54
0.56
0.58
0.57
0.57
0.58
0.57
0.56
0.58
0.63
0.68
0.75
0.79
0.82
0.85
0.85
0.86
0.86
0.86
0.84
0.82
0.75
0.63
0.57
0.58
0.51
0.43
0.28
0.16
0.10
0.09
0.05
0.05
0.03
0.03
0.03
0.05
0.03
0.03
0.03
0.03
0.05
0.01
0.03
0.03
0.03
0.01
0.05
0.01
0.03
0.00
0.00
0.00
0.00
0.00
0.00
0.00
0.01
0.00
0.00
0.01
0.00
0.03
0.00
0.01
0.00
0.03
0.00
0.03
0.03
0.00
0.01
0.00
0.03
0.04
0.09
0.07
0.41
0.22
0.09
0.03
0.11
0.11
0.13
0.10
0.09
0.13
0.11
0.13
0.14
0.20
0.46
0.70
0.64
0.85
0.63
0.56
0.51
0.10
0.09
0.03
0.03
0.00
0.02
0.03
0.02
0.06
0.04
0.07
0.09
0.20
0.09
0.20
0.20
0.20
0.14
0.22
0.20
0.09
0.07
0.03
0.03
0.00
0.01
0.03
0.03
0.09
0.09
0.10
0.05
0.03
0.01
0.00
0.01
0.00
0.00
0.00
0.00
0.00
0.03
0.00
0.03
0.00
0.01
0.00
0.00
0.00
0.00
0.00
0.00
0.01
0.00
0.00
0.01
0.05
0.03
0.09
0.05
0.10
0.10
0.11
0.11
0.09
0.05
0.00
0.01
0.01
0.03
0.31
0.17
0.07
0.02
0.11
0.16
0.16
0.11
0.11
0.16
0.14
0.14
0.13
0.03
0.27
0.82
0.57
0.83
0.78
0.72
0.58
0.21
0.10
0.09
0.03
0.01
0.02
0.00
0.03
0.03
0.03
0.03
0.04
0.04
0.06
0.04
0.07
0.07
0.06
0.06
0.07
0.06
0.02
0.01
0.03
0.05
0.13
0.11
0.18
0.14
0.13
0.10
0.05
0.01
0.00
0.01
0.01
0.01
0.03
0.01
0.03
0.02
0.03
0.01
0.03
0.03
0.03
0.02
0.03
0.03
0.02
0.03
0.03
0.04
0.03
0.06
0.03
0.04
0.03
0.04
0.00
0.10
0.05
0.31
0.09
0.53
0.09
0.55
0.57
0.58
0.03
0.72
0.90
0.97
0.97
0.97
0.92
0.82
0.01
0.49
0.09
0.02
0.14
0.28
0.35
0.33
0.33
0.33
0.43
0.43
0.48
0.48
0.50
0.51
0.55
0.53
0.57
0.58
0.58
0.57
0.58
0.57
0.54
0.51
0.44
0.33
0.16
0.09
0.00
0.00
0.00
0.00
0.01
0.00
0.03
0.01
0.00
0.00
0.03
0.01
0.00
0.00
0.00
0.00
0.01
0.00
0.00
0.01
0.01
0.01
0.03
0.01
0.01
0.03
0.01
0.05
0.03
0.03
0.03
0.03
0.01
0.09
0.05
0.03
0.05
0.05
0.09
0.05
0.09
0.10
0.11
0.09
0.10
0.09
0.10
0.05
0.10
0.09
0.05
0.05
0.09
0.03
0.05
0.09
0.03
0.05
0.05
0.09
0.01
0.03
0.03
0.01
0.06
0.06
0.38
0.17
0.06
0.03
0.11
0.11
0.16
0.11
0.14
0.14
0.18
0.16
0.11
0.14
0.68
0.48
0.63
0.67
0.63
0.57
0.43
0.13
0.10
0.05
0.01
0.00
0.01
0.02
0.04
0.04
0.04
0.07
0.07
0.14
0.09
0.20
0.17
0.20
0.14
0.22
0.14
0.17
0.09
0.14
0.06
0.04
0.03
0.03
0.02
0.00
0.00
0.01
0.01
0.01
0.00
0.00
0.03
0.03
0.06
0.04
0.06
0.06
0.04
0.06
0.06
0.09
0.07
0.09
0.07
0.14
0.07
0.14
0.00
0.27
0.32
0.46
0.20
0.05
0.57
0.51
0.62
0.78
0.89
0.96
0.96
0.97
0.97
0.93
0.06
0.22
0.11
0.02
0.03
0.04
0.10
0.09
0.19
0.33
0.45
0.48
0.49
0.49
0.51
0.53
0.54
0.56
0.57
0.57
0.57
0.57
0.57
0.57
0.58
0.53
0.51
0.47
0.33
0.16
0.09
0.00
0.01
0.03
0.02
0.03
0.02
0.03
0.02
0.03
0.03
0.03
0.03
0.03
0.03
0.02
0.03
0.03
0.03
0.01
0.02
0.02
0.00
0.01
0.02
0.02
0.01
0.02
0.00
0.01
0.00
0.01
0.00
0.00
0.01
0.00
0.00
0.00
0.00
0.00
0.01
0.01
0.01
0.00
0.00
0.01
0.01
0.00
0.00
0.00
0.01
0.00
0.01
0.00
0.00
0.01
0.00
0.03
0.00
0.02
0.01
0.01
0.01
0.03
0.01
0.02
0.03
0.09
0.06
0.17
0.45
0.34
0.32
0.09
0.02
0.05
0.05
0.10
0.03
0.10
0.10
0.11
0.18
0.06
0.22
0.78
0.59
0.82
0.62
0.57
0.54
0.11
0.14
0.10
0.05
0.00
0.00
0.01
0.03
0.03
0.03
0.03
0.06
0.06
0.07
0.07
0.07
0.07
0.07
0.07
0.04
0.03
0.03
0.02
0.01
0.00
0.00
0.03
0.09
0.09
0.16
0.16
0.19
0.11
0.13
0.10
0.09
0.03
0.03
0.00
0.00
0.00
0.00
0.00
0.00
0.00
0.01
0.00
0.01
0.00
0.02
0.01
0.01
0.02
0.02
0.01
0.00
0.03
0.01
0.00
0.00
0.01
0.01
0.00
0.01
0.01
0.05
0.01
0.01
0.03
0.02
0.03
0.32
0.09
0.09
0.00
0.14
0.18
0.16
0.13
0.14
0.16
0.14
0.18
0.21
0.09
0.42
0.74
0.66
0.85
0.63
0.62
0.56
0.14
0.16
0.14
0.11
0.09
0.09
0.03
0.03
0.05
0.03
0.03
0.03
0.03
0.01
0.05
0.01
0.05
0.01
0.05
0.10
0.11
0.14
0.19
0.28
0.23
0.31
0.31
0.37
0.29
0.29
0.23
0.18
0.14
0.14
0.10
0.09
0.09
0.10
0.09
0.03
0.10
0.05
0.05
0.05
0.10
0.03
0.05
0.09
0.09
0.05
0.05
0.05
0.03
0.09
0.05
0.10
0.05
0.10
0.10
0.14
0.11
0.13
0.13
0.11
0.10
0.13
0.14
0.10
0.11
0.00
0.03
0.02
0.03
0.20
0.09
0.03
0.03
0.14
0.14
0.21
0.16
0.16
0.18
0.21
0.21
0.28
0.06
0.46
0.65
0.63
0.78
0.62
0.57
0.53
0.21
0.18
0.19
0.14
0.13
0.11
0.11
0.11
0.03
0.05
0.05
0.01
0.01
0.05
0.00
0.03
0.01
0.01
0.00
0.05
0.05
0.11
0.11
0.14
0.19
0.19
0.21
0.18
0.21
0.14
0.14
0.13
0.11
0.05
0.03
0.03
0.00
0.00
0.00
0.01
0.00
0.00
0.00
0.00
0.01
0.01
0.00
0.03
0.01
0.02
0.01
0.01
0.00
0.01
0.01
0.02
0.00
0.01
0.00
0.00
0.01
0.00
0.00
0.01
0.01
0.01
0.00
0.05
0.00
0.00
0.06
0.01
0.14
0.27
0.22
0.14
0.04
0.03
0.16
0.10
0.13
0.11
0.10
0.13
0.13
0.13
0.03
0.32
0.72
0.51
0.78
0.79
0.70
0.57
0.33
0.05
0.05
0.01
0.02
0.00
0.03
0.03
0.04
0.06
0.06
0.07
0.06
0.17
0.09
0.20
0.20
0.27
0.20
0.27
0.20
0.20
0.14
0.07
0.03
0.02
0.00
0.03
0.03
0.10
0.01
0.01
0.00
0.00
0.03
0.02
0.03
0.03
0.03
0.03
0.01
0.02
0.03
0.03
0.02
0.04
0.03
0.06
0.04
0.04
0.04
0.04
0.06
0.04
0.03
0.03
0.03
0.03
0.03
0.03
0.04
0.03
0.04
0.03
0.04
0.03
0.06
0.03
0.03
0.03
0.03
0.02
0.01
0.03
0.03
0.17
0.04
0.27
0.14
0.46
0.17
0.09
0.02
0.13
0.10
0.09
0.05
0.03
0.03
0.09
0.03
0.05
0.45
0.55
0.76
0.69
0.86
0.63
0.56
0.50
0.01
0.00
0.00
0.03
0.03
0.06
0.06
0.09
0.06
0.17
0.14
0.17
0.17
0.22
0.22
0.20
0.22
0.22
0.20
0.17
0.17
0.06
0.04
0.01
0.00
0.05
0.05
0.09
0.10
0.09
0.03
0.00
0.00
0.03
0.03
0.03
0.03
0.04
0.03
0.04
0.04
0.03
0.04
0.04
0.06
0.07
0.07
0.09
0.14
0.09
0.14
0.17
0.14
0.09
0.17
0.09
0.07
0.06
0.06
0.06
0.03
0.06
0.03
0.04
0.02
0.03
0.03
0.03
0.02
0.02
0.02
0.00
0.01
0.01
0.01
0.01
0.02
0.06
0.09
0.04
0.22
0.27
0.34
0.09
0.06
0.03
0.11
0.10
0.09
0.09
0.09
0.05
0.10
0.05
0.01
0.41
0.74
0.51
0.79
0.79
0.71
0.58
0.23
0.05
0.03
0.00
0.02
0.02
0.04
0.03
0.04
0.06
0.07
0.07
0.09
0.17
0.09
0.14
0.14
0.20
0.14
0.17
0.09
0.07
0.03
0.02
0.01
0.05
0.10
0.13
0.14
0.16
0.10
0.10
0.03
0.01
0.00
0.00
0.00
0.02
0.02
0.00
0.01
0.00
0.00
0.01
0.00
0.02
0.03
0.03
0.03
0.03
0.02
0.03
0.03
0.02
0.02
0.03
0.03
0.02
0.03
0.02
0.02
0.02
0.03
0.01
0.02
0.00
0.02
0.00
0.00
0.02
0.01
0.00
0.01
0.00
0.01
0.00
0.00
0.01
0.03
0.01
0.01
0.03
0.00
0.04
0.02
0.04
0.04
0.32
0.09
0.02
0.01
0.16
0.16
0.16
0.10
0.11
0.13
0.16
0.14
0.19
0.22
0.54
0.61
0.63
0.82
0.60
0.57
0.50
0.13
0.14
0.11
0.10
0.03
0.03
0.00
0.00
0.01
0.00
0.02
0.01
0.02
0.00
0.02
0.01
0.01
0.01
0.01
0.05
0.10
0.18
0.19
0.28
0.35
0.35
0.40
0.37
0.35
0.35
0.35
0.23
0.23
0.21
0.14
0.14
0.14
0.13
0.11
0.11
0.11
0.10
0.10
0.10
0.05
0.05
0.00
0.05
0.01
0.03
0.03
0.05
0.03
0.03
0.05
0.09
0.05
0.09
0.09
0.03
0.03
0.03
0.05
0.03
0.05
0.05
0.09
0.03
0.09
0.01
0.01
0.01
0.01
0.00
0.03
0.01
0.02
0.06
0.03
0.09
0.07
0.32
0.06
0.03
0.00
0.16
0.13
0.13
0.11
0.14
0.11
0.11
0.14
0.10
0.14
0.66
0.28
0.64
0.70
0.63
0.57
0.40
0.14
0.13
0.13
0.09
0.05
0.09
0.03
0.03
0.05
0.03
0.01
0.03
0.03
0.01
0.01
0.03
0.00
0.00
0.00
0.03
0.01
0.09
0.11
0.16
0.18
0.23
0.28
0.23
0.25
0.19
0.19
0.13
0.11
0.09
0.05
0.01
0.03
0.00
0.00
0.02
0.01
0.01
0.03
0.03
0.03
0.03
0.06
0.03
0.04
0.03
0.04
0.02
0.03
0.01
0.02
0.02
0.01
0.00
0.01
0.00
0.00
0.02
0.00
0.00
0.01
0.01
0.00
0.03
0.01
0.02
0.00
0.00
0.00
0.00
0.01
0.00
0.02
0.01
0.00
0.00
0.04
0.04
0.04
0.14
0.27
0.20
0.03
0.01
0.11
0.18
0.13
0.11
0.11
0.10
0.11
0.09
0.11
0.17
0.27
0.84
0.57
0.82
0.70
0.71
0.54
0.11
0.00
0.03
0.02
0.03
0.03
0.03
0.06
0.03
0.09
0.07
0.09
0.09
0.17
0.17
0.20
0.22
0.27
0.27
0.22
0.20
0.09
0.14
0.03
0.03
0.01
0.03
0.09
0.10
0.10
0.10
0.05
0.03
0.00
0.02
0.03
0.02
0.06
0.03
0.04
0.03
0.06
0.03
0.06
0.03
0.07
0.06
0.06
0.07
0.06
0.06
0.06
0.09
0.04
0.06
0.06
0.06
0.03
0.06
0.03
0.03
0.03
0.02
0.03
0.02
0.03
0.02
0.03
0.01
0.03
0.02
0.03
0.00
0.02
0.01
0.01
0.03
0.01
0.02
0.00
0.01
0.00
0.00
0.00
0.00
0.00
0.00
0.00
0.03
0.04
0.03
0.06
0.22
0.09
0.02
0.00
0.18
0.16
0.21
0.14
0.14
0.13
0.14
0.14
0.13
0.06
0.17
0.82
0.56
0.82
0.63
0.64
0.54
0.10
0.05
0.09
0.00
0.00
0.03
0.02
0.03
0.03
0.06
0.04
0.06
0.07
0.09
0.09
0.07
0.17
0.09
0.14
0.07
0.09
0.03
0.04
0.00
0.01
0.10
0.09
0.14
0.14
0.14
0.11
0.09
0.05
0.00
0.00
0.02
0.02
0.02
0.02
0.03
0.02
0.03
0.01
0.03
0.02
0.03
0.03
0.04
0.04
0.03
0.04
0.03
0.03
0.03
0.06
0.03
0.04
0.03
0.03
0.03
0.02
0.02
0.02
0.00
0.01
0.03
0.02
0.02
0.01
0.03
0.00
0.01
0.00
0.00
0.01
0.00
0.00
0.01
0.00
0.01
0.00
0.03
0.03
0.05
0.05
0.09
0.05
0.09
0.05
0.01
0.00
0.09
0.01
0.14
0.02
0.03
0.05
0.25
0.28
0.25
0.23
0.23
0.28
0.28
0.29
0.35
0.00
0.06
0.67
0.63
0.84
0.63
0.58
0.53
0.23
0.29
0.23
0.21
0.18
0.16
0.11
0.10
0.09
0.10
0.03
0.01
0.03
0.01
0.00
0.00
0.03
0.00
0.09
0.03
0.09
0.09
0.18
0.19
0.21
0.25
0.31
0.31
0.29
0.28
0.29
0.21
0.14
0.16
0.13
0.11
0.09
0.13
0.05
0.11
0.10
0.11
0.10
0.10
0.13
0.10
0.09
0.09
0.09
0.05
0.09
0.03
0.05
0.03
0.10
0.03
0.03
0.05
0.05
0.03
0.05
0.05
0.05
0.09
0.05
0.09
0.01
0.09
0.10
0.09
0.05
0.03
0.05
0.05
0.05
0.05
0.03
0.09
0.03
0.03
0.03
0.00
0.01
0.00
0.03
0.17
0.09
0.03
0.01
0.10
0.13
0.14
0.09
0.11
0.11
0.13
0.11
0.16
0.03
0.07
0.72
0.57
0.63
0.58
0.56
0.58
0.19
0.13
0.09
0.03
0.00
0.00
0.00
0.02
0.01
0.03
0.02
0.03
0.03
0.03
0.04
0.03
0.06
0.03
0.04
0.02
0.03
0.00
0.00
0.03
0.10
0.10
0.14
0.14
0.18
0.14
0.16
0.11
0.11
0.03
0.03
0.01
0.00
0.01
0.02
0.02
0.03
0.04
0.03
0.03
0.07
0.04
0.06
0.03
0.04
0.03
0.04
0.03
0.04
0.03
0.03
0.03
0.03
0.03
0.03
0.03
0.03
0.03
0.02
0.03
0.02
0.03
0.01
0.01
0.00
0.00
0.01
0.00
0.01
0.00
0.01
0.00
0.01
0.00
0.01
0.01
0.01
0.00
0.06
0.07
0.09
0.09
0.34
0.22
0.06
0.03
0.09
0.05
0.09
0.00
0.03
0.01
0.03
0.03
0.09
0.31
0.45
0.80
0.56
0.83
0.59
0.56
0.50
0.00
0.01
0.03
0.03
0.07
0.07
0.07
0.07
0.14
0.17
0.17
0.17
0.27
0.20
0.27
0.27
0.32
0.31
0.34
0.32
0.27
0.20
0.17
0.07
0.03
0.02
0.00
0.00
0.05
0.01
0.01
0.00
0.02
0.03
0.04
0.06
0.09
0.14
0.07
0.09
0.09
0.07
0.09
0.09
0.07
0.09
0.14
0.06
0.09
0.07
0.09
0.17
0.09
0.09
0.09
0.14
0.04
0.14
0.06
0.07
0.07
0.07
0.06
0.06
0.04
0.07
0.04
0.06
0.06
0.04
0.04
0.04
0.04
0.03
0.03
0.03
0.03
0.03
0.03
0.02
0.03
0.04
0.17
0.06
0.20
0.17
0.45
0.17
0.07
0.02
0.09
0.03
0.05
0.00
0.00
0.03
0.01
0.03
0.05
0.32
0.70
0.05
0.68
0.82
0.64
0.58
0.29
0.00
0.00
0.02
0.04
0.04
0.06
0.09
0.14
0.17
0.17
0.22
0.14
0.20
0.20
0.27
0.20
0.27
0.22
0.20
0.20
0.17
0.07
0.04
0.03
0.00
0.01
0.10
0.09
0.11
0.10
0.11
0.03
0.01
0.00
0.02
0.03
0.04
0.03
0.04
0.03
0.04
0.03
0.06
0.04
0.06
0.04
0.06
0.04
0.06
0.04
0.04
0.04
0.04
0.06
0.03
0.03
0.03
0.03
0.00
0.03
0.02
0.02
0.00
0.01
0.00
0.00
0.02
0.00
0.01
0.00
0.02
0.01
0.01
0.00
0.01
0.00
0.00
0.00
0.00
0.00
0.00
0.01
0.00
0.03
0.04
0.06
0.14
0.31
0.31
0.04
0.03
0.10
0.11
0.13
0.09
0.09
0.09
0.13
0.09
0.13
0.04
0.09
0.82
0.57
0.78
0.63
0.68
0.56
0.18
0.09
0.10
0.03
0.01
0.01
0.02
0.02
0.02
0.03
0.03
0.04
0.07
0.06
0.09
0.07
0.09
0.07
0.09
0.06
0.07
0.02
0.03
0.00
0.01
0.10
0.11
0.13
0.18
0.16
0.18
0.11
0.13
0.03
0.03
0.01
0.00
0.01
0.00
0.00
0.00
0.00
0.00
0.01
0.01
0.00
0.00
0.01
0.00
0.01
0.00
0.00
0.03
0.01
0.00
0.01
0.01
0.05
0.03
0.01
0.05
0.01
0.09
0.03
0.11
0.09
0.09
0.10
0.09
0.09
0.09
0.11
0.11
0.13
0.09
0.13
0.13
0.13
0.10
0.03
0.05
0.01
0.01
0.06
0.00
0.03
0.14
0.31
0.37
0.33
0.33
0.29
0.37
0.31
0.33
0.40
0.05
0.01
0.72
0.57
0.75
0.58
0.58
0.57
0.23
0.29
0.21
0.21
0.19
0.16
0.14
0.09
0.05
0.10
0.03
0.01
0.03
0.00
0.00
0.00
0.01
0.00
0.09
0.00
0.09
0.05
0.10
0.14
0.18
0.19
0.19
0.23
0.21
0.18
0.13
0.11
0.09
0.09
0.01
0.01
0.00
0.01
0.02
0.02
0.01
0.00
0.01
0.02
0.00
0.01
0.00
0.02
0.01
0.01
0.00
0.01
0.01
0.01
0.01
0.05
0.03
0.09
0.03
0.05
0.00
0.09
0.03
0.09
0.03
0.09
0.03
0.05
0.09
0.09
0.09
0.03
0.03
0.01
0.03
0.02
0.06
0.31
0.20
0.09
0.04
0.10
0.13
0.13
0.09
0.11
0.11
0.13
0.10
0.14
0.00
0.14
0.74
0.56
0.70
0.64
0.63
0.58
0.21
0.03
0.05
0.00
0.01
0.03
0.02
0.06
0.07
0.14
0.06
0.17
0.17
0.14
0.27
0.20
0.27
0.22
0.31
0.22
0.22
0.20
0.14
0.06
0.03
0.01
0.00
0.01
0.09
0.10
0.10
0.05
0.01
0.01
0.00
0.03
0.03
0.03
0.03
0.06
0.06
0.03
0.03
0.03
0.04
0.03
0.06
0.03
0.04
0.03
0.03
0.03
0.02
0.03
0.03
0.03
0.01
0.03
0.02
0.03
0.01
0.03
0.02
0.03
0.03
0.03
0.03
0.03
0.03
0.04
0.03
0.02
0.03
0.02
0.03
0.02
0.03
0.01
0.03
0.02
0.03
0.03
0.14
0.06
0.22
0.20
0.46
0.22
0.07
0.04
0.10
0.03
0.05
0.00
0.01
0.05
0.00
0.05
0.10
0.32
0.55
0.70
0.57
0.81
0.56
0.57
0.51
0.01
0.01
0.00
0.01
0.03
0.03
0.07
0.07
0.06
0.06
0.14
0.14
0.17
0.14
0.20
0.20
0.17
0.27
0.20
0.22
0.09
0.14
0.03
0.03
0.00
0.00
0.05
0.10
0.11
0.09
0.10
0.03
0.00
0.01
0.03
0.03
0.07
0.03
0.07
0.07
0.07
0.04
0.07
0.07
0.07
0.07
0.06
0.06
0.03
0.04
0.03
0.04
0.03
0.04
0.02
0.03
0.03
0.03
0.03
0.02
0.03
0.02
0.02
0.02
0.02
0.01
0.02
0.01
0.02
0.01
0.03
0.02
0.02
0.00
0.02
0.03
0.04
0.20
0.04
0.31
0.27
0.49
0.22
0.20
0.00
0.09
0.05
0.03
0.03
0.01
0.01
0.01
0.05
0.05
0.20
0.70
0.45
0.63
0.63
0.63
0.58
0.29
0.03
0.05
0.00
0.00
0.01
0.03
0.02
0.03
0.03
0.04
0.04
0.07
0.06
0.07
0.09
0.09
0.06
0.07
0.04
0.03
0.03
0.00
0.03
0.11
0.13
0.18
0.18
0.19
0.16
0.16
0.11
0.09
0.01
0.00
0.01
0.03
0.02
0.02
0.03
0.03
0.01
0.04
0.03
0.03
0.03
0.03
0.03
0.03
0.03
0.03
0.03
0.03
0.03
0.03
0.03
0.02
0.03
0.02
0.03
0.03
0.03
0.03
0.03
0.03
0.02
0.03
0.03
0.03
0.03
0.02
0.01
0.02
0.00
0.01
0.02
0.01
0.03
0.09
0.03
0.22
0.09
0.42
0.09
0.07
0.00
0.14
0.11
0.11
0.09
0.10
0.13
0.11
0.13
0.19
0.09
0.42
0.66
0.56
0.75
0.56
0.57
0.53
0.13
0.14
0.11
0.05
0.09
0.03
0.03
0.00
0.01
0.03
0.00
0.00
0.01
0.00
0.01
0.00
0.00
0.01
0.00
0.03
0.09
0.11
0.14
0.21
0.23
0.29
0.31
0.29
0.29
0.28
0.23
0.16
0.13
0.03
0.05
0.00
0.00
0.00
0.01
0.01
0.00
0.03
0.01
0.01
0.00
0.00
0.02
0.00
0.01
0.01
0.00
0.03
0.03
0.01
0.05
0.03
0.03
0.01
0.05
0.03
0.05
0.03
0.05
0.01
0.03
0.03
0.01
0.05
0.03
0.05
0.03
0.03
0.03
0.03
0.05
0.03
0.02
0.00
0.06
0.04
0.31
0.17
0.06
0.01
0.13
0.14
0.18
0.13
0.16
0.16
0.16
0.13
0.25
0.03
0.49
0.66
0.57
0.63
0.56
0.57
0.54
0.14
0.18
0.11
0.09
0.10
0.01
0.03
0.00
0.00
0.00
0.00
0.00
0.02
0.00
0.03
0.01
0.01
0.01
0.00
0.01
0.05
0.10
0.10
0.14
0.21
0.21
0.23
0.23
0.23
0.18
0.14
0.11
0.10
0.03
0.03
0.00
0.00
0.03
0.01
0.02
0.02
0.03
0.03
0.03
0.03
0.02
0.03
0.02
0.03
0.01
0.03
0.00
0.01
0.01
0.02
0.01
0.02
0.03
0.02
0.01
0.02
0.03
0.02
0.03
0.02
0.03
0.01
0.03
0.02
0.02
0.01
0.02
0.01
0.06
0.17
0.09
0.20
0.46
0.31
0.27
0.09
0.05
0.03
0.13
0.05
0.09
0.09
0.13
0.10
0.11
0.20
0.42
0.79
0.58
0.82
0.63
0.56
0.54
0.09
0.01
0.01
0.01
0.01
0.03
0.03
0.07
0.07
0.07
0.14
0.17
0.22
0.20
0.22
0.27
0.31
0.27
0.31
0.22
0.22
0.09
0.09
0.03
0.01
0.03
0.05
0.10
0.11
0.10
0.09
0.03
0.00
0.02
0.01
0.04
0.03
0.03
0.03
0.03
0.03
0.03
0.03
0.03
0.04
0.03
0.06
0.04
0.06
0.04
0.07
0.03
0.06
0.04
0.06
0.03
0.06
0.06
0.06
0.03
0.04
0.03
0.03
0.03
0.02
0.03
0.00
0.02
0.00
0.01
0.00
0.02
0.00
0.01
0.00
0.00
0.00
0.00
0.00
0.00
0.03
0.09
0.06
0.17
0.22
0.34
0.09
0.03
0.03
0.14
0.13
0.11
0.09
0.09
0.10
0.05
0.10
0.00
0.32
0.79
0.50
0.70
0.76
0.68
0.58
0.23
0.05
0.00
0.01
0.02
0.03
0.03
0.06
0.04
0.09
0.06
0.14
0.09
0.09
0.14
0.17
0.14
0.14
0.14
0.09
0.07
0.03
0.03
0.00
0.05
0.13
0.14
0.18
0.19
0.19
0.19
0.18
0.14
0.10
0.10
0.03
0.00
0.00
0.00
0.01
0.00
0.01
0.00
0.01
0.00
0.01
0.01
0.02
0.01
0.02
0.03
0.02
0.02
0.02
0.02
0.01
0.02
0.00
0.01
0.00
0.00
0.00
0.03
0.01
0.03
0.01
0.05
0.03
0.05
0.01
0.09
0.01
0.05
0.09
0.01
0.05
0.05
0.03
0.01
0.05
0.01
0.03
0.03
0.09
0.03
0.05
0.01
0.01
0.03
0.03
0.02
0.04
0.22
0.14
0.02
0.02
0.16
0.18
0.18
0.11
0.13
0.10
0.13
0.10
0.13
0.03
0.14
0.83
0.57
0.73
0.61
0.64
0.56
0.13
0.09
0.09
0.00
0.00
0.03
0.01
0.03
0.03
0.04
0.06
0.06
0.06
0.06
0.09
0.09
0.09
0.07
0.07
0.03
0.04
0.00
0.00
0.09
0.10
0.18
0.18
0.23
0.28
0.21
0.19
0.16
0.13
0.09
0.09
0.00
0.00
0.00
0.01
0.01
0.00
0.00
0.00
0.00
0.00
0.00
0.00
0.00
0.01
0.00
0.01
0.01
0.01
0.01
0.01
0.01
0.00
0.00
0.00
0.00
0.00
0.00
0.01
0.00
0.01
0.01
0.01
0.01
0.00
0.01
0.00
0.00
0.03
0.00
0.00
0.00
0.00
0.01
0.00
0.00
0.00
0.03
0.03
0.03
0.01
0.03
0.00
0.03
0.07
0.22
0.03
0.00
0.05
0.14
0.18
0.13
0.11
0.11
0.16
0.11
0.18
0.05
0.09
0.70
0.48
0.57
0.58
0.58
0.57
0.38
0.16
0.16
0.11
0.05
0.03
0.03
0.00
0.00
0.00
0.00
0.01
0.00
0.00
0.01
0.01
0.00
0.01
0.00
0.03
0.01
0.09
0.10
0.14
0.16
0.19
0.21
0.23
0.21
0.19
0.18
0.13
0.11
0.05
0.03
0.00
0.00
0.02
0.03
0.03
0.02
0.03
0.03
0.03
0.02
0.02
0.03
0.01
0.01
0.01
0.02
0.01
0.00
0.00
0.02
0.00
0.01
0.01
0.01
0.01
0.00
0.00
0.01
0.01
0.00
0.00
0.01
0.01
0.01
0.02
0.01
0.01
0.00
0.02
0.00
0.02
0.00
0.01
0.00
0.00
0.02
0.09
0.03
0.17
0.09
0.38
0.09
0.04
0.01
0.14
0.13
0.13
0.10
0.11
0.11
0.10
0.11
0.13
0.20
0.51
0.72
0.57
0.82
0.58
0.56
0.54
0.03
0.03
0.00
0.02
0.03
0.03
0.09
0.06
0.14
0.09
0.20
0.17
0.17
0.20
0.22
0.20
0.22
0.27
0.17
0.17
0.09
0.09
0.03
0.03
0.00
0.05
0.11
0.11
0.14
0.14
0.13
0.09
0.03
0.01
0.03
0.03
0.07
0.06
0.14
0.06
0.06
0.09
0.14
0.07
0.14
0.14
0.09
0.09
0.07
0.17
0.07
0.14
0.07
0.09
0.06
0.07
0.06
0.07
0.04
0.06
0.03
0.03
0.03
0.03
0.03
0.03
0.03
0.03
0.03
0.03
0.03
0.02
0.03
0.02
0.03
0.03
0.03
0.03
0.01
0.03
0.02
0.03
0.03
0.03
0.02
0.02
0.03
0.09
0.07
0.17
0.17
0.45
0.22
0.06
0.04
0.10
0.05
0.09
0.03
0.03
0.05
0.01
0.05
0.09
0.20
0.42
0.81
0.57
0.78
0.56
0.56
0.53
0.00
0.00
0.00
0.03
0.06
0.06
0.06
0.06
0.07
0.07
0.09
0.14
0.17
0.14
0.22
0.17
0.22
0.20
0.14
0.09
0.04
0.04
0.01
0.00
0.09
0.05
0.14
0.14
0.18
0.16
0.18
0.13
0.11
0.05
0.01
0.00
0.01
0.02
0.02
0.02
0.02
0.01
0.02
0.01
0.02
0.01
0.02
0.01
0.01
0.03
0.02
0.02
0.00
0.03
0.00
0.02
0.01
0.02
0.00
0.00
0.00
0.00
0.00
0.00
0.00
0.01
0.01
0.01
0.01
0.05
0.01
0.05
0.03
0.05
0.01
0.05
0.03
0.01
0.03
0.01
0.01
0.00
0.03
0.01
0.03
0.01
0.03
0.02
0.02
0.03
0.03
0.22
0.17
0.02
0.00
0.13
0.16
0.16
0.10
0.11
0.09
0.10
0.09
0.13
0.09
0.17
0.82
0.57
0.78
0.56
0.63
0.56
0.13
0.09
0.09
0.01
0.00
0.02
0.00
0.03
0.03
0.06
0.04
0.07
0.07
0.06
0.09
0.09
0.17
0.09
0.09
0.06
0.04
0.03
0.02
0.01
0.09
0.11
0.14
0.14
0.19
0.16
0.18
0.13
0.10
0.03
0.01
0.01
0.02
0.03
0.02
0.03
0.03
0.03
0.03
0.04
0.04
0.03
0.04
0.03
0.04
0.03
0.04
0.03
0.03
0.03
0.03
0.03
0.02
0.02
0.01
0.02
0.01
0.02
0.01
0.00
0.00
0.00
0.01
0.00
0.00
0.00
0.01
0.01
0.01
0.03
0.00
0.03
0.03
0.09
0.03
0.09
0.05
0.05
0.05
0.05
0.09
0.03
0.01
0.00
0.03
0.03
0.31
0.06
0.02
0.00
0.16
0.14
0.14
0.13
0.11
0.13
0.13
0.13
0.19
0.06
0.17
0.79
0.57
0.73
0.56
0.56
0.54
0.13
0.13
0.09
0.03
0.01
0.01
0.00
0.00
0.02
0.00
0.02
0.00
0.00
0.00
0.02
0.01
0.00
0.01
0.03
0.00
0.09
0.09
0.14
0.19
0.23
0.28
0.33
0.35
0.31
0.33
0.29
0.23
0.18
0.19
0.10
0.05
0.01
0.05
0.00
0.00
0.01
0.00
0.01
0.00
0.05
0.01
0.00
0.00
0.01
0.00
0.00
0.01
0.00
0.00
0.01
0.03
0.01
0.05
0.03
0.09
0.03
0.09
0.05
0.09
0.01
0.09
0.05
0.05
0.05
0.03
0.03
0.01
0.03
0.01
0.03
0.03
0.05
0.03
0.03
0.05
0.03
0.01
0.03
0.01
0.04
0.04
0.20
0.22
0.07
0.03
0.09
0.16
0.14
0.14
0.14
0.14
0.18
0.16
0.21
0.00
0.06
0.71
0.55
0.56
0.58
0.57
0.57
0.38
0.11
0.11
0.09
0.05
0.01
0.01
0.01
0.00
0.02
0.01
0.02
0.01
0.03
0.03
0.03
0.03
0.02
0.03
0.01
0.02
0.01
0.01
0.09
0.09
0.14
0.16
0.18
0.18
0.19
0.18
0.13
0.11
0.05
0.01
0.00
0.00
0.02
0.03
0.03
0.01
0.04
0.03
0.03
0.03
0.03
0.03
0.03
0.03
0.03
0.03
0.02
0.03
0.02
0.03
0.02
0.02
0.00
0.02
0.02
0.01
0.00
0.00
0.01
0.00
0.01
0.00
0.02
0.00
0.02
0.00
0.01
0.01
0.02
0.01
0.00
0.03
0.01
0.00
0.01
0.07
0.04
0.09
0.14
0.41
0.22
0.14
0.06
0.05
0.11
0.11
0.05
0.09
0.05
0.09
0.03
0.10
0.09
0.32
0.83
0.57
0.78
0.66
0.69
0.56
0.14
0.03
0.09
0.00
0.01
0.02
0.03
0.06
0.03
0.04
0.06
0.06
0.09
0.07
0.14
0.09
0.14
0.14
0.17
0.09
0.17
0.07
0.04
0.01
0.00
0.03
0.10
0.11
0.16
0.14
0.16
0.11
0.11
0.05
0.05
0.00
0.00
0.01
0.01
0.01
0.01
0.00
0.02
0.00
0.02
0.00
0.02
0.01
0.03
0.02
0.03
0.02
0.03
0.03
0.02
0.03
0.02
0.02
0.00
0.02
0.00
0.01
0.00
0.01
0.01
0.00
0.00
0.00
0.01
0.00
0.00
0.00
0.00
0.01
0.00
0.00
0.00
0.00
0.01
0.00
0.00
0.06
0.04
0.06
0.07
0.41
0.20
0.09
0.03
0.10
0.13
0.13
0.09
0.09
0.14
0.11
0.10
0.14
0.14
0.14
0.83
0.56
0.79
0.61
0.64
0.56
0.11
0.10
0.11
0.03
0.01
0.00
0.01
0.02
0.01
0.02
0.01
0.03
0.03
0.04
0.06
0.04
0.03
0.03
0.03
0.01
0.03
0.01
0.00
0.09
0.10
0.16
0.19
0.21
0.21
0.25
0.21
0.21
0.16
0.11
0.11
0.03
0.03
0.01
0.01
0.00
0.00
0.00
0.00
0.00
0.00
0.00
0.03
0.01
0.02
0.00
0.02
0.00
0.02
0.01
0.02
0.00
0.02
0.00
0.00
0.00
0.00
0.00
0.01
0.00
0.00
0.00
0.01
0.00
0.00
0.00
0.01
0.00
0.00
0.05
0.01
0.01
0.00
0.01
0.00
0.00
0.00
0.03
0.06
0.02
0.17
0.20
0.32
0.07
0.04
0.05
0.16
0.13
0.13
0.10
0.11
0.10
0.11
0.14
0.03
0.07
0.71
0.48
0.68
0.75
0.68
0.58
0.29
0.13
0.09
0.10
0.01
0.01
0.00
0.00
0.00
0.00
0.00
0.02
0.02
0.02
0.02
0.04
0.03
0.03
0.03
0.02
0.00
0.00
0.05
0.11
0.18
0.21
0.23
0.28
0.25
0.28
0.19
0.19
0.13
0.11
0.09
0.03
0.00
0.00
0.01
0.02
0.00
0.01
0.01
0.00
0.00
0.02
0.02
0.03
0.00
0.03
0.00
0.01
0.00
0.02
0.00
0.00
0.00
0.00
0.00
0.01
0.00
0.05
0.03
0.03
0.01
0.05
0.01
0.09
0.05
0.09
0.03
0.03
0.09
0.05
0.03
0.03
0.01
0.04
0.17
0.22
0.14
0.04
0.05
0.14
0.16
0.16
0.13
0.13
0.16
0.16
0.16
0.13
0.04
0.66
0.33
0.58
0.61
0.62
0.58
0.33
0.11
0.13
0.05
0.03
0.03
0.00
0.00
0.00
0.01
0.00
0.00
0.01
0.00
0.03
0.00
0.02
0.00
0.00
0.05
0.03
0.05
0.13
0.11
0.18
0.18
0.23
0.19
0.19
0.16
0.18
0.10
0.09
0.03
0.03
0.01
0.01
0.00
0.03
0.02
0.02
0.02
0.03
0.02
0.03
0.02
0.03
0.01
0.02
0.01
0.00
0.00
0.00
0.01
0.00
0.01
0.01
0.01
0.00
0.02
0.00
0.01
0.01
0.01
0.00
0.01
0.02
0.00
0.00
0.00
0.02
0.00
0.01
0.00
0.01
0.01
0.06
0.06
0.17
0.17
0.46
0.32
0.20
0.07
0.01
0.01
0.05
0.00
0.03
0.03
0.09
0.05
0.13
0.27
0.51
0.70
0.56
0.79
0.57
0.57
0.54
0.03
0.00
0.00
0.02
0.03
0.03
0.03
0.04
0.07
0.04
0.06
0.07
0.09
0.09
0.20
0.17
0.27
0.17
0.27
0.14
0.14
0.09
0.06
0.03
0.00
0.00
0.10
0.10
0.14
0.10
0.11
0.09
0.05
0.00
0.00
0.02
0.02
0.03
0.02
0.03
0.02
0.01
0.03
0.02
0.03
0.02
0.04
0.03
0.06
0.04
0.06
0.06
0.03
0.04
0.03
0.04
0.03
0.04
0.02
0.02
0.02
0.03
0.02
0.03
0.03
0.02
0.01
0.03
0.02
0.01
0.02
0.02
0.02
0.01
0.03
0.02
0.09
0.06
0.17
0.14
0.42
0.22
0.17
0.03
0.09
0.09
0.11
0.03
0.03
0.05
0.10
0.05
0.13
0.31
0.55
0.62
0.63
0.83
0.60
0.57
0.49
0.05
0.03
0.01
0.00
0.01
0.03
0.03
0.03
0.04
0.04
0.03
0.06
0.04
0.07
0.06
0.07
0.06
0.07
0.06
0.06
0.06
0.02
0.01
0.01
0.09
0.11
0.11
0.16
0.14
0.13
0.13
0.10
0.00
0.00
0.02
0.03
0.03
0.03
0.03
0.04
0.03
0.04
0.03
0.04
0.03
0.06
0.04
0.07
0.06
0.06
0.06
0.07
0.04
0.04
0.06
0.04
0.06
0.03
0.03
0.03
0.03
0.02
0.02
0.00
0.01
0.00
0.01
0.02
0.01
0.00
0.00
0.01
0.00
0.01
0.01
0.00
0.00
0.01
0.03
0.06
0.04
0.17
0.31
0.31
0.06
0.03
0.09
0.14
0.13
0.10
0.11
0.10
0.10
0.09
0.11
0.06
0.20
0.82
0.57
0.78
0.56
0.62
0.54
0.09
0.05
0.03
0.00
0.01
0.00
0.03
0.02
0.03
0.03
0.04
0.03
0.04
0.04
0.07
0.06
0.06
0.07
0.06
0.06
0.03
0.03
0.00
0.01
0.10
0.13
0.19
0.16
0.21
0.18
0.16
0.14
0.11
0.09
0.03
0.00
0.00
0.00
0.02
0.00
0.01
0.00
0.01
0.02
0.02
0.02
0.03
0.01
0.03
0.03
0.03
0.03
0.02
0.03
0.03
0.03
0.02
0.02
0.01
0.03
0.01
0.01
0.00
0.02
0.00
0.00
0.01
0.00
0.00
0.00
0.01
0.01
0.00
0.00
0.00
0.01
0.09
0.02
0.14
0.22
0.32
0.20
0.07
0.00
0.10
0.10
0.11
0.09
0.10
0.11
0.10
0.11
0.11
0.14
0.66
0.05
0.61
0.76
0.62
0.57
0.45
0.10
0.09
0.05
0.01
0.01
0.01
0.01
0.02
0.02
0.01
0.02
0.02
0.02
0.01
0.03
0.01
0.00
0.00
0.00
0.05
0.05
0.11
0.16
0.19
0.29
0.28
0.33
0.33
0.31
0.25
0.29
0.18
0.16
0.13
0.10
0.01
0.10
0.01
0.03
0.05
0.03
0.10
0.09
0.10
0.09
0.10
0.03
0.09
0.05
0.09
0.05
0.09
0.05
0.05
0.09
0.05
0.09
0.09
0.09
0.05
0.03
0.03
0.09
0.01
0.05
0.03
0.03
0.03
0.05
0.05
0.03
0.03
0.03
0.00
0.06
0.01
0.07
0.27
0.31
0.17
0.06
0.01
0.10
0.11
0.10
0.10
0.10
0.13
0.11
0.14
0.00
0.07
0.72
0.54
0.61
0.56
0.56
0.58
0.25
0.13
0.11
0.11
0.03
0.03
0.00
0.01
0.02
0.00
0.01
0.01
0.02
0.02
0.03
0.02
0.00
0.00
0.00
0.00
0.05
0.03
0.10
0.13
0.18
0.18
0.21
0.19
0.19
0.18
0.14
0.13
0.10
0.05
0.05
0.01
0.00
0.00
0.01
0.00
0.02
0.01
0.02
0.00
0.02
0.01
0.01
0.01
0.00
0.00
0.01
0.00
0.00
0.01
0.00
0.00
0.00
0.01
0.00
0.00
0.00
0.00
0.00
0.00
0.00
0.01
0.01
0.01
0.00
0.03
0.00
0.01
0.07
0.03
0.22
0.31
0.42
0.31
0.20
0.03
0.03
0.01
0.03
0.00
0.01
0.01
0.05
0.05
0.05
0.31
0.72
0.40
0.72
0.78
0.69
0.58
0.33
0.03
0.03
0.01
0.01
0.02
0.03
0.03
0.07
0.06
0.09
0.07
0.14
0.14
0.14
0.20
0.22
0.27
0.20
0.22
0.17
0.17
0.09
0.06
0.02
0.00
0.05
0.03
0.10
0.09
0.10
0.05
0.03
0.01
0.01
0.02
0.04
0.04
0.06
0.03
0.03
0.03
0.03
0.03
0.03
0.03
0.03
0.03
0.03
0.04
0.03
0.04
0.03
0.03
0.02
0.03
0.03
0.03
0.02
0.03
0.02
0.02
0.03
0.03
0.03
0.02
0.03
0.02
0.03
0.03
0.03
0.03
0.03
0.03
0.03
0.03
0.03
0.04
0.07
0.20
0.06
0.32
0.20
0.51
0.22
0.20
0.03
0.03
0.03
0.05
0.00
0.00
0.03
0.03
0.03
0.10
0.41
0.61
0.65
0.62
0.82
0.58
0.58
0.49
0.03
0.00
0.00
0.01
0.02
0.04
0.03
0.06
0.04
0.09
0.07
0.09
0.14
0.14
0.14
0.17
0.20
0.14
0.17
0.09
0.09
0.03
0.04
0.00
0.03
0.05
0.10
0.13
0.16
0.10
0.13
0.09
0.05
0.00
0.00
0.02
0.03
0.04
0.03
0.03
0.03
0.03
0.03
0.03
0.03
0.03
0.04
0.03
0.06
0.03
0.07
0.04
0.04
0.04
0.06
0.06
0.04
0.06
0.03
0.03
0.02
0.03
0.02
0.01
0.01
0.02
0.00
0.00
0.01
0.00
0.01
0.00
0.00
0.01
0.00
0.00
0.03
0.03
0.03
0.07
0.32
0.31
0.07
0.04
0.10
0.14
0.11
0.09
0.13
0.09
0.10
0.05
0.11
0.01
0.22
0.79
0.57
0.76
0.68
0.69
0.56
0.18
0.05
0.03
0.00
0.00
0.02
0.03
0.03
0.03
0.07
0.06
0.06
0.07
0.07
0.09
0.06
0.09
0.06
0.07
0.04
0.04
0.01
0.01
0.03
0.09
0.11
0.16
0.14
0.18
0.16
0.14
0.10
0.10
0.03
0.01
0.00
0.00
0.03
0.02
0.02
0.03
0.02
0.02
0.02
0.02
0.01
0.02
0.00
0.03
0.01
0.02
0.02
0.02
0.00
0.00
0.01
0.00
0.00
0.03
0.00
0.01
0.00
0.01
0.00
0.03
0.01
0.01
0.03
0.03
0.01
0.01
0.05
0.03
0.01
0.03
0.01
0.03
0.00
0.06
0.17
0.27
0.07
0.04
0.09
0.13
0.11
0.11
0.10
0.10
0.13
0.13
0.13
0.14
0.09
0.66
0.14
0.61
0.68
0.63
0.58
0.40
0.14
0.13
0.11
0.09
0.03
0.01
0.03
0.00
0.01
0.00
0.01
0.00
0.03
0.01
0.03
0.00
0.09
0.03
0.10
0.10
0.13
0.18
0.16
0.29
0.25
0.29
0.29
0.31
0.25
0.21
0.16
0.14
0.09
0.09
0.03
0.00
0.01
0.01
0.00
0.00
0.01
0.01
0.01
0.00
0.00
0.01
0.01
0.01
0.01
0.01
0.02
0.00
0.01
0.01
0.01
0.00
0.02
0.01
0.02
0.00
0.00
0.01
0.00
0.00
0.00
0.01
0.01
0.02
0.01
0.00
0.03
0.01
0.03
0.04
0.04
0.06
0.42
0.27
0.31
0.07
0.05
0.10
0.13
0.10
0.11
0.14
0.13
0.16
0.23
0.03
0.14
0.74
0.57
0.64
0.57
0.57
0.58
0.14
0.16
0.03
0.05
0.00
0.01
0.00
0.01
0.01
0.03
0.03
0.03
0.03
0.06
0.03
0.06
0.04
0.06
0.03
0.03
0.03
0.01
0.01
0.03
0.03
0.09
0.10
0.13
0.11
0.13
0.09
0.05
0.09
0.01
0.00
0.01
0.01
0.03
0.03
0.04
0.03
0.04
0.06
0.06
0.06
0.07
0.06
0.04
0.06
0.07
0.06
0.03
0.06
0.03
0.03
0.03
0.03
0.03
0.03
0.03
0.03
0.03
0.03
0.02
0.01
0.02
0.02
0.03
0.02
0.03
0.02
0.02
0.01
0.01
0.03
0.01
0.06
0.09
0.09
0.17
0.45
0.31
0.22
0.06
0.03
0.11
0.09
0.05
0.09
0.09
0.10
0.05
0.09
0.03
0.31
0.83
0.57
0.79
0.75
0.71
0.56
0.13
0.00
0.03
0.01
0.02
0.03
0.03
0.04
0.06
0.06
0.06
0.09
0.07
0.14
0.14
0.17
0.20
0.17
0.20
0.17
0.14
0.06
0.06
0.03
0.02
0.00
0.05
0.09
0.10
0.10
0.11
0.09
0.05
0.00
0.01
0.02
0.02
0.03
0.02
0.04
0.03
0.03
0.02
0.03
0.03
0.02
0.03
0.03
0.04
0.02
0.04
0.03
0.04
0.03
0.03
0.03
0.03
0.03
0.03
0.01
0.01
0.02
0.00
0.00
0.01
0.02
0.00
0.01
0.01
0.00
0.00
0.01
0.00
0.01
0.00
0.00
0.02
0.06
0.03
0.17
0.22
0.31
0.20
0.06
0.03
0.13
0.13
0.11
0.10
0.09
0.13
0.13
0.14
0.09
0.17
0.71
0.48
0.73
0.80
0.71
0.58
0.35
0.11
0.10
0.03
0.03
0.00
0.01
0.02
0.01
0.03
0.03
0.03
0.03
0.04
0.04
0.07
0.07
0.07
0.04
0.03
0.04
0.02
0.01
0.01
0.03
0.11
0.13
0.14
0.16
0.16
0.14
0.13
0.10
0.03
0.03
0.01
0.00
0.03
0.02
0.03
0.03
0.03
0.03
0.03
0.04
0.04
0.04
0.04
0.06
0.03
0.07
0.04
0.06
0.03
0.06
0.04
0.04
0.02
0.03
0.03
0.03
0.02
0.03
0.03
0.01
0.03
0.01
0.03
0.01
0.01
0.00
0.00
0.00
0.00
0.00
0.00
0.00
0.01
0.00
0.03
0.04
0.04
0.07
0.38
0.20
0.04
0.03
0.11
0.14
0.16
0.11
0.10
0.13
0.10
0.10
0.11
0.04
0.14
0.83
0.58
0.79
0.58
0.64
0.53
0.09
0.01
0.01
0.01
0.03
0.02
0.03
0.02
0.03
0.01
0.03
0.03
0.03
0.03
0.03
0.03
0.03
0.03
0.02
0.03
0.00
0.00
0.09
0.09
0.16
0.19
0.23
0.28
0.28
0.23
0.21
0.23
0.13
0.16
0.10
0.09
0.01
0.01
0.00
0.03
0.00
0.01
0.01
0.00
0.01
0.01
0.01
0.00
0.01
0.01
0.01
0.00
0.01
0.01
0.03
0.00
0.03
0.01
0.05
0.09
0.05
0.05
0.03
0.09
0.03
0.09
0.05
0.05
0.03
0.09
0.03
0.05
0.09
0.03
0.01
0.00
0.02
0.04
0.32
0.17
0.07
0.01
0.14
0.11
0.18
0.13
0.13
0.19
0.16
0.21
0.28
0.00
0.38
0.64
0.57
0.70
0.56
0.57
0.55
0.13
0.18
0.16
0.11
0.09
0.11
0.10
0.05
0.05
0.05
0.05
0.03
0.03
0.05
0.03
0.05
0.03
0.09
0.05
0.10
0.13
0.10
0.16
0.14
0.21
0.18
0.23
0.21
0.19
0.16
0.11
0.11
0.03
0.03
0.03
0.03
0.01
0.00
0.00
0.01
0.02
0.00
0.02
0.02
0.03
0.01
0.02
0.01
0.02
0.02
0.01
0.01
0.00
0.03
0.00
0.00
0.01
0.01
0.00
0.00
0.00
0.00
0.01
0.00
0.00
0.03
0.03
0.03
0.03
0.09
0.03
0.05
0.01
0.02
0.00
0.03
0.07
0.17
0.09
0.03
0.05
0.18
0.16
0.18
0.18
0.16
0.21
0.19
0.21
0.11
0.00
0.67
0.49
0.62
0.64
0.60
0.57
0.38
0.10
0.09
0.05
0.03
0.01
0.01
0.02
0.03
0.04
0.03
0.06
0.07
0.14
0.09
0.17
0.20
0.22
0.27
0.31
0.22
0.20
0.17
0.07
0.07
0.03
0.03
0.00
0.00
0.01
0.00
0.00
0.00
0.01
0.03
0.03
0.06
0.06
0.06
0.07
0.07
0.09
0.06
0.09
0.09
0.14
0.09
0.09
0.14
0.09
0.14
0.09
0.09
0.07
0.07
0.07
0.07
0.06
0.09
0.04
0.07
0.04
0.04
0.03
0.04
0.04
0.04
0.06
0.03
0.06
0.03
0.04
0.04
0.22
0.09
0.32
0.34
0.51
0.38
0.22
0.06
0.03
0.00
0.01
0.00
0.00
0.00
0.01
0.05
0.01
0.34
0.74
0.40
0.78
0.83
0.71
0.58
0.28
0.00
0.01
0.03
0.06
0.04
0.17
0.09
0.17
0.17
0.22
0.27
0.27
0.27
0.32
0.32
0.31
0.32
0.32
0.32
0.27
0.31
0.14
0.14
0.03
0.03
0.01
0.01
0.00
0.03
0.01
0.00
0.00
0.00
0.03
0.03
0.04
0.03
0.06
0.03
0.04
0.06
0.04
0.04
0.03
0.06
0.06
0.04
0.06
0.06
0.03
0.06
0.06
0.06
0.03
0.04
0.03
0.03
0.02
0.03
0.03
0.01
0.03
0.02
0.03
0.03
0.03
0.03
0.03
0.03
0.02
0.02
0.03
0.02
0.02
0.02
0.03
0.20
0.03
0.27
0.14
0.49
0.17
0.14
0.00
0.11
0.10
0.05
0.03
0.03
0.05
0.03
0.03
0.14
0.32
0.66
0.04
0.70
0.82
0.66
0.57
0.38
0.03
0.05
0.01
0.01
0.02
0.03
0.03
0.03
0.03
0.06
0.06
0.06
0.06
0.07
0.07
0.09
0.07
0.14
0.07
0.03
0.04
0.02
0.00
0.03
0.03
0.10
0.11
0.13
0.13
0.13
0.09
0.05
0.03
0.00
0.02
0.03
0.03
0.03
0.03
0.03
0.01
0.03
0.03
0.03
0.03
0.03
0.03
0.03
0.03
0.03
0.03
0.03
0.03
0.03
0.03
0.01
0.03
0.01
0.01
0.00
0.01
0.00
0.01
0.00
0.00
0.01
0.00
0.00
0.00
0.02
0.00
0.04
0.07
0.04
0.09
0.42
0.31
0.31
0.07
0.05
0.10
0.10
0.09
0.09
0.10
0.11
0.10
0.13
0.07
0.14
0.82
0.57
0.78
0.57
0.58
0.53
0.10
0.13
0.09
0.09
0.09
0.01
0.05
0.05
0.03
0.01
0.03
0.01
0.03
0.00
0.05
0.03
0.05
0.03
0.05
0.09
0.11
0.16
0.14
0.19
0.25
0.28
0.28
0.29
0.25
0.23
0.16
0.14
0.11
0.03
0.03
0.01
0.00
0.00
0.03
0.00
0.00
0.00
0.03
0.00
0.03
0.01
0.01
0.03
0.01
0.00
0.00
0.01
0.01
0.03
0.03
0.05
0.03
0.05
0.05
0.01
0.03
0.09
0.05
0.05
0.03
0.05
0.05
0.05
0.09
0.01
0.11
0.01
0.01
0.03
0.00
0.14
0.06
0.27
0.20
0.06
0.03
0.14
0.10
0.13
0.09
0.10
0.14
0.14
0.14
0.19
0.03
0.55
0.17
0.58
0.64
0.59
0.57
0.49
0.09
0.11
0.03
0.03
0.03
0.00
0.00
0.00
0.01
0.02
0.00
0.02
0.01
0.02
0.02
0.00
0.02
0.00
0.00
0.01
0.00
0.03
0.05
0.10
0.10
0.11
0.10
0.10
0.13
0.10
0.09
0.05
0.09
0.01
0.01
0.00
0.00
0.02
0.02
0.03
0.03
0.02
0.01
0.02
0.03
0.01
0.03
0.00
0.01
0.00
0.00
0.00
0.01
0.00
0.00
0.00
0.00
0.00
0.00
0.01
0.00
0.01
0.00
0.02
0.00
0.01
0.00
0.01
0.00
0.04
0.06
0.09
0.17
0.42
0.22
0.17
0.06
0.09
0.03
0.09
0.01
0.03
0.05
0.05
0.09
0.11
0.27
0.45
0.72
0.61
0.85
0.63
0.56
0.51
0.00
0.00
0.00
0.03
0.04
0.03
0.06
0.04
0.07
0.06
0.09
0.07
0.09
0.09
0.17
0.14
0.17
0.20
0.14
0.20
0.07
0.09
0.04
0.03
0.00
0.00
0.05
0.05
0.09
0.03
0.09
0.00
0.01
0.00
0.02
0.03
0.03
0.03
0.04
0.03
0.03
0.03
0.06
0.06
0.04
0.04
0.06
0.06
0.04
0.06
0.03
0.04
0.03
0.04
0.02
0.04
0.03
0.03
0.03
0.04
0.03
0.03
0.03
0.02
0.03
0.02
0.03
0.00
0.02
0.00
0.02
0.00
0.00
0.00
0.00
0.03
0.00
0.00
0.03
0.03
0.04
0.03
0.31
0.07
0.02
0.01
0.18
0.14
0.14
0.10
0.11
0.10
0.11
0.13
0.14
0.20
0.41
0.68
0.64
0.85
0.62
0.57
0.49
0.05
0.03
0.01
0.01
0.00
0.02
0.03
0.03
0.03
0.03
0.04
0.04
0.07
0.06
0.09
0.06
0.09
0.06
0.09
0.06
0.06
0.03
0.02
0.00
0.01
0.03
0.09
0.10
0.13
0.10
0.10
0.03
0.03
0.00
0.00
0.03
0.03
0.03
0.04
0.03
0.04
0.03
0.04
0.03
0.06
0.04
0.07
0.04
0.07
0.04
0.04
0.06
0.06
0.04
0.04
0.04
0.03
0.04
0.03
0.04
0.03
0.03
0.03
0.04
0.02
0.03
0.03
0.02
0.02
0.01
0.00
0.00
0.01
0.02
0.06
0.07
0.07
0.09
0.32
0.32
0.09
0.03
0.10
0.13
0.11
0.05
0.10
0.05
0.11
0.10
0.11
0.03
0.09
0.82
0.57
0.79
0.70
0.70
0.56
0.19
0.09
0.10
0.03
0.05
0.00
0.00
0.00
0.00
0.01
0.01
0.01
0.02
0.02
0.02
0.02
0.03
0.00
0.01
0.00
0.00
0.03
0.10
0.10
0.14
0.19
0.19
0.19
0.23
0.21
0.18
0.11
0.13
0.09
0.03
0.03
0.09
0.00
0.01
0.01
0.01
0.03
0.03
0.03
0.00
0.00
0.00
0.05
0.01
0.03
0.00
0.01
0.03
0.03
0.05
0.03
0.09
0.05
0.09
0.03
0.09
0.05
0.10
0.03
0.09
0.05
0.03
0.10
0.05
0.05
0.05
0.05
0.00
0.03
0.01
0.04
0.04
0.32
0.17
0.07
0.02
0.14
0.10
0.13
0.11
0.10
0.16
0.14
0.14
0.23
0.06
0.32
0.72
0.57
0.72
0.56
0.57
0.56
0.14
0.19
0.18
0.16
0.11
0.10
0.09
0.09
0.09
0.09
0.03
0.01
0.05
0.01
0.03
0.00
0.09
0.03
0.09
0.11
0.11
0.14
0.21
0.21
0.23
0.28
0.23
0.28
0.23
0.25
0.21
0.19
0.14
0.13
0.11
0.10
0.05
0.05
0.05
0.03
0.03
0.05
0.03
0.01
0.05
0.00
0.01
0.00
0.05
0.01
0.01
0.00
0.00
0.03
0.00
0.03
0.01
0.01
0.01
0.03
0.00
0.03
0.03
0.05
0.03
0.03
0.05
0.03
0.05
0.03
0.05
0.00
0.03
0.01
0.04
0.06
0.27
0.09
0.07
0.03
0.13
0.13
0.14
0.13
0.11
0.18
0.16
0.19
0.23
0.01
0.57
0.27
0.56
0.66
0.59
0.57
0.51
0.11
0.11
0.05
0.05
0.01
0.01
0.01
0.00
0.03
0.03
0.03
0.03
0.04
0.07
0.09
0.14
0.14
0.20
0.17
0.22
0.14
0.20
0.07
0.09
0.03
0.02
0.02
0.01
0.00
0.01
0.00
0.00
0.01
0.02
0.03
0.03
0.04
0.06
0.04
0.04
0.07
0.09
0.07
0.06
0.06
0.07
0.06
0.07
0.07
0.07
0.03
0.06
0.04
0.06
0.04
0.06
0.04
0.03
0.06
0.04
0.04
0.03
0.04
0.02
0.03
0.03
0.03
0.03
0.03
0.03
0.02
0.03
0.02
0.03
0.06
0.20
0.09
0.27
0.31
0.42
0.17
0.14
0.00
0.10
0.03
0.05
0.00
0.03
0.01
0.05
0.01
0.01
0.38
0.76
0.51
0.76
0.79
0.70
0.58
0.25
0.01
0.01
0.01
0.02
0.03
0.06
0.04
0.07
0.06
0.07
0.07
0.09
0.17
0.09
0.20
0.17
0.20
0.09
0.20
0.09
0.14
0.07
0.06
0.01
0.00
0.03
0.05
0.09
0.11
0.09
0.09
0.03
0.01
0.01
0.01
0.03
0.03
0.03
0.03
0.03
0.04
0.03
0.03
0.03
0.04
0.03
0.03
0.03
0.04
0.03
0.03
0.04
0.04
0.04
0.03
0.06
0.03
0.06
0.03
0.04
0.03
0.04
0.02
0.03
0.03
0.03
0.03
0.03
0.03
0.02
0.03
0.01
0.03
0.03
0.02
0.02
0.07
0.07
0.06
0.20
0.27
0.34
0.07
0.04
0.09
0.13
0.11
0.05
0.09
0.09
0.10
0.05
0.10
0.02
0.22
0.78
0.56
0.76
0.72
0.70
0.56
0.21
0.05
0.09
0.01
0.00
0.00
0.01
0.02
0.03
0.02
0.04
0.03
0.04
0.04
0.07
0.04
0.06
0.06
0.06
0.04
0.03
0.03
0.00
0.00
0.05
0.05
0.14
0.14
0.16
0.16
0.14
0.11
0.09
0.03
0.01
0.00
0.02
0.01
0.03
0.02
0.03
0.02
0.03
0.02
0.03
0.03
0.03
0.03
0.03
0.03
0.03
0.03
0.01
0.03
0.03
0.02
0.02
0.02
0.01
0.00
0.00
0.00
0.00
0.00
0.01
0.01
0.03
0.03
0.01
0.05
0.05
0.09
0.09
0.01
0.03
0.02
0.03
0.07
0.32
0.14
0.04
0.01
0.18
0.13
0.21
0.13
0.14
0.16
0.18
0.18
0.25
0.04
0.22
0.70
0.56
0.79
0.56
0.56
0.54
0.14
0.16
0.16
0.09
0.10
0.05
0.05
0.09
0.03
0.09
0.03
0.09
0.03
0.03
0.01
0.05
0.03
0.03
0.05
0.10
0.13
0.16
0.18
0.25
0.31
0.31
0.33
0.31
0.35
0.28
0.28
0.18
0.18
0.13
0.13
0.11
0.10
0.10
0.05
0.09
0.05
0.10
0.01
0.09
0.03
0.10
0.03
0.09
0.05
0.05
0.03
0.09
0.09
0.09
0.09
0.09
0.05
0.10
0.09
0.09
0.11
0.10
0.13
0.09
0.13
0.10
0.11
0.09
0.10
0.10
0.05
0.05
0.01
0.00
0.03
0.03
0.34
0.17
0.14
0.03
0.11
0.14
0.16
0.10
0.13
0.16
0.18
0.21
0.28
0.03
0.20
0.68
0.56
0.70
0.58
0.57
0.56
0.19
0.19
0.14
0.13
0.10
0.03
0.05
0.03
0.03
0.00
0.01
0.00
0.00
0.01
0.00
0.01
0.00
0.01
0.01
0.00
0.01
0.01
0.00
0.09
0.05
0.11
0.11
0.14
0.13
0.14
0.11
0.09
0.05
0.03
0.03
0.00
0.00
0.00
0.02
0.03
0.02
0.02
0.02
0.03
0.03
0.03
0.02
0.02
0.03
0.02
0.03
0.02
0.02
0.00
0.03
0.01
0.02
0.02
0.03
0.02
0.01
0.02
0.01
0.02
0.02
0.03
0.03
0.03
0.02
0.03
0.03
0.09
0.17
0.14
0.22
0.45
0.38
0.32
0.20
0.01
0.00
0.01
0.02
0.00
0.00
0.00
0.01
0.01
0.07
0.41
0.81
0.57
0.79
0.70
0.66
0.55
0.14
0.00
0.03
0.01
0.01
0.03
0.03
0.03
0.03
0.04
0.04
0.07
0.09
0.07
0.14
0.14
0.17
0.14
0.17
0.14
0.22
0.09
0.07
0.04
0.02
0.00
0.00
0.01
0.05
0.05
0.09
0.01
0.01
0.01
0.01
0.03
0.06
0.06
0.04
0.04
0.06
0.06
0.06
0.06
0.06
0.04
0.07
0.07
0.09
0.06
0.09
0.06
0.07
0.07
0.09
0.07
0.06
0.07
0.03
0.04
0.03
0.04
0.03
0.03
0.03
0.03
0.02
0.03
0.02
0.02
0.00
0.02
0.03
0.02
0.03
0.04
0.20
0.06
0.27
0.14
0.49
0.20
0.14
0.03
0.10
0.05
0.09
0.01
0.03
0.03
0.03
0.01
0.05
0.41
0.61
0.62
0.64
0.84
0.59
0.57
0.47
0.01
0.00
0.02
0.04
0.06
0.09
0.07
0.17
0.09
0.17
0.14
0.20
0.22
0.27
0.20
0.22
0.22
0.22
0.22
0.20
0.20
0.07
0.06
0.02
0.01
0.01
0.00
0.05
0.05
0.05
0.01
0.01
0.00
0.02
0.03
0.03
0.03
0.04
0.03
0.03
0.03
0.04
0.03
0.04
0.06
0.07
0.06
0.06
0.07
0.06
0.06
0.09
0.06
0.06
0.07
0.04
0.06
0.06
0.09
0.06
0.06
0.07
0.07
0.06
0.07
0.07
0.07
0.04
0.06
0.06
0.04
0.04
0.03
0.04
0.07
0.20
0.09
0.27
0.42
0.38
0.20
0.09
0.03
0.09
0.05
0.00
0.00
0.01
0.03
0.01
0.01
0.07
0.31
0.83
0.56
0.78
0.62
0.64
0.54
0.05
0.00
0.00
0.00
0.03
0.03
0.06
0.03
0.07
0.06
0.07
0.07
0.09
0.06
0.06
0.09
0.07
0.06
0.04
0.04
0.01
0.01
0.05
0.09
0.16
0.14
0.19
0.18
0.21
0.19
0.14
0.14
0.10
0.05
0.03
0.03
0.00
0.00
0.01
0.00
0.00
0.00
0.00
0.01
0.00
0.00
0.00
0.00
0.01
0.00
0.00
0.00
0.01
0.00
0.01
0.00
0.03
0.01
0.00
0.05
0.05
0.09
0.03
0.05
0.03
0.03
0.03
0.09
0.03
0.05
0.03
0.03
0.03
0.00
0.04
0.02
0.09
0.04
0.38
0.17
0.04
0.03
0.11
0.10
0.14
0.09
0.11
0.11
0.13
0.13
0.21
0.07
0.42
0.69
0.57
0.69
0.56
0.57
0.54
0.11
0.14
0.14
0.11
0.09
0.05
0.03
0.01
0.00
0.01
0.01
0.01
0.00
0.00
0.00
0.00
0.00
0.03
0.01
0.09
0.09
0.10
0.11
0.18
0.16
0.18
0.19
0.18
0.18
0.18
0.14
0.11
0.10
0.09
0.09
0.01
0.01
0.01
0.01
0.01
0.00
0.03
0.00
0.03
0.01
0.01
0.00
0.03
0.01
0.03
0.00
0.03
0.05
0.05
0.05
0.05
0.03
0.03
0.05
0.05
0.05
0.03
0.09
0.03
0.03
0.01
0.09
0.03
0.03
0.05
0.00
0.04
0.03
0.06
0.31
0.20
0.27
0.06
0.05
0.13
0.14
0.11
0.13
0.13
0.16
0.13
0.19
0.03
0.04
0.71
0.55
0.66
0.63
0.58
0.58
0.23
0.14
0.10
0.10
0.03
0.00
0.01
0.00
0.00
0.03
0.02
0.04
0.03
0.07
0.09
0.17
0.14
0.22
0.22
0.22
0.22
0.20
0.14
0.07
0.04
0.03
0.02
0.00
0.00
0.03
0.00
0.03
0.02
0.00
0.03
0.03
0.04
0.03
0.03
0.04
0.04
0.04
0.03
0.04
0.03
0.04
0.04
0.06
0.03
0.04
0.03
0.03
0.03
0.03
0.03
0.02
0.03
0.02
0.02
0.02
0.03
0.02
0.02
0.02
0.02
0.01
0.02
0.02
0.02
0.02
0.02
0.03
0.01
0.03
0.09
0.14
0.09
0.20
0.42
0.31
0.20
0.09
0.09
0.05
0.09
0.00
0.03
0.05
0.03
0.03
0.11
0.38
0.54
0.68
0.64
0.85
0.62
0.57
0.49
0.00
0.00
0.00
0.02
0.03
0.03
0.03
0.04
0.07
0.04
0.07
0.07
0.09
0.09
0.17
0.14
0.17
0.14
0.14
0.09
0.09
0.06
0.03
0.02
0.03
0.03
0.10
0.10
0.13
0.11
0.10
0.05
0.01
0.00
0.00
0.03
0.03
0.03
0.03
0.03
0.03
0.03
0.04
0.03
0.04
0.04
0.06
0.06
0.04
0.06
0.04
0.04
0.04
0.06
0.04
0.04
0.04
0.04
0.03
0.04
0.03
0.03
0.02
0.03
0.02
0.00
0.02
0.02
0.02
0.00
0.02
0.00
0.00
0.00
0.00
0.00
0.04
0.02
0.06
0.04
0.38
0.14
0.03
0.01
0.14
0.11
0.13
0.05
0.09
0.10
0.09
0.09
0.11
0.22
0.41
0.72
0.58
0.84
0.58
0.56
0.51
0.05
0.03
0.03
0.00
0.02
0.02
0.03
0.03
0.06
0.04
0.07
0.04
0.07
0.06
0.09
0.07
0.14
0.06
0.09
0.06
0.03
0.02
0.00
0.03
0.11
0.11
0.16
0.16
0.19
0.14
0.14
0.10
0.05
0.01
0.00
0.00
0.03
0.01
0.02
0.02
0.03
0.00
0.01
0.01
0.02
0.00
0.01
0.01
0.01
0.01
0.00
0.03
0.00
0.01
0.00
0.02
0.01
0.00
0.00
0.00
0.00
0.00
0.00
0.01
0.01
0.05
0.05
0.05
0.05
0.10
0.05
0.03
0.01
0.00
0.00
0.01
0.27
0.07
0.03
0.01
0.16
0.14
0.18
0.10
0.13
0.13
0.14
0.14
0.21
0.14
0.31
0.78
0.57
0.76
0.56
0.56
0.54
0.13
0.18
0.13
0.09
0.05
0.01
0.01
0.00
0.03
0.01
0.00
0.00
0.01
0.00
0.02
0.00
0.01
0.00
0.01
0.03
0.01
0.10
0.13
0.18
0.18
0.21
0.28
0.21
0.21
0.18
0.16
0.10
0.11
0.03
0.03
0.00
0.01
0.02
0.01
0.00
0.00
0.00
0.01
0.01
0.00
0.00
0.00
0.01
0.01
0.00
0.00
0.00
0.02
0.00
0.00
0.00
0.00
0.00
0.00
0.00
0.01
0.00
0.01
0.00
0.01
0.01
0.03
0.00
0.05
0.01
0.03
0.03
0.04
0.03
0.09
0.34
0.31
0.17
0.17
0.05
0.03
0.11
0.03
0.10
0.09
0.11
0.11
0.14
0.03
0.27
0.72
0.57
0.66
0.57
0.57
0.56
0.14
0.10
0.05
0.01
0.00
0.01
0.03
0.01
0.03
0.02
0.03
0.03
0.06
0.04
0.06
0.03
0.09
0.06
0.03
0.07
0.04
0.03
0.01
0.01
0.01
0.03
0.09
0.03
0.05
0.01
0.00
0.01
0.00
0.03
0.03
0.03
0.06
0.06
0.07
0.07
0.09
0.06
0.09
0.06
0.09
0.06
0.06
0.07
0.06
0.06
0.04
0.06
0.06
0.06
0.03
0.07
0.04
0.04
0.04
0.06
0.04
0.04
0.06
0.04
0.04
0.03
0.07
0.04
0.04
0.04
0.07
0.03
0.06
0.04
0.14
0.27
0.20
0.38
0.32
0.52
0.27
0.27
0.03
0.00
0.01
0.01
0.00
0.00
0.00
0.00
0.01
0.01
0.42
0.70
0.09
0.72
0.85
0.67
0.57
0.44
0.01
0.01
0.02
0.03
0.03
0.06
0.06
0.06
0.06
0.09
0.06
0.07
0.14
0.14
0.09
0.20
0.17
0.14
0.17
0.14
0.17
0.07
0.07
0.02
0.01
0.03
0.03
0.05
0.05
0.05
0.05
0.01
0.00
0.01
0.03
0.04
0.04
0.06
0.03
0.06
0.04
0.09
0.06
0.07
0.06
0.06
0.09
0.06
0.07
0.06
0.07
0.06
0.07
0.04
0.07
0.04
0.06
0.04
0.06
0.03
0.03
0.04
0.03
0.03
0.02
0.04
0.03
0.03
0.03
0.03
0.03
0.03
0.03
0.02
0.03
0.03
0.20
0.03
0.22
0.17
0.51
0.14
0.09
0.01
0.11
0.13
0.09
0.03
0.05
0.10
0.09
0.09
0.14
0.34
0.61
0.45
0.68
0.85
0.64
0.57
0.45
0.03
0.03
0.03
0.01
0.01
0.03
0.02
0.03
0.03
0.04
0.04
0.06
0.06
0.04
0.09
0.07
0.07
0.07
0.14
0.04
0.06
0.03
0.01
0.03
0.03
0.10
0.13
0.14
0.13
0.13
0.13
0.05
0.03
0.00
0.00
0.01
0.00
0.02
0.02
0.02
0.00
0.01
0.00
0.00
0.00
0.01
0.02
0.00
0.01
0.00
0.00
0.00
0.00
0.01
0.01
0.03
0.05
0.01
0.03
0.01
0.05
0.03
0.05
0.01
0.05
0.05
0.05
0.09
0.09
0.05
0.09
0.09
0.09
0.05
0.03
0.01
0.04
0.03
0.31
0.06
0.03
0.05
0.19
0.21
0.18
0.18
0.18
0.18
0.21
0.23
0.28
0.07
0.41
0.61
0.62
0.78
0.60
0.58
0.51
0.14
0.21
0.16
0.14
0.11
0.13
0.05
0.03
0.09
0.01
0.09
0.03
0.05
0.00
0.03
0.03
0.03
0.05
0.05
0.09
0.11
0.13
0.19
0.23
0.28
0.29
0.29
0.31
0.28
0.28
0.18
0.13
0.14
0.11
0.11
0.05
0.03
0.05
0.03
0.03
0.05
0.03
0.01
0.01
0.03
0.03
0.03
0.05
0.01
0.05
0.03
0.05
0.00
0.05
0.09
0.05
0.03
0.03
0.05
0.01
0.03
0.05
0.01
0.00
0.01
0.03
0.01
0.01
0.05
0.01
0.05
0.00
0.03
0.00
0.04
0.31
0.17
0.14
0.07
0.11
0.11
0.13
0.13
0.14
0.13
0.16
0.16
0.19
0.00
0.07
0.70
0.56
0.63
0.58
0.56
0.58
0.28
0.14
0.09
0.09
0.05
0.03
0.00
0.01
0.00
0.00
0.02
0.01
0.03
0.02
0.03
0.02
0.03
0.03
0.02
0.03
0.01
0.00
0.00
0.03
0.09
0.09
0.11
0.10
0.11
0.09
0.10
0.05
0.05
0.01
0.00
0.00
0.02
0.03
0.04
0.03
0.06
0.04
0.06
0.04
0.06
0.03
0.06
0.04
0.03
0.04
0.03
0.03
0.02
0.02
0.02
0.03
0.02
0.02
0.02
0.03
0.02
0.03
0.02
0.02
0.02
0.02
0.03
0.01
0.01
0.00
0.01
0.01
0.07
0.03
0.17
0.17
0.41
0.27
0.09
0.03
0.09
0.09
0.10
0.05
0.09
0.09
0.11
0.09
0.09
0.27
0.68
0.16
0.73
0.82
0.67
0.57
0.40
0.01
0.00
0.00
0.03
0.03
0.06
0.04
0.07
0.09
0.14
0.14
0.14
0.17
0.20
0.22
0.31
0.31
0.31
0.34
0.31
0.31
0.22
0.20
0.09
0.04
0.03
0.02
0.00
0.01
0.00
0.00
0.01
0.02
0.04
0.04
0.07
0.07
0.06
0.03
0.04
0.04
0.04
0.04
0.06
0.06
0.04
0.07
0.06
0.14
0.09
0.14
0.06
0.09
0.07
0.09
0.07
0.06
0.07
0.04
0.03
0.04
0.04
0.03
0.04
0.02
0.03
0.02
0.02
0.03
0.03
0.03
0.14
0.07
0.20
0.22
0.46
0.32
0.20
0.04
0.05
0.05
0.03
0.00
0.03
0.01
0.03
0.03
0.09
0.34
0.66
0.03
0.72
0.84
0.66
0.58
0.31
0.03
0.00
0.00
0.03
0.03
0.03
0.06
0.06
0.06
0.07
0.14
0.09
0.17
0.20
0.22
0.22
0.22
0.20
0.22
0.14
0.17
0.09
0.03
0.01
0.01
0.01
0.03
0.03
0.05
0.01
0.01
0.01
0.01
0.03
0.03
0.04
0.04
0.04
0.04
0.04
0.03
0.03
0.03
0.03
0.03
0.04
0.04
0.03
0.06
0.03
0.04
0.03
0.04
0.03
0.03
0.03
0.03
0.03
0.02
0.03
0.02
0.02
0.02
0.03
0.01
0.02
0.02
0.02
0.01
0.02
0.00
0.02
0.00
0.03
0.06
0.07
0.07
0.20
0.34
0.31
0.14
0.03
0.05
0.14
0.10
0.09
0.09
0.09
0.09
0.09
0.10
0.04
0.17
0.82
0.57
0.78
0.63
0.64
0.54
0.11
0.10
0.09
0.03
0.00
0.00
0.00
0.00
0.00
0.01
0.01
0.02
0.00
0.03
0.00
0.02
0.00
0.01
0.00
0.01
0.03
0.09
0.14
0.18
0.19
0.25
0.28
0.29
0.28
0.29
0.23
0.19
0.14
0.13
0.10
0.09
0.09
0.01
0.05
0.01
0.05
0.01
0.03
0.00
0.03
0.03
0.05
0.05
0.03
0.05
0.03
0.10
0.01
0.09
0.09
0.09
0.03
0.10
0.09
0.09
0.09
0.09
0.03
0.09
0.03
0.09
0.10
0.03
0.05
0.03
0.03
0.01
0.00
0.04
0.03
0.31
0.09
0.06
0.01
0.18
0.16
0.19
0.13
0.18
0.14
0.19
0.14
0.25
0.02
0.06
0.74
0.57
0.64
0.56
0.57
0.56
0.16
0.18
0.13
0.13
0.10
0.03
0.09
0.03
0.01
0.01
0.01
0.00
0.00
0.00
0.01
0.03
0.00
0.00
0.00
0.05
0.03
0.10
0.11
0.14
0.19
0.19
0.18
0.19
0.18
0.16
0.14
0.05
0.10
0.03
0.05
0.01
0.03
0.00
0.00
0.00
0.00
0.00
0.01
0.03
0.00
0.01
0.01
0.03
0.01
0.05
0.03
0.09
0.03
0.05
0.05
0.05
0.05
0.05
0.03
0.03
0.03
0.03
0.03
0.03
0.03
0.01
0.01
0.01
0.03
0.03
0.01
0.01
0.03
0.03
0.07
0.14
0.22
0.06
0.03
0.10
0.16
0.14
0.11
0.14
0.13
0.16
0.11
0.18
0.03
0.14
0.75
0.58
0.72
0.58
0.56
0.55
0.11
0.05
0.05
0.00
0.00
0.02
0.00
0.03
0.03
0.04
0.03
0.07
0.06
0.14
0.09
0.20
0.20
0.17
0.17
0.20
0.20
0.09
0.09
0.03
0.03
0.00
0.01
0.05
0.05
0.11
0.05
0.05
0.05
0.01
0.00
0.00
0.03
0.03
0.02
0.02
0.02
0.03
0.01
0.02
0.02
0.02
0.01
0.02
0.01
0.02
0.00
0.00
0.00
0.00
0.00
0.01
0.00
0.03
0.01
0.05
0.00
0.01
0.01
0.03
0.03
0.03
0.05
0.03
0.05
0.03
0.05
0.01
0.01
0.03
0.01
0.07
0.03
0.34
0.09
0.04
0.00
0.14
0.13
0.14
0.10
0.10
0.11
0.13
0.10
0.14
0.22
0.32
0.75
0.63
0.85
0.63
0.56
0.51
0.09
0.05
0.03
0.00
0.00
0.03
0.02
0.03
0.03
0.04
0.04
0.07
0.07
0.07
0.14
0.17
0.17
0.14
0.14
0.14
0.07
0.03
0.03
0.00
0.00
0.05
0.05
0.11
0.09
0.09
0.05
0.03
0.00
0.02
0.02
0.03
0.03
0.03
0.03
0.03
0.03
0.04
0.03
0.03
0.03
0.03
0.02
0.03
0.04
0.03
0.03
0.03
0.04
0.02
0.03
0.03
0.03
0.01
0.02
0.02
0.03
0.02
0.03
0.02
0.01
0.03
0.00
0.02
0.01
0.03
0.01
0.01
0.01
0.02
0.03
0.09
0.07
0.09
0.09
0.38
0.27
0.07
0.04
0.11
0.11
0.13
0.03
0.09
0.10
0.09
0.09
0.11
0.09
0.22
0.81
0.57
0.79
0.59
0.63
0.54
0.10
0.05
0.05
0.01
0.00
0.00
0.01
0.02
0.03
0.02
0.04
0.03
0.03
0.02
0.04
0.03
0.04
0.02
0.03
0.02
0.01
0.00
0.01
0.09
0.14
0.13
0.21
0.18
0.19
0.14
0.18
0.13
0.10
0.05
0.00
0.01
0.01
0.02
0.01
0.00
0.01
0.00
0.01
0.00
0.00
0.01
0.00
0.00
0.00
0.00
0.00
0.01
0.01
0.03
0.03
0.01
0.09
0.05
0.09
0.09
0.09
0.05
0.11
0.11
0.10
0.10
0.11
0.10
0.09
0.11
0.10
0.10
0.05
0.09
0.03
0.01
0.04
0.04
0.27
0.09
0.03
0.05
0.16
0.13
0.16
0.13
0.18
0.18
0.16
0.16
0.19
0.03
0.62
0.18
0.60
0.69
0.63
0.57
0.45
0.19
0.16
0.18
0.10
0.13
0.10
0.13
0.05
0.09
0.05
0.09
0.10
0.05
0.05
0.03
0.05
0.03
0.10
0.09
0.11
0.14
0.18
0.19
0.25
0.28
0.25
0.25
0.28
0.25
0.19
0.16
0.14
0.13
0.03
0.03
0.00
0.03
0.00
0.00
0.00
0.00
0.01
0.00
0.00
0.00
0.01
0.01
0.00
0.01
0.01
0.00
0.00
0.01
0.00
0.00
0.03
0.00
0.00
0.00
0.03
0.00
0.01
0.03
0.01
0.03
0.03
0.05
0.01
0.03
0.03
0.05
0.01
0.01
0.02
0.02
0.04
0.04
0.31
0.20
0.09
0.03
0.11
0.10
0.14
0.10
0.11
0.11
0.13
0.13
0.21
0.06
0.49
0.62
0.57
0.66
0.56
0.56
0.51
0.11
0.10
0.05
0.03
0.03
0.01
0.00
0.00
0.01
0.02
0.03
0.00
0.06
0.03
0.07
0.06
0.06
0.06
0.06
0.06
0.06
0.04
0.02
0.01
0.00
0.05
0.10
0.10
0.13
0.11
0.11
0.09
0.09
0.03
0.00
0.00
0.01
0.00
0.01
0.01
0.02
0.01
0.02
0.01
0.02
0.02
0.03
0.03
0.02
0.03
0.00
0.01
0.01
0.00
0.00
0.02
0.00
0.00
0.00
0.00
0.01
0.01
0.01
0.00
0.00
0.00
0.01
0.00
0.01
0.00
0.01
0.00
0.03
0.07
0.06
0.17
0.27
0.45
0.22
0.17
0.03
0.05
0.09
0.09
0.05
0.05
0.11
0.09
0.11
0.14
0.27
0.62
0.27
0.71
0.85
0.67
0.57
0.44
0.01
0.09
0.01
0.01
0.03
0.03
0.04
0.04
0.06
0.07
0.09
0.14
0.07
0.20
0.17
0.22
0.17
0.20
0.20
0.17
0.14
0.09
0.06
0.02
0.01
0.01
0.05
0.09
0.05
0.10
0.05
0.03
0.00
0.00
0.01
0.03
0.03
0.03
0.03
0.04
0.02
0.03
0.03
0.03
0.03
0.03
0.03
0.03
0.03
0.03
0.03
0.03
0.02
0.02
0.02
0.02
0.03
0.00
0.00
0.01
0.01
0.00
0.00
0.00
0.00
0.00
0.01
0.00
0.00
0.00
0.03
0.00
0.01
0.00
0.00
0.03
0.03
0.04
0.09
0.38
0.32
0.14
0.06
0.10
0.10
0.11
0.03
0.03
0.05
0.10
0.09
0.11
0.14
0.22
0.79
0.58
0.82
0.59
0.57
0.53
0.11
0.10
0.10
0.05
0.05
0.01
0.01
0.00
0.01
0.01
0.01
0.02
0.03
0.03
0.03
0.03
0.06
0.03
0.03
0.03
0.03
0.00
0.00
0.05
0.09
0.13
0.13
0.14
0.18
0.13
0.13
0.09
0.10
0.01
0.00
0.03
0.00
0.02
0.02
0.02
0.03
0.02
0.03
0.01
0.03
0.01
0.03
0.03
0.03
0.01
0.02
0.01
0.02
0.02
0.01
0.01
0.00
0.00
0.00
0.02
0.00
0.01
0.00
0.01
0.00
0.01
0.01
0.00
0.00
0.00
0.00
0.00
0.03
0.06
0.06
0.06
0.14
0.41
0.22
0.17
0.04
0.09
0.09
0.10
0.03
0.03
0.05
0.09
0.10
0.14
0.09
0.20
0.79
0.56
0.79
0.57
0.58
0.54
0.10
0.14
0.11
0.09
0.03
0.05
0.01
0.03
0.03
0.01
0.00
0.01
0.01
0.00
0.01
0.00
0.00
0.00
0.05
0.01
0.09
0.10
0.14
0.19
0.19
0.28
0.28
0.28
0.25
0.23
0.19
0.16
0.11
0.10
0.03
0.01
0.01
0.00
0.00
0.02
0.01
0.02
0.00
0.01
0.01
0.03
0.00
0.03
0.01
0.02
0.00
0.00
0.02
0.02
0.00
0.00
0.01
0.00
0.00
0.00
0.00
0.01
0.00
0.00
0.01
0.01
0.00
0.00
0.00
0.00
0.01
0.00
0.00
0.06
0.06
0.07
0.07
0.34
0.27
0.20
0.09
0.05
0.09
0.14
0.03
0.10
0.13
0.10
0.10
0.18
0.02
0.09
0.73
0.58
0.63
0.57
0.57
0.57
0.13
0.10
0.09
0.01
0.05
0.00
0.00
0.02
0.02
0.01
0.02
0.02
0.02
0.00
0.02
0.01
0.01
0.00
0.02
0.00
0.00
0.00
0.03
0.03
0.10
0.10
0.14
0.11
0.13
0.10
0.10
0.03
0.03
0.00
0.00
0.02
0.03
0.01
0.02
0.03
0.03
0.03
0.02
0.02
0.03
0.01
0.02
0.02
0.02
0.02
0.01
0.02
0.00
0.01
0.00
0.01
0.00
0.01
0.00
0.01
0.01
0.02
0.01
0.02
0.02
0.02
0.02
0.01
0.02
0.02
0.02
0.00
0.03
0.06
0.14
0.17
0.20
0.45
0.34
0.27
0.07
0.00
0.05
0.05
0.03
0.01
0.09
0.05
0.09
0.11
0.17
0.34
0.79
0.56
0.81
0.63
0.56
0.55
0.03
0.00
0.02
0.01
0.04
0.04
0.04
0.06
0.06
0.06
0.07
0.06
0.07
0.09
0.07
0.09
0.14
0.14
0.06
0.14
0.06
0.07
0.03
0.02
0.00
0.03
0.05
0.10
0.14
0.13
0.10
0.11
0.09
0.05
0.00
0.01
0.01
0.01
0.02
0.00
0.02
0.01
0.01
0.03
0.01
0.03
0.01
0.03
0.02
0.02
0.01
0.01
0.01
0.01
0.00
0.01
0.00
0.00
0.00
0.00
0.00
0.00
0.00
0.00
0.02
0.01
0.01
0.00
0.02
0.01
0.01
0.02
0.00
0.02
0.00
0.03
0.09
0.04
0.17
0.14
0.42
0.14
0.07
0.01
0.14
0.10
0.10
0.03
0.03
0.09
0.03
0.05
0.11
0.32
0.65
0.34
0.66
0.83
0.63
0.57
0.37
0.00
0.03
0.01
0.02
0.03
0.03
0.07
0.06
0.07
0.07
0.14
0.09
0.17
0.17
0.22
0.17
0.17
0.20
0.17
0.17
0.14
0.09
0.03
0.03
0.00
0.01
0.05
0.05
0.09
0.09
0.03
0.03
0.00
0.00
0.03
0.03
0.04
0.03
0.04
0.03
0.03
0.04
0.04
0.04
0.03
0.06
0.04
0.07
0.04
0.06
0.04
0.06
0.04
0.06
0.04
0.04
0.04
0.03
0.03
0.03
0.04
0.03
0.03
0.02
0.06
0.03
0.06
0.04
0.04
0.03
0.04
0.03
0.03
0.04
0.03
0.14
0.14
0.17
0.22
0.42
0.38
0.20
0.09
0.05
0.09
0.09
0.01
0.03
0.03
0.09
0.03
0.09
0.03
0.17
0.79
0.57
0.78
0.67
0.66
0.53
0.11
0.00
0.00
0.02
0.01
0.04
0.03
0.06
0.04
0.07
0.06
0.07
0.09
0.09
0.09
0.09
0.17
0.06
0.09
0.04
0.06
0.02
0.01
0.03
0.05
0.13
0.11
0.13
0.16
0.14
0.11
0.09
0.05
0.00
0.00
0.03
0.03
0.06
0.04
0.03
0.06
0.04
0.07
0.06
0.06
0.06
0.06
0.06
0.09
0.04
0.06
0.06
0.04
0.03
0.03
0.03
0.03
0.03
0.01
0.02
0.00
0.00
0.00
0.01
0.03
0.01
0.03
0.05
0.09
0.05
0.05
0.10
0.03
0.00
0.02
0.03
0.03
0.17
0.17
0.03
0.01
0.16
0.21
0.23
0.18
0.21
0.21
0.19
0.21
0.25
0.13
0.00
0.71
0.56
0.67
0.62
0.63
0.58
0.28
0.18
0.16
0.14
0.16
0.13
0.09
0.10
0.09
0.10
0.05
0.09
0.09
0.03
0.09
0.09
0.03
0.05
0.10
0.13
0.11
0.16
0.19
0.19
0.23
0.25
0.28
0.23
0.25
0.21
0.16
0.10
0.09
0.03
0.00
0.00
0.01
0.01
0.03
0.00
0.02
0.02
0.02
0.01
0.02
0.00
0.01
0.00
0.01
0.00
0.03
0.03
0.03
0.05
0.01
0.03
0.05
0.05
0.03
0.01
0.03
0.01
0.05
0.05
0.03
0.01
0.01
0.01
0.03
0.03
0.01
0.03
0.01
0.03
0.03
0.06
0.14
0.32
0.27
0.09
0.02
0.11
0.10
0.05
0.09
0.05
0.10
0.09
0.10
0.03
0.06
0.66
0.37
0.57
0.58
0.56
0.58
0.28
0.09
0.01
0.00
0.00
0.01
0.02
0.03
0.03
0.03
0.03
0.06
0.04
0.06
0.06
0.09
0.09
0.07
0.07
0.07
0.06
0.04
0.03
0.01
0.00
0.01
0.01
0.09
0.05
0.05
0.01
0.01
0.00
0.02
0.03
0.03
0.04
0.07
0.06
0.17
0.09
0.14
0.09
0.17
0.09
0.17
0.14
0.14
0.09
0.17
0.09
0.09
0.09
0.07
0.09
0.04
0.07
0.06
0.06
0.03
0.04
0.03
0.04
0.03
0.03
0.03
0.03
0.04
0.03
0.03
0.03
0.03
0.02
0.03
0.14
0.14
0.20
0.22
0.41
0.31
0.17
0.07
0.05
0.09
0.05
0.00
0.01
0.05
0.01
0.03
0.05
0.22
0.45
0.80
0.59
0.85
0.63
0.58
0.51
0.01
0.01
0.01
0.01
0.03
0.03
0.06
0.06
0.06
0.06
0.07
0.09
0.14
0.17
0.22
0.22
0.17
0.22
0.20
0.20
0.17
0.17
0.06
0.04
0.02
0.01
0.01
0.03
0.01
0.05
0.03
0.00
0.00
0.00
0.02
0.03
0.03
0.03
0.04
0.04
0.06
0.03
0.06
0.04
0.04
0.06
0.06
0.06
0.04
0.07
0.07
0.09
0.07
0.07
0.06
0.04
0.06
0.04
0.04
0.03
0.06
0.03
0.03
0.03
0.03
0.03
0.03
0.03
0.03
0.03
0.03
0.03
0.03
0.03
0.03
0.04
0.09
0.09
0.22
0.20
0.46
0.27
0.09
0.03
0.11
0.03
0.03
0.01
0.01
0.05
0.03
0.03
0.10
0.27
0.62
0.49
0.64
0.83
0.63
0.57
0.43
0.01
0.00
0.00
0.01
0.03
0.03
0.03
0.02
0.03
0.03
0.04
0.04
0.06
0.06
0.06
0.04
0.07
0.04
0.06
0.04
0.03
0.00
0.01
0.05
0.13
0.13
0.14
0.14
0.18
0.11
0.13
0.09
0.05
0.00
0.00
0.01
0.01
0.03
0.00
0.02
0.02
0.03
0.02
0.03
0.03
0.03
0.04
0.03
0.04
0.03
0.04
0.03
0.03
0.03
0.03
0.03
0.01
0.02
0.01
0.00
0.00
0.01
0.01
0.00
0.01
0.00
0.05
0.00
0.03
0.03
0.03
0.03
0.01
0.00
0.07
0.01
0.17
0.09
0.41
0.07
0.06
0.05
0.11
0.11
0.05
0.05
0.05
0.09
0.05
0.09
0.00
0.17
0.78
0.58
0.78
0.64
0.68
0.56
0.21
0.10
0.11
0.05
0.03
0.00
0.00
0.00
0.01
0.01
0.01
0.03
0.03
0.03
0.04
0.03
0.03
0.02
0.03
0.01
0.00
0.00
0.03
0.09
0.13
0.14
0.18
0.18
0.19
0.14
0.14
0.11
0.10
0.01
0.03
0.00
0.01
0.01
0.01
0.03
0.03
0.01
0.03
0.02
0.04
0.02
0.03
0.02
0.03
0.02
0.02
0.01
0.00
0.00
0.00
0.00
0.01
0.01
0.03
0.00
0.01
0.00
0.05
0.01
0.03
0.01
0.05
0.03
0.05
0.09
0.05
0.09
0.05
0.10
0.03
0.00
0.03
0.01
0.01
0.17
0.03
0.00
0.11
0.25
0.25
0.25
0.19
0.21
0.23
0.18
0.23
0.29
0.00
0.32
0.60
0.56
0.75
0.56
0.58
0.53
0.14
0.21
0.18
0.16
0.13
0.14
0.10
0.14
0.11
0.13
0.11
0.11
0.13
0.10
0.13
0.10
0.14
0.16
0.19
0.18
0.23
0.28
0.33
0.33
0.38
0.38
0.40
0.40
0.35
0.29
0.28
0.21
0.18
0.13
0.13
0.11
0.10
0.10
0.05
0.09
0.09
0.09
0.09
0.05
0.10
0.05
0.09
0.05
0.11
0.09
0.09
0.09
0.10
0.10
0.11
0.11
0.10
0.10
0.10
0.10
0.11
0.11
0.10
0.10
0.10
0.11
0.11
0.13
0.10
0.11
0.10
0.00
0.03
0.01
0.00
0.22
0.04
0.03
0.01
0.18
0.23
0.23
0.18
0.21
0.21
0.19
0.19
0.33
0.02
0.20
0.66
0.56
0.70
0.57
0.57
0.54
0.16
0.19
0.13
0.13
0.11
0.05
0.01
0.00
0.00
0.00
0.01
0.03
0.02
0.03
0.03
0.04
0.03
0.04
0.03
0.03
0.03
0.00
0.00
0.03
0.05
0.11
0.11
0.13
0.11
0.14
0.10
0.09
0.05
0.03
0.00
0.01
0.02
0.03
0.03
0.04
0.03
0.06
0.03
0.04
0.03
0.06
0.04
0.04
0.04
0.03
0.03
0.03
0.03
0.03
0.02
0.01
0.02
0.01
0.02
0.01
0.02
0.00
0.00
0.00
0.01
0.01
0.00
0.01
0.00
0.00
0.01
0.07
0.02
0.14
0.20
0.34
0.17
0.07
0.01
0.13
0.10
0.10
0.11
0.09
0.10
0.11
0.10
0.09
0.22
0.71
0.49
0.75
0.78
0.69
0.58
0.25
0.03
0.03
0.00
0.01
0.01
0.03
0.03
0.04
0.03
0.07
0.06
0.07
0.07
0.09
0.09
0.09
0.14
0.07
0.07
0.06
0.07
0.03
0.01
0.00
0.01
0.10
0.09
0.10
0.10
0.10
0.05
0.03
0.00
0.02
0.02
0.04
0.03
0.04
0.03
0.04
0.03
0.06
0.04
0.03
0.06
0.06
0.04
0.04
0.07
0.03
0.04
0.04
0.03
0.03
0.03
0.03
0.03
0.02
0.02
0.03
0.02
0.02
0.02
0.03
0.02
0.03
0.03
0.03
0.02
0.04
0.03
0.03
0.04
0.17
0.14
0.20
0.22
0.46
0.32
0.20
0.04
0.05
0.03
0.03
0.01
0.00
0.03
0.00
0.01
0.11
0.32
0.60
0.53
0.62
0.79
0.58
0.57
0.44
0.00
0.01
0.00
0.02
0.03
0.03
0.04
0.03
0.06
0.03
0.07
0.06
0.07
0.04
0.09
0.07
0.04
0.06
0.04
0.03
0.01
0.00
0.05
0.09
0.13
0.13
0.18
0.18
0.19
0.14
0.13
0.10
0.05
0.01
0.00
0.02
0.03
0.02
0.04
0.03
0.04
0.03
0.06
0.04
0.04
0.04
0.06
0.07
0.04
0.07
0.03
0.06
0.02
0.03
0.03
0.03
0.03
0.02
0.01
0.01
0.07
0.09
0.14
0.00
0.44
0.51
0.57
0.60
0.79
0.86
0.87
0.88
0.70
0.35
0.11
0.54
0.53
0.50
0.38
0.01
0.14
0.32
0.41
0.45
0.49
0.52
0.53
0.57
0.61
0.62
0.63
0.64
0.66
0.66
0.68
0.70
0.72
0.79
0.82
0.84
0.85
0.86
0.86
0.85
0.83
0.79
0.71
0.66
0.55
0.49
0.31
0.20
0.07
0.14
0.09
0.07
0.07
0.09
0.14
0.09
0.17
0.14
0.09
0.07
0.09
0.06
0.06
0.03
0.03
0.04
0.03
0.04
0.03
0.03
0.02
0.03
0.01
0.03
0.01
0.01
0.00
0.03
0.00
0.01
0.01
0.01
0.00
0.01
0.00
0.01
0.00
0.03
0.01
0.00
0.00
0.00
0.00
0.03
0.03
0.00
0.03
0.03
0.05
0.03
0.00
0.00
0.03
0.04
0.31
0.17
0.14
0.03
0.11
0.09
0.16
0.13
0.14
0.18
0.16
0.25
0.33
0.13
0.38
0.20
0.58
0.57
0.56
0.57
0.54
0.25
0.28
0.21
0.19
0.14
0.14
0.11
0.13
0.10
0.11
0.05
0.11
0.05
0.10
0.10
0.10
0.11
0.10
0.16
0.16
0.18
0.21
0.25
0.21
0.28
0.28
0.28
0.29
0.33
0.31
0.28
0.25
0.19
0.16
0.13
0.09
0.03
0.00
0.01
0.01
0.02
0.03
0.03
0.01
0.03
0.03
0.03
0.03
0.03
0.04
0.03
0.04
0.03
0.03
0.03
0.03
0.03
0.03
0.03
0.02
0.03
0.01
0.02
0.00
0.00
0.00
0.04
0.06
0.03
0.17
0.27
0.34
0.27
0.09
0.00
0.09
0.09
0.05
0.09
0.05
0.10
0.09
0.13
0.10
0.22
0.65
0.03
0.68
0.78
0.66
0.56
0.50
0.11
0.16
0.11
0.05
0.01
0.01
0.00
0.01
0.00
0.01
0.00
0.00
0.01
0.03
0.02
0.03
0.03
0.03
0.02
0.02
0.02
0.00
0.01
0.09
0.11
0.14
0.16
0.19
0.16
0.19
0.13
0.11
0.05
0.05
0.00
0.00
0.00
0.01
0.00
0.00
0.00
0.01
0.00
0.00
0.00
0.00
0.00
0.00
0.00
0.01
0.01
0.00
0.00
0.00
0.00
0.01
0.00
0.00
0.00
0.01
0.01
0.03
0.01
0.03
0.00
0.03
0.02
0.04
0.04
0.41
0.14
0.14
0.00
0.13
0.16
0.16
0.13
0.13
0.16
0.18
0.14
0.18
0.04
0.22
0.79
0.58
0.81
0.67
0.67
0.58
0.21
0.11
0.09
0.05
0.00
0.02
0.00
0.03
0.03
0.03
0.03
0.04
0.04
0.06
0.06
0.06
0.06
0.04
0.06
0.03
0.03
0.00
0.00
0.10
0.11
0.18
0.16
0.23
0.21
0.18
0.16
0.13
0.10
0.03
0.03
0.00
0.01
0.01
0.00
0.02
0.01
0.01
0.00
0.01
0.01
0.00
0.02
0.00
0.02
0.00
0.01
0.00
0.02
0.01
0.02
0.01
0.01
0.02
0.00
0.01
0.00
0.01
0.01
0.01
0.00
0.01
0.00
0.00
0.00
0.00
0.00
0.06
0.03
0.07
0.04
0.34
0.14
0.03
0.00
0.16
0.13
0.16
0.10
0.13
0.11
0.13
0.10
0.16
0.31
0.55
0.64
0.66
0.82
0.62
0.57
0.53
0.11
0.09
0.05
0.00
0.00
0.03
0.01
0.03
0.03
0.04
0.04
0.04
0.06
0.04
0.09
0.04
0.07
0.03
0.04
0.03
0.01
0.01
0.05
0.14
0.18
0.21
0.23
0.25
0.19
0.18
0.16
0.11
0.09
0.03
0.03
0.00
0.00
0.01
0.00
0.00
0.01
0.00
0.01
0.00
0.01
0.00
0.00
0.00
0.02
0.01
0.03
0.01
0.03
0.02
0.03
0.01
0.02
0.01
0.00
0.01
0.00
0.01
0.00
0.00
0.00
0.00
0.00
0.00
0.00
0.01
0.04
0.02
0.17
0.09
0.41
0.14
0.07
0.00
0.11
0.11
0.09
0.09
0.05
0.13
0.10
0.13
0.13
0.22
0.62
0.45
0.58
0.72
0.63
0.57
0.50
0.09
0.18
0.11
0.09
0.01
0.05
0.03
0.00
0.03
0.00
0.01
0.00
0.01
0.00
0.00
0.00
0.00
0.01
0.05
0.03
0.13
0.11
0.18
0.21
0.28
0.23
0.28
0.29
0.19
0.18
0.13
0.10
0.05
0.03
0.00
0.00
0.00
0.01
0.01
0.01
0.01
0.01
0.01
0.03
0.02
0.03
0.03
0.03
0.02
0.03
0.03
0.03
0.02
0.03
0.01
0.01
0.02
0.02
0.03
0.01
0.03
0.02
0.02
0.01
0.03
0.01
0.01
0.00
0.03
0.07
0.03
0.20
0.20
0.38
0.20
0.14
0.03
0.05
0.09
0.09
0.10
0.05
0.11
0.09
0.10
0.10
0.22
0.61
0.58
0.62
0.76
0.63
0.56
0.51
0.05
0.05
0.00
0.00
0.01
0.03
0.03
0.03
0.03
0.07
0.06
0.07
0.07
0.17
0.09
0.17
0.17
0.22
0.17
0.20
0.14
0.09
0.04
0.02
0.01
0.05
0.05
0.10
0.09
0.10
0.00
0.01
0.00
0.02
0.03
0.03
0.03
0.04
0.03
0.04
0.03
0.04
0.03
0.04
0.04
0.07
0.03
0.07
0.07
0.09
0.06
0.07
0.09
0.07
0.06
0.06
0.06
0.04
0.04
0.03
0.06
0.03
0.04
0.03
0.03
0.03
0.03
0.03
0.02
0.03
0.02
0.02
0.01
0.01
0.01
0.04
0.06
0.04
0.09
0.22
0.34
0.06
0.03
0.09
0.14
0.14
0.11
0.11
0.09
0.11
0.09
0.09
0.03
0.41
0.78
0.51
0.78
0.79
0.71
0.57
0.23
0.03
0.05
0.00
0.01
0.03
0.02
0.03
0.04
0.07
0.06
0.14
0.09
0.14
0.17
0.17
0.22
0.20
0.20
0.17
0.14
0.07
0.03
0.00
0.01
0.10
0.11
0.14
0.11
0.11
0.05
0.03
0.01
0.02
0.04
0.06
0.04
0.07
0.03
0.06
0.04
0.06
0.04
0.06
0.04
0.04
0.04
0.06
0.04
0.06
0.06
0.06
0.06
0.06
0.07
0.06
0.06
0.04
0.06
0.03
0.06
0.03
0.03
0.01
0.02
0.02
0.01
0.00
0.00
0.00
0.00
0.01
0.01
0.00
0.01
0.00
0.03
0.00
0.03
0.01
0.07
0.06
0.34
0.07
0.02
0.01
0.18
0.16
0.13
0.11
0.11
0.14
0.10
0.14
0.11
0.32
0.59
0.61
0.68
0.85
0.63
0.57
0.50
0.10
0.09
0.03
0.01
0.02
0.00
0.01
0.02
0.03
0.03
0.04
0.03
0.04
0.04
0.06
0.04
0.04
0.06
0.03
0.03
0.00
0.00
0.05
0.10
0.18
0.19
0.25
0.23
0.25
0.19
0.16
0.11
0.05
0.03
0.00
0.00
0.02
0.01
0.01
0.00
0.02
0.01
0.01
0.00
0.00
0.00
0.01
0.00
0.00
0.03
0.01
0.03
0.01
0.03
0.01
0.02
0.00
0.01
0.00
0.00
0.01
0.00
0.01
0.00
0.00
0.03
0.00
0.01
0.00
0.05
0.00
0.03
0.00
0.03
0.01
0.03
0.03
0.00
0.03
0.03
0.05
0.03
0.02
0.03
0.04
0.27
0.09
0.03
0.00
0.14
0.18
0.14
0.14
0.10
0.14
0.11
0.11
0.11
0.07
0.20
0.82
0.57
0.78
0.63
0.64
0.55
0.14
0.13
0.10
0.05
0.03
0.01
0.01
0.00
0.00
0.01
0.00
0.02
0.00
0.02
0.01
0.01
0.00
0.01
0.01
0.05
0.09
0.13
0.18
0.25
0.29
0.38
0.38
0.44
0.38
0.37
0.31
0.28
0.21
0.14
0.14
0.10
0.05
0.09
0.10
0.05
0.09
0.09
0.03
0.00
0.09
0.01
0.01
0.01
0.01
0.00
0.01
0.02
0.02
0.00
0.03
0.00
0.02
0.00
0.00
0.01
0.00
0.01
0.01
0.00
0.00
0.03
0.01
0.01
0.03
0.00
0.01
0.00
0.03
0.01
0.01
0.00
0.01
0.00
0.01
0.00
0.01
0.04
0.03
0.07
0.20
0.22
0.07
0.03
0.01
0.13
0.10
0.11
0.10
0.11
0.10
0.09
0.11
0.00
0.31
0.70
0.50
0.62
0.63
0.58
0.58
0.28
0.13
0.05
0.09
0.01
0.00
0.01
0.01
0.03
0.03
0.03
0.03
0.03
0.03
0.03
0.04
0.03
0.03
0.03
0.03
0.00
0.00
0.03
0.10
0.14
0.19
0.21
0.25
0.25
0.25
0.19
0.19
0.13
0.11
0.05
0.09
0.01
0.00
0.00
0.01
0.02
0.02
0.02
0.03
0.02
0.02
0.03
0.03
0.02
0.03
0.01
0.01
0.00
0.00
0.00
0.00
0.01
0.00
0.01
0.03
0.00
0.00
0.00
0.00
0.01
0.00
0.01
0.00
0.01
0.00
0.01
0.01
0.00
0.01
0.00
0.02
0.01
0.02
0.00
0.02
0.00
0.01
0.01
0.04
0.06
0.06
0.09
0.27
0.31
0.06
0.03
0.10
0.13
0.11
0.09
0.09
0.03
0.09
0.09
0.05
0.09
0.34
0.83
0.57
0.79
0.70
0.69
0.53
0.11
0.00
0.01
0.03
0.03
0.07
0.06
0.09
0.07
0.09
0.14
0.07
0.20
0.09
0.22
0.17
0.20
0.17
0.20
0.17
0.20
0.09
0.07
0.03
0.00
0.05
0.10
0.13
0.16
0.14
0.14
0.11
0.11
0.05
0.01
0.00
0.00
0.02
0.02
0.02
0.01
0.00
0.01
0.00
0.02
0.02
0.03
0.03
0.04
0.03
0.04
0.06
0.06
0.07
0.07
0.09
0.03
0.06
0.03
0.04
0.03
0.03
0.03
0.03
0.00
0.02
0.02
0.02
0.00
0.00
0.01
0.00
0.01
0.00
0.00
0.03
0.00
0.01
0.00
0.01
0.00
0.00
0.03
0.01
0.01
0.03
0.03
0.03
0.06
0.22
0.17
0.04
0.01
0.11
0.18
0.13
0.14
0.11
0.13
0.13
0.13
0.14
0.00
0.14
0.78
0.53
0.72
0.79
0.70
0.58
0.37
0.10
0.10
0.01
0.01
0.01
0.00
0.03
0.02
0.04
0.03
0.04
0.04
0.07
0.07
0.07
0.14
0.09
0.09
0.07
0.09
0.04
0.03
0.01
0.00
0.10
0.10
0.13
0.16
0.18
0.18
0.14
0.11
0.05
0.03
0.02
0.01
0.03
0.03
0.03
0.02
0.02
0.03
0.02
0.03
0.03
0.03
0.03
0.04
0.03
0.03
0.03
0.03
0.03
0.03
0.03
0.04
0.03
0.03
0.04
0.03
0.03
0.02
0.03
0.03
0.03
0.03
0.03
0.03
0.03
0.03
0.03
0.03
0.03
0.03
0.03
0.03
0.01
0.02
0.00
0.02
0.00
0.00
0.00
0.00
0.00
0.01
0.00
0.00
0.00
0.03
0.03
0.01
0.03
0.03
0.32
0.04
0.02
0.01
0.18
0.18
0.16
0.14
0.13
0.16
0.16
0.14
0.21
0.06
0.27
0.71
0.56
0.79
0.60
0.57
0.54
0.18
0.21
0.19
0.13
0.10
0.09
0.10
0.03
0.05
0.01
0.01
0.00
0.00
0.00
0.02
0.01
0.01
0.01
0.01
0.00
0.03
0.09
0.10
0.18
0.21
0.25
0.29
0.29
0.31
0.29
0.25
0.21
0.18
0.13
0.11
0.01
0.01
0.00
0.03
0.00
0.01
0.00
0.00
0.00
0.00
0.00
0.01
0.00
0.00
0.01
0.01
0.00
0.02
0.00
0.01
0.01
0.00
0.00
0.00
0.03
0.01
0.01
0.05
0.01
0.05
0.01
0.09
0.03
0.05
0.03
0.09
0.05
0.05
0.10
0.05
0.05
0.03
0.09
0.01
0.00
0.03
0.00
0.06
0.03
0.34
0.06
0.03
0.00
0.16
0.09
0.09
0.05
0.10
0.09
0.13
0.10
0.18
0.09
0.54
0.66
0.57
0.66
0.56
0.56
0.51
0.13
0.11
0.10
0.03
0.01
0.00
0.00
0.00
0.00
0.02
0.02
0.01
0.02
0.03
0.03
0.02
0.03
0.02
0.03
0.01
0.01
0.03
0.03
0.11
0.11
0.14
0.14
0.16
0.18
0.13
0.11
0.05
0.05
0.00
0.00
0.03
0.01
0.03
0.03
0.03
0.04
0.06
0.06
0.03
0.07
0.03
0.03
0.02
0.03
0.03
0.03
0.02
0.02
0.01
0.00
0.02
0.01
0.02
0.01
0.02
0.01
0.01
0.01
0.03
0.01
0.02
0.01
0.01
0.01
0.02
0.02
0.01
0.03
0.02
0.03
0.02
0.04
0.14
0.09
0.22
0.20
0.46
0.20
0.17
0.03
0.03
0.10
0.03
0.01
0.01
0.03
0.01
0.05
0.09
0.31
0.46
0.83
0.57
0.82
0.63
0.60
0.54
0.00
0.00
0.02
0.03
0.03
0.03
0.06
0.06
0.07
0.07
0.07
0.14
0.07
0.14
0.14
0.20
0.17
0.22
0.20
0.20
0.17
0.17
0.07
0.03
0.02
0.01
0.03
0.10
0.09
0.14
0.10
0.09
0.00
0.00
0.02
0.03
0.03
0.04
0.06
0.04
0.03
0.04
0.04
0.03
0.03
0.06
0.03
0.06
0.04
0.06
0.07
0.04
0.06
0.03
0.06
0.03
0.04
0.03
0.03
0.03
0.04
0.02
0.03
0.03
0.02
0.03
0.03
0.03
0.03
0.03
0.02
0.03
0.02
0.03
0.02
0.03
0.01
0.01
0.02
0.01
0.01
0.01
0.01
0.03
0.09
0.03
0.17
0.17
0.34
0.03
0.03
0.05
0.13
0.11
0.13
0.03
0.05
0.09
0.09
0.03
0.00
0.31
0.79
0.51
0.70
0.72
0.68
0.56
0.23
0.05
0.05
0.01
0.01
0.02
0.03
0.03
0.06
0.04
0.07
0.04
0.14
0.09
0.09
0.14
0.17
0.17
0.09
0.17
0.07
0.06
0.03
0.01
0.01
0.09
0.13
0.14
0.19
0.19
0.19
0.16
0.14
0.11
0.09
0.05
0.00
0.00
0.00
0.00
0.00
0.01
0.01
0.00
0.01
0.00
0.01
0.02
0.03
0.03
0.03
0.03
0.03
0.03
0.02
0.04
0.03
0.03
0.03
0.03
0.03
0.02
0.03
0.03
0.03
0.02
0.03
0.01
0.03
0.02
0.03
0.02
0.03
0.03
0.03
0.03
0.03
0.04
0.02
0.03
0.03
0.03
0.09
0.09
0.20
0.17
0.45
0.27
0.09
0.03
0.05
0.09
0.09
0.09
0.00
0.05
0.01
0.01
0.01
0.20
0.38
0.83
0.56
0.75
0.58
0.62
0.54
0.09
0.00
0.00
0.00
0.03
0.03
0.04
0.06
0.09
0.07
0.09
0.14
0.14
0.14
0.09
0.17
0.09
0.14
0.07
0.06
0.04
0.02
0.00
0.03
0.11
0.14
0.19
0.21
0.23
0.21
0.18
0.18
0.11
0.05
0.03
0.00
0.01
0.02
0.02
0.01
0.01
0.03
0.01
0.03
0.03
0.03
0.01
0.03
0.03
0.03
0.02
0.03
0.02
0.02
0.02
0.02
0.03
0.02
0.03
0.02
0.01
0.01
0.01
0.00
0.00
0.00
0.00
0.01
0.01
0.00
0.03
0.03
0.05
0.01
0.05
0.01
0.05
0.05
0.05
0.05
0.05
0.00
0.03
0.01
0.03
0.01
0.34
0.04
0.03
0.01
0.18
0.18
0.14
0.13
0.10
0.13
0.11
0.14
0.19
0.07
0.34
0.72
0.58
0.68
0.57
0.57
0.54
0.10
0.14
0.13
0.10
0.09
0.03
0.01
0.00
0.00
0.01
0.01
0.01
0.00
0.00
0.00
0.00
0.00
0.03
0.03
0.09
0.09
0.13
0.14
0.23
0.25
0.31
0.29
0.35
0.29
0.29
0.23
0.21
0.13
0.09
0.10
0.05
0.01
0.00
0.01
0.01
0.00
0.00
0.00
0.00
0.01
0.00
0.00
0.00
0.00
0.01
0.00
0.00
0.02
0.00
0.01
0.00
0.00
0.01
0.00
0.05
0.01
0.01
0.00
0.01
0.00
0.00
0.01
0.00
0.01
0.01
0.03
0.01
0.03
0.00
0.03
0.04
0.02
0.07
0.27
0.31
0.14
0.06
0.01
0.13
0.13
0.13
0.13
0.14
0.14
0.14
0.16
0.09
0.17
0.69
0.50
0.58
0.58
0.56
0.57
0.35
0.11
0.05
0.05
0.00
0.00
0.01
0.01
0.02
0.02
0.03
0.03
0.06
0.06
0.06
0.06
0.07
0.07
0.07
0.09
0.06
0.06
0.03
0.02
0.03
0.00
0.05
0.10
0.10
0.11
0.10
0.05
0.01
0.00
0.02
0.02
0.03
0.02
0.03
0.03
0.04
0.03
0.04
0.04
0.03
0.03
0.03
0.06
0.03
0.03
0.03
0.03
0.01
0.03
0.02
0.03
0.00
0.03
0.02
0.02
0.01
0.03
0.02
0.01
0.02
0.01
0.02
0.02
0.02
0.01
0.01
0.01
0.02
0.01
0.02
0.02
0.02
0.02
0.03
0.03
0.07
0.09
0.14
0.22
0.32
0.34
0.14
0.06
0.09
0.10
0.09
0.05
0.03
0.03
0.03
0.03
0.03
0.17
0.42
0.84
0.58
0.78
0.62
0.61
0.53
0.03
0.00
0.01
0.04
0.03
0.07
0.07
0.09
0.14
0.14
0.17
0.09
0.27
0.22
0.27
0.27
0.32
0.27
0.22
0.22
0.20
0.17
0.07
0.04
0.00
0.00
0.03
0.03
0.10
0.10
0.10
0.05
0.01
0.00
0.03
0.03
0.03
0.03
0.04
0.04
0.06
0.03
0.04
0.03
0.04
0.03
0.06
0.04
0.07
0.06
0.06
0.07
0.06
0.07
0.04
0.07
0.04
0.06
0.04
0.06
0.03
0.03
0.03
0.03
0.03
0.03
0.03
0.03
0.03
0.03
0.03
0.02
0.03
0.03
0.03
0.01
0.03
0.04
0.07
0.04
0.20
0.32
0.34
0.17
0.07
0.01
0.11
0.09
0.05
0.05
0.05
0.03
0.05
0.05
0.04
0.31
0.82
0.54
0.71
0.71
0.68
0.56
0.18
0.03
0.00
0.00
0.03
0.03
0.04
0.04
0.04
0.06
0.07
0.09
0.07
0.14
0.06
0.14
0.09
0.17
0.14
0.14
0.09
0.06
0.03
0.01
0.01
0.10
0.13
0.14
0.13
0.16
0.11
0.11
0.03
0.05
0.01
0.02
0.02
0.03
0.06
0.03
0.03
0.04
0.03
0.03
0.04
0.04
0.03
0.06
0.03
0.06
0.03
0.03
0.03
0.03
0.02
0.03
0.03
0.02
0.01
0.01
0.02
0.00
0.01
0.00
0.01
0.00
0.00
0.01
0.00
0.00
0.00
0.01
0.00
0.00
0.01
0.01
0.00
0.00
0.01
0.00
0.00
0.04
0.00
0.09
0.03
0.32
0.04
0.02
0.01
0.21
0.16
0.14
0.13
0.14
0.13
0.16
0.14
0.19
0.17
0.58
0.57
0.59
0.79
0.61
0.57
0.50
0.11
0.14
0.10
0.05
0.03
0.00
0.01
0.00
0.00
0.02
0.00
0.01
0.00
0.00
0.01
0.02
0.01
0.00
0.03
0.05
0.05
0.13
0.16
0.25
0.28
0.35
0.33
0.37
0.33
0.35
0.28
0.28
0.23
0.18
0.16
0.13
0.14
0.09
0.11
0.10
0.11
0.05
0.10
0.05
0.05
0.05
0.05
0.05
0.05
0.03
0.05
0.09
0.09
0.10
0.09
0.09
0.09
0.13
0.10
0.13
0.11
0.11
0.10
0.10
0.13
0.11
0.11
0.11
0.11
0.09
0.11
0.10
0.09
0.09
0.11
0.00
0.00
0.00
0.03
0.04
0.22
0.06
0.04
0.11
0.16
0.18
0.14
0.14
0.13
0.18
0.14
0.18
0.19
0.03
0.62
0.03
0.56
0.64
0.60
0.57
0.50
0.16
0.16
0.13
0.09
0.05
0.09
0.01
0.00
0.00
0.00
0.00
0.00
0.00
0.00
0.00
0.00
0.03
0.00
0.05
0.05
0.10
0.11
0.13
0.19
0.19
0.25
0.23
0.23
0.19
0.19
0.16
0.13
0.09
0.09
0.05
0.01
0.03
0.00
0.01
0.00
0.00
0.00
0.00
0.00
0.03
0.00
0.01
0.01
0.05
0.03
0.05
0.05
0.05
0.03
0.09
0.09
0.05
0.09
0.05
0.05
0.01
0.05
0.05
0.09
0.03
0.05
0.05
0.03
0.09
0.05
0.03
0.01
0.05
0.01
0.03
0.01
0.01
0.02
0.06
0.27
0.20
0.06
0.03
0.10
0.11
0.13
0.03
0.10
0.09
0.10
0.09
0.13
0.06
0.31
0.81
0.57
0.78
0.67
0.66
0.56
0.18
0.05
0.05
0.00
0.02
0.03
0.03
0.03
0.03
0.04
0.04
0.04
0.07
0.07
0.14
0.07
0.14
0.17
0.14
0.14
0.14
0.07
0.03
0.02
0.01
0.03
0.09
0.10
0.13
0.13
0.13
0.09
0.09
0.00
0.00
0.02
0.01
0.03
0.03
0.03
0.03
0.03
0.03
0.02
0.02
0.02
0.03
0.02
0.03
0.03
0.03
0.03
0.03
0.03
0.03
0.03
0.03
0.03
0.03
0.03
0.02
0.03
0.02
0.03
0.02
0.03
0.03
0.03
0.02
0.03
0.03
0.03
0.03
0.02
0.03
0.01
0.06
0.09
0.04
0.20
0.20
0.38
0.09
0.06
0.01
0.14
0.11
0.10
0.10
0.10
0.10
0.09
0.13
0.09
0.27
0.72
0.21
0.68
0.79
0.67
0.58
0.31
0.01
0.03
0.00
0.00
0.03
0.02
0.03
0.03
0.04
0.04
0.07
0.06
0.07
0.07
0.07
0.07
0.07
0.07
0.04
0.03
0.03
0.01
0.01
0.05
0.13
0.13
0.19
0.18
0.19
0.18
0.19
0.13
0.10
0.09
0.01
0.00
0.01
0.00
0.03
0.00
0.02
0.01
0.03
0.02
0.03
0.03
0.03
0.03
0.03
0.04
0.03
0.03
0.03
0.03
0.01
0.03
0.01
0.02
0.00
0.00
0.00
0.00
0.00
0.01
0.01
0.05
0.03
0.09
0.03
0.05
0.05
0.05
0.09
0.09
0.03
0.09
0.05
0.01
0.03
0.02
0.04
0.06
0.34
0.17
0.06
0.03
0.11
0.10
0.11
0.05
0.05
0.10
0.05
0.10
0.13
0.14
0.31
0.80
0.57
0.79
0.57
0.58
0.54
0.10
0.10
0.09
0.03
0.03
0.00
0.00
0.01
0.00
0.00
0.01
0.00
0.02
0.02
0.02
0.02
0.03
0.02
0.02
0.00
0.00
0.01
0.09
0.10
0.16
0.18
0.25
0.25
0.25
0.25
0.21
0.19
0.14
0.13
0.09
0.05
0.01
0.03
0.00
0.03
0.01
0.03
0.01
0.01
0.01
0.00
0.00
0.03
0.03
0.01
0.01
0.03
0.03
0.01
0.09
0.05
0.09
0.03
0.10
0.05
0.10
0.10
0.05
0.09
0.09
0.11
0.10
0.13
0.09
0.10
0.05
0.09
0.09
0.05
0.01
0.03
0.00
0.07
0.06
0.31
0.14
0.06
0.01
0.14
0.18
0.13
0.14
0.11
0.14
0.14
0.18
0.19
0.06
0.49
0.62
0.56
0.75
0.58
0.58
0.54
0.16
0.19
0.14
0.13
0.14
0.11
0.10
0.09
0.11
0.09
0.11
0.10
0.13
0.10
0.13
0.11
0.16
0.18
0.18
0.23
0.23
0.33
0.31
0.37
0.43
0.44
0.44
0.45
0.43
0.43
0.38
0.35
0.37
0.31
0.25
0.23
0.23
0.19
0.19
0.16
0.18
0.13
0.13
0.11
0.11
0.13
0.11
0.09
0.09
0.09
0.09
0.05
0.03
0.05
0.03
0.01
0.00
0.03
0.00
0.01
0.01
0.03
0.00
0.01
0.01
0.01
0.01
0.00
0.03
0.01
0.01
0.00
0.01
0.00
0.03
0.03
0.07
0.07
0.41
0.22
0.22
0.07
0.01
0.09
0.09
0.03
0.05
0.09
0.09
0.10
0.16
0.09
0.41
0.71
0.58
0.64
0.56
0.56
0.54
0.03
0.09
0.01
0.00
0.01
0.02
0.03
0.04
0.03
0.04
0.04
0.04
0.03
0.06
0.06
0.07
0.06
0.07
0.04
0.04
0.04
0.03
0.02
0.00
0.00
0.05
0.05
0.09
0.05
0.09
0.05
0.01
0.00
0.01
0.03
0.04
0.03
0.07
0.06
0.09
0.07
0.14
0.07
0.09
0.09
0.09
0.09
0.09
0.07
0.07
0.07
0.06
0.07
0.04
0.04
0.04
0.04
0.03
0.04
0.04
0.04
0.03
0.04
0.03
0.03
0.03
0.03
0.04
0.03
0.04
0.03
0.04
0.03
0.14
0.20
0.14
0.32
0.51
0.42
0.38
0.22
0.03
0.00
0.01
0.01
0.00
0.01
0.03
0.03
0.05
0.04
0.31
0.83
0.58
0.79
0.75
0.71
0.55
0.14
0.00
0.00
0.02
0.03
0.03
0.03
0.04
0.07
0.07
0.14
0.14
0.17
0.17
0.22
0.20
0.22
0.22
0.22
0.20
0.20
0.20
0.09
0.06
0.03
0.01
0.01
0.00
0.05
0.01
0.05
0.00
0.00
0.01
0.03
0.04
0.06
0.06
0.07
0.06
0.07
0.04
0.09
0.07
0.06
0.07
0.06
0.06
0.06
0.07
0.07
0.07
0.06
0.09
0.07
0.09
0.07
0.06
0.04
0.06
0.06
0.06
0.04
0.03
0.03
0.03
0.03
0.03
0.03
0.03
0.03
0.02
0.02
0.02
0.03
0.04
0.14
0.07
0.17
0.27
0.42
0.32
0.20
0.03
0.09
0.01
0.05
0.01
0.00
0.03
0.03
0.09
0.09
0.31
0.63
0.41
0.66
0.82
0.63
0.57
0.43
0.00
0.01
0.01
0.02
0.03
0.03
0.04
0.04
0.06
0.06
0.06
0.06
0.09
0.09
0.14
0.09
0.09
0.14
0.07
0.07
0.06
0.03
0.01
0.00
0.03
0.09
0.10
0.10
0.11
0.11
0.05
0.05
0.00
0.00
0.02
0.01
0.03
0.02
0.04
0.03
0.04
0.03
0.03
0.03
0.04
0.04
0.03
0.06
0.04
0.04
0.03
0.06
0.03
0.04
0.03
0.03
0.02
0.01
0.03
0.02
0.02
0.01
0.02
0.02
0.02
0.02
0.03
0.01
0.03
0.03
0.03
0.00
0.02
0.00
0.00
0.01
0.00
0.03
0.06
0.04
0.17
0.07
0.34
0.07
0.03
0.01
0.19
0.14
0.14
0.14
0.13
0.16
0.13
0.14
0.18
0.06
0.58
0.31
0.63
0.81
0.63
0.57
0.49
0.16
0.18
0.13
0.13
0.09
0.09
0.05
0.05
0.01
0.03
0.00
0.00
0.01
0.00
0.01
0.00
0.00
0.00
0.03
0.01
0.10
0.10
0.14
0.14
0.25
0.23
0.25
0.28
0.28
0.25
0.19
0.18
0.14
0.10
0.05
0.09
0.01
0.03
0.00
0.03
0.00
0.00
0.01
0.00
0.00
0.00
0.00
0.00
0.00
0.00
0.01
0.00
0.03
0.01
0.03
0.00
0.05
0.03
0.05
0.03
0.09
0.05
0.09
0.10
0.10
0.10
0.10
0.11
0.10
0.10
0.10
0.09
0.02
0.00
0.03
0.07
0.31
0.14
0.04
0.00
0.14
0.13
0.16
0.13
0.13
0.16
0.14
0.18
0.23
0.03
0.52
0.49
0.56
0.67
0.58
0.57
0.50
0.14
0.14
0.16
0.11
0.11
0.11
0.11
0.11
0.09
0.11
0.09
0.13
0.10
0.10
0.10
0.10
0.10
0.11
0.11
0.13
0.14
0.16
0.19
0.19
0.21
0.23
0.28
0.23
0.23
0.19
0.18
0.13
0.11
0.11
0.09
0.05
0.01
0.01
0.00
0.01
0.00
0.00
0.00
0.00
0.00
0.00
0.00
0.01
0.00
0.00
0.00
0.00
0.01
0.00
0.03
0.00
0.01
0.01
0.03
0.00
0.05
0.00
0.01
0.00
0.01
0.03
0.00
0.00
0.01
0.00
0.01
0.01
0.06
0.04
0.14
0.14
0.42
0.27
0.17
0.04
0.10
0.10
0.13
0.05
0.09
0.10
0.13
0.10
0.14
0.09
0.31
0.74
0.56
0.82
0.63
0.58
0.55
0.11
0.05
0.05
0.00
0.01
0.03
0.03
0.03
0.04
0.06
0.06
0.09
0.14
0.09
0.17
0.20
0.20
0.20
0.22
0.20
0.20
0.07
0.07
0.03
0.02
0.00
0.01
0.03
0.09
0.05
0.05
0.03
0.01
0.01
0.02
0.03
0.03
0.06
0.04
0.06
0.03
0.04
0.03
0.06
0.06
0.06
0.06
0.06
0.07
0.04
0.06
0.06
0.07
0.03
0.04
0.03
0.03
0.04
0.04
0.03
0.04
0.04
0.03
0.04
0.04
0.04
0.03
0.04
0.03
0.04
0.03
0.04
0.03
0.04
0.14
0.17
0.17
0.22
0.46
0.34
0.17
0.06
0.03
0.09
0.05
0.01
0.01
0.03
0.01
0.03
0.09
0.31
0.46
0.74
0.58
0.85
0.59
0.56
0.51
0.00
0.01
0.00
0.00
0.03
0.02
0.03
0.03
0.04
0.03
0.06
0.06
0.06
0.06
0.07
0.07
0.06
0.07
0.04
0.03
0.00
0.00
0.03
0.10
0.13
0.16
0.19
0.19
0.19
0.18
0.14
0.13
0.05
0.09
0.00
0.00
0.02
0.00
0.03
0.03
0.03
0.02
0.03
0.03
0.03
0.03
0.03
0.03
0.03
0.03
0.04
0.04
0.03
0.04
0.03
0.03
0.03
0.04
0.03
0.04
0.03
0.03
0.03
0.03
0.03
0.02
0.03
0.01
0.02
0.00
0.02
0.01
0.01
0.03
0.09
0.03
0.17
0.31
0.32
0.17
0.03
0.09
0.14
0.10
0.05
0.03
0.10
0.09
0.09
0.10
0.02
0.27
0.79
0.58
0.78
0.68
0.67
0.55
0.13
0.05
0.03
0.03
0.02
0.02
0.00
0.03
0.03
0.03
0.03
0.04
0.03
0.04
0.06
0.04
0.03
0.04
0.03
0.03
0.01
0.00
0.05
0.10
0.14
0.16
0.18
0.23
0.21
0.21
0.19
0.16
0.10
0.11
0.05
0.03
0.00
0.00
0.00
0.00
0.00
0.00
0.01
0.00
0.00
0.02
0.00
0.01
0.01
0.00
0.00
0.02
0.01
0.01
0.00
0.00
0.00
0.00
0.02
0.00
0.00
0.00
0.00
0.01
0.00
0.01
0.00
0.00
0.00
0.01
0.00
0.00
0.01
0.00
0.03
0.02
0.07
0.07
0.38
0.20
0.06
0.00
0.14
0.11
0.14
0.11
0.05
0.18
0.11
0.13
0.23
0.06
0.49
0.61
0.57
0.70
0.56
0.56
0.50
0.11
0.14
0.11
0.09
0.05
0.09
0.01
0.00
0.01
0.01
0.01
0.00
0.00
0.00
0.01
0.00
0.00
0.01
0.01
0.03
0.10
0.13
0.16
0.16
0.21
0.18
0.23
0.23
0.19
0.18
0.13
0.10
0.09
0.03
0.01
0.00
0.00
0.00
0.02
0.00
0.03
0.01
0.03
0.00
0.03
0.02
0.02
0.03
0.02
0.01
0.00
0.02
0.01
0.03
0.01
0.01
0.00
0.01
0.00
0.02
0.00
0.01
0.00
0.01
0.00
0.00
0.01
0.00
0.02
0.00
0.04
0.07
0.09
0.14
0.22
0.45
0.38
0.31
0.17
0.03
0.01
0.09
0.03
0.05
0.05
0.09
0.13
0.14
0.07
0.59
0.57
0.57
0.64
0.56
0.57
0.48
0.09
0.09
0.03
0.01
0.00
0.00
0.01
0.02
0.02
0.02
0.03
0.02
0.04
0.06
0.09
0.07
0.09
0.09
0.09
0.09
0.09
0.07
0.03
0.03
0.00
0.00
0.03
0.03
0.10
0.01
0.03
0.00
0.00
0.01
0.03
0.03
0.03
0.04
0.06
0.04
0.07
0.06
0.07
0.06
0.07
0.06
0.07
0.07
0.09
0.07
0.06
0.06
0.06
0.04
0.06
0.06
0.06
0.04
0.04
0.06
0.03
0.04
0.03
0.03
0.03
0.03
0.03
0.03
0.03
0.04
0.20
0.09
0.27
0.27
0.52
0.31
0.27
0.04
0.01
0.01
0.01
0.00
0.00
0.00
0.00
0.00
0.01
0.42
0.67
0.14
0.70
0.82
0.66
0.58
0.31
0.01
0.00
0.03
0.03
0.04
0.06
0.06
0.06
0.09
0.14
0.09
0.20
0.17
0.20
0.20
0.27
0.20
0.31
0.27
0.22
0.20
0.07
0.06
0.02
0.01
0.01
0.00
0.09
0.09
0.09
0.00
0.01
0.00
0.02
0.03
0.03
0.04
0.06
0.06
0.06
0.04
0.03
0.04
0.06
0.04
0.06
0.04
0.04
0.04
0.04
0.06
0.04
0.04
0.02
0.03
0.03
0.03
0.02
0.02
0.01
0.02
0.01
0.02
0.02
0.01
0.02
0.01
0.01
0.01
0.03
0.01
0.02
0.02
0.03
0.01
0.06
0.14
0.06
0.27
0.20
0.42
0.09
0.06
0.05
0.13
0.14
0.10
0.11
0.09
0.11
0.10
0.11
0.10
0.14
0.71
0.48
0.72
0.78
0.70
0.58
0.37
0.11
0.13
0.09
0.03
0.03
0.01
0.00
0.00
0.00
0.02
0.01
0.03
0.00
0.04
0.03
0.03
0.03
0.06
0.03
0.03
0.03
0.00
0.00
0.05
0.09
0.13
0.13
0.16
0.13
0.16
0.10
0.05
0.01
0.00
0.01
0.03
0.03
0.03
0.03
0.03
0.03
0.03
0.03
0.03
0.02
0.03
0.03
0.03
0.03
0.03
0.03
0.03
0.03
0.03
0.03
0.02
0.03
0.01
0.01
0.02
0.01
0.01
0.00
0.01
0.00
0.00
0.00
0.01
0.00
0.00
0.00
0.02
0.03
0.04
0.17
0.09
0.38
0.20
0.07
0.00
0.13
0.14
0.16
0.14
0.11
0.14
0.14
0.16
0.21
0.09
0.57
0.31
0.62
0.78
0.63
0.57
0.48
0.13
0.13
0.11
0.13
0.03
0.05
0.03
0.05
0.00
0.03
0.00
0.01
0.00
0.01
0.00
0.00
0.03
0.03
0.03
0.09
0.14
0.14
0.18
0.21
0.29
0.28
0.29
0.31
0.23
0.21
0.14
0.14
0.09
0.09
0.01
0.00
0.00
0.00
0.00
0.01
0.00
0.00
0.00
0.01
0.01
0.01
0.00
0.03
0.03
0.01
0.09
0.03
0.09
0.05
0.11
0.09
0.13
0.09
0.13
0.11
0.11
0.13
0.11
0.11
0.10
0.11
0.11
0.11
0.09
0.10
0.09
0.00
0.02
0.01
0.07
0.09
0.31
0.04
0.03
0.09
0.19
0.13
0.11
0.11
0.13
0.13
0.11
0.13
0.01
0.09
0.70
0.48
0.58
0.58
0.58
0.58
0.33
0.10
0.09
0.10
0.03
0.05
0.00
0.00
0.02
0.00
0.01
0.00
0.01
0.03
0.02
0.03
0.02
0.03
0.01
0.02
0.00
0.00
0.03
0.05
0.09
0.11
0.13
0.13
0.11
0.11
0.09
0.05
0.00
0.01
0.01
0.02
0.03
0.03
0.03
0.04
0.03
0.03
0.02
0.03
0.02
0.04
0.03
0.03
0.03
0.03
0.03
0.02
0.03
0.03
0.02
0.00
0.03
0.01
0.02
0.03
0.02
0.01
0.02
0.00
0.00
0.00
0.00
0.00
0.00
0.00
0.02
0.07
0.06
0.17
0.14
0.45
0.22
0.22
0.06
0.09
0.03
0.10
0.01
0.05
0.03
0.05
0.01
0.09
0.20
0.42
0.82
0.56
0.79
0.64
0.62
0.54
0.05
0.00
0.02
0.04
0.03
0.06
0.07
0.09
0.14
0.17
0.17
0.22
0.22
0.27
0.31
0.31
0.34
0.34
0.34
0.32
0.32
0.22
0.20
0.09
0.06
0.03
0.00
0.01
0.01
0.00
0.00
0.02
0.02
0.03
0.04
0.09
0.09
0.09
0.17
0.07
0.09
0.09
0.17
0.09
0.14
0.09
0.14
0.09
0.17
0.14
0.14
0.07
0.14
0.14
0.09
0.09
0.09
0.07
0.06
0.09
0.06
0.07
0.07
0.07
0.07
0.06
0.07
0.04
0.09
0.07
0.07
0.04
0.07
0.06
0.09
0.04
0.20
0.27
0.14
0.32
0.32
0.53
0.27
0.17
0.03
0.03
0.01
0.00
0.01
0.03
0.01
0.01
0.00
0.00
0.42
0.71
0.11
0.70
0.79
0.67
0.58
0.31
0.00
0.01
0.02
0.03
0.03
0.03
0.06
0.06
0.04
0.07
0.07
0.14
0.09
0.17
0.17
0.17
0.14
0.17
0.14
0.14
0.06
0.04
0.02
0.00
0.01
0.05
0.09
0.11
0.09
0.10
0.05
0.01
0.01
0.01
0.03
0.04
0.04
0.04
0.06
0.06
0.04
0.06
0.04
0.06
0.03
0.07
0.03
0.04
0.03
0.06
0.03
0.03
0.03
0.03
0.03
0.02
0.03
0.02
0.03
0.02
0.03
0.00
0.03
0.03
0.03
0.01
0.02
0.02
0.00
0.03
0.02
0.02
0.01
0.03
0.07
0.06
0.20
0.14
0.45
0.27
0.14
0.06
0.09
0.09
0.05
0.01
0.03
0.09
0.03
0.10
0.05
0.22
0.32
0.82
0.56
0.82
0.58
0.58
0.53
0.03
0.03
0.00
0.00
0.03
0.03
0.04
0.03
0.03
0.04
0.06
0.06
0.06
0.09
0.04
0.07
0.09
0.09
0.04
0.07
0.03
0.03
0.00
0.01
0.09
0.10
0.13
0.14
0.13
0.13
0.11
0.09
0.03
0.01
0.01
0.02
0.02
0.04
0.03
0.03
0.03
0.04
0.03
0.06
0.03
0.03
0.03
0.03
0.02
0.06
0.03
0.03
0.03
0.03
0.01
0.02
0.02
0.00
0.00
0.00
0.00
0.01
0.01
0.00
0.00
0.03
0.01
0.01
0.03
0.01
0.05
0.03
0.05
0.03
0.02
0.01
0.04
0.22
0.17
0.06
0.02
0.14
0.19
0.18
0.14
0.16
0.18
0.18
0.14
0.18
0.09
0.04
0.71
0.50
0.70
0.73
0.68
0.57
0.44
0.18
0.19
0.11
0.10
0.09
0.10
0.05
0.05
0.05
0.03
0.03
0.01
0.03
0.01
0.01
0.01
0.03
0.03
0.05
0.13
0.14
0.13
0.19
0.23
0.28
0.29
0.29
0.33
0.25
0.28
0.21
0.18
0.14
0.16
0.11
0.10
0.11
0.09
0.09
0.05
0.11
0.10
0.11
0.09
0.10
0.09
0.09
0.09
0.05
0.05
0.01
0.05
0.01
0.09
0.05
0.09
0.01
0.03
0.03
0.09
0.03
0.10
0.05
0.05
0.05
0.05
0.09
0.05
0.03
0.09
0.05
0.03
0.01
0.03
0.03
0.06
0.09
0.20
0.06
0.02
0.11
0.21
0.18
0.18
0.16
0.21
0.21
0.23
0.23
0.18
0.00
0.62
0.28
0.60
0.63
0.60
0.57
0.45
0.19
0.14
0.16
0.10
0.10
0.05
0.10
0.05
0.05
0.01
0.03
0.01
0.00
0.01
0.00
0.01
0.00
0.03
0.03
0.09
0.09
0.11
0.13
0.18
0.18
0.18
0.19
0.19
0.18
0.14
0.14
0.10
0.10
0.01
0.03
0.00
0.00
0.01
0.00
0.01
0.00
0.01
0.01
0.00
0.00
0.00
0.01
0.00
0.00
0.01
0.00
0.05
0.00
0.01
0.00
0.03
0.01
0.00
0.00
0.03
0.01
0.01
0.01
0.00
0.01
0.01
0.03
0.00
0.03
0.00
0.04
0.03
0.09
0.20
0.32
0.20
0.07
0.00
0.10
0.10
0.09
0.10
0.09
0.13
0.09
0.13
0.03
0.20
0.70
0.48
0.69
0.72
0.64
0.58
0.29
0.03
0.03
0.00
0.00
0.03
0.01
0.03
0.03
0.03
0.04
0.04
0.07
0.07
0.07
0.14
0.17
0.14
0.20
0.17
0.20
0.09
0.09
0.03
0.03
0.00
0.00
0.03
0.09
0.05
0.05
0.03
0.03
0.00
0.00
0.03
0.03
0.03
0.03
0.03
0.03
0.03
0.03
0.03
0.03
0.03
0.03
0.03
0.03
0.03
0.06
0.03
0.03
0.03
0.04
0.03
0.02
0.03
0.04
0.02
0.03
0.04
0.03
0.03
0.03
0.04
0.03
0.04
0.04
0.04
0.03
0.03
0.03
0.03
0.07
0.20
0.07
0.27
0.32
0.41
0.17
0.07
0.00
0.11
0.05
0.05
0.03
0.03
0.03
0.03
0.05
0.01
0.34
0.74
0.45
0.76
0.82
0.70
0.58
0.29
0.03
0.03
0.00
0.01
0.02
0.02
0.03
0.03
0.04
0.03
0.06
0.04
0.07
0.06
0.07
0.09
0.07
0.09
0.07
0.04
0.06
0.03
0.01
0.00
0.03
0.03
0.10
0.09
0.10
0.05
0.03
0.01
0.00
0.01
0.03
0.03
0.04
0.03
0.06
0.04
0.03
0.03
0.06
0.03
0.06
0.04
0.06
0.06
0.06
0.04
0.04
0.06
0.04
0.07
0.04
0.04
0.03
0.04
0.03
0.03
0.03
0.03
0.03
0.03
0.03
0.02
0.03
0.03
0.03
0.02
0.02
0.00
0.02
0.01
0.04
0.07
0.03
0.20
0.17
0.42
0.09
0.07
0.01
0.13
0.10
0.05
0.05
0.01
0.05
0.01
0.05
0.01
0.32
0.78
0.50
0.73
0.78
0.70
0.56
0.25
0.00
0.01
0.01
0.00
0.03
0.03
0.04
0.04
0.06
0.06
0.06
0.09
0.09
0.14
0.09
0.17
0.09
0.09
0.07
0.09
0.04
0.03
0.01
0.01
0.09
0.11
0.13
0.16
0.13
0.13
0.10
0.10
0.01
0.01
0.00
0.01
0.01
0.00
0.00
0.00
0.00
0.00
0.00
0.01
0.00
0.01
0.01
0.02
0.01
0.02
0.01
0.02
0.00
0.01
0.00
0.00
0.00
0.00
0.00
0.00
0.00
0.00
0.00
0.03
0.00
0.00
0.00
0.00
0.01
0.01
0.00
0.01
0.09
0.02
0.09
0.22
0.31
0.09
0.04
0.09
0.16
0.14
0.11
0.11
0.16
0.14
0.16
0.16
0.05
0.04
0.72
0.51
0.67
0.66
0.64
0.58
0.23
0.14
0.11
0.11
0.03
0.09
0.01
0.01
0.00
0.03
0.00
0.03
0.00
0.01
0.00
0.03
0.01
0.01
0.09
0.10
0.11
0.14
0.19
0.19
0.28
0.25
0.31
0.29
0.29
0.23
0.21
0.16
0.14
0.11
0.09
0.03
0.01
0.03
0.00
0.01
0.00
0.00
0.01
0.00
0.00
0.00
0.02
0.00
0.01
0.00
0.00
0.00
0.00
0.03
0.03
0.00
0.05
0.01
0.03
0.03
0.05
0.05
0.05
0.09
0.10
0.11
0.10
0.09
0.09
0.13
0.10
0.13
0.09
0.00
0.00
0.03
0.04
0.22
0.20
0.06
0.02
0.11
0.14
0.13
0.13
0.11
0.16
0.10
0.13
0.19
0.03
0.53
0.42
0.58
0.68
0.58
0.57
0.51
0.05
0.13
0.09
0.01
0.00
0.00
0.01
0.00
0.02
0.01
0.02
0.03
0.03
0.02
0.03
0.04
0.03
0.03
0.02
0.03
0.01
0.01
0.01
0.01
0.09
0.09
0.10
0.13
0.09
0.09
0.03
0.05
0.00
0.01
0.00
0.00
0.03
0.01
0.03
0.02
0.03
0.02
0.03
0.03
0.02
0.02
0.01
0.02
0.01
0.03
0.01
0.02
0.01
0.02
0.00
0.01
0.02
0.02
0.02
0.01
0.03
0.01
0.03
0.02
0.04
0.01
0.03
0.02
0.03
0.02
0.03
0.07
0.14
0.14
0.27
0.49
0.32
0.32
0.09
0.00
0.05
0.03
0.00
0.01
0.05
0.03
0.03
0.09
0.22
0.41
0.82
0.61
0.85
0.67
0.63
0.54
0.03
0.05
0.00
0.00
0.02
0.00
0.03
0.02
0.03
0.03
0.03
0.06
0.06
0.09
0.09
0.17
0.09
0.20
0.14
0.20
0.17
0.14
0.06
0.03
0.02
0.00
0.01
0.03
0.03
0.09
0.01
0.01
0.00
0.00
0.03
0.03
0.03
0.03
0.03
0.03
0.03
0.03
0.02
0.03
0.03
0.04
0.02
0.03
0.03
0.03
0.03
0.04
0.03
0.03
0.00
0.02
0.02
0.00
0.01
0.00
0.00
0.03
0.01
0.01
0.00
0.00
0.00
0.01
0.01
0.01
0.01
0.03
0.01
0.01
0.02
0.03
0.03
0.06
0.22
0.20
0.04
0.02
0.13
0.13
0.14
0.09
0.10
0.10
0.10
0.11
0.11
0.14
0.31
0.81
0.57
0.84
0.64
0.66
0.54
0.11
0.09
0.09
0.03
0.01
0.01
0.01
0.01
0.03
0.03
0.04
0.03
0.06
0.03
0.04
0.03
0.06
0.03
0.03
0.03
0.02
0.00
0.03
0.05
0.11
0.16
0.16
0.18
0.21
0.16
0.18
0.11
0.13
0.05
0.05
0.00
0.01
0.00
0.00
0.00
0.00
0.00
0.02
0.00
0.03
0.01
0.02
0.02
0.01
0.01
0.01
0.03
0.01
0.01
0.00
0.00
0.00
0.00
0.03
0.00
0.03
0.00
0.05
0.01
0.05
0.01
0.01
0.03
0.03
0.05
0.01
0.05
0.01
0.05
0.01
0.01
0.00
0.02
0.06
0.02
0.14
0.09
0.38
0.09
0.03
0.05
0.16
0.11
0.11
0.09
0.09
0.10
0.11
0.11
0.13
0.14
0.66
0.14
0.70
0.81
0.69
0.57
0.43
0.13
0.13
0.09
0.09
0.03
0.03
0.03
0.03
0.01
0.01
0.01
0.05
0.01
0.03
0.01
0.03
0.05
0.09
0.05
0.11
0.10
0.16
0.23
0.23
0.35
0.33
0.37
0.35
0.37
0.31
0.29
0.23
0.21
0.14
0.11
0.10
0.09
0.09
0.09
0.05
0.03
0.10
0.05
0.05
0.03
0.09
0.01
0.05
0.01
0.05
0.05
0.03
0.00
0.04
0.02
0.00
0.49
0.53
0.57
0.56
0.78
0.85
0.88
0.88
0.80
0.49
0.23
0.53
0.57
0.56
0.49
0.13
0.09
0.09
0.31
0.41
0.51
0.51
0.54
0.58
0.65
0.66
0.64
0.64
0.60
0.61
0.62
0.66
0.70
0.72
0.78
0.82
0.84
0.86
0.86
0.85
0.84
0.79
0.72
0.66
0.58
0.38
0.22
0.06
0.01
0.03
0.01
0.01
0.00
0.00
0.01
0.01
0.00
0.00
0.00
0.00
0.01
0.00
0.03
0.00
0.00
0.01
0.00
0.01
0.00
0.00
0.00
0.05
0.00
0.03
0.01
0.03
0.01
0.03
0.09
0.01
0.09
0.09
0.09
0.03
0.09
0.09
0.10
0.10
0.10
0.10
0.10
0.13
0.09
0.10
0.09
0.10
0.10
0.09
0.03
0.10
0.03
0.03
0.03
0.05
0.01
0.03
0.03
0.01
0.01
0.00
0.03
0.01
0.05
0.01
0.01
0.01
0.03
0.01
0.00
0.03
0.02
0.07
0.06
0.41
0.22
0.14
0.09
0.05
0.00
0.10
0.01
0.10
0.10
0.11
0.14
0.11
0.01
0.66
0.43
0.57
0.57
0.57
0.57
0.37
0.13
0.10
0.09
0.01
0.01
0.02
0.01
0.01
0.01
0.02
0.04
0.03
0.06
0.04
0.07
0.04
0.17
0.07
0.09
0.09
0.14
0.09
0.07
0.09
0.04
0.04
0.03
0.03
0.00
0.03
0.05
0.03
0.05
0.01
0.00
0.02
0.03
0.04
0.06
0.04
0.06
0.06
0.07
0.04
0.07
0.06
0.07
0.06
0.09
0.06
0.06
0.00
0.31
0.50
0.56
0.44
0.61
0.94
0.99
1.00
1.00
0.99
0.99
0.97
0.97
0.99
0.99
0.97
0.91
0.27
0.29
0.48
0.50
0.54
0.54
0.57
0.54
0.57
0.57
0.57
0.58
0.63
0.70
0.73
0.79
0.83
0.86
0.87
0.87
0.87
0.88
0.87
0.87
0.86
0.84
0.75
0.60
0.57
0.54
0.50
0.35
0.23
0.14
0.16
0.10
0.11
0.09
0.11
0.05
0.10
0.09
0.10
0.10
0.09
0.11
0.05
0.05
0.05
0.09
0.01
0.03
0.03
0.01
0.01
0.01
0.00
0.00
0.00
0.00
0.00
0.00
0.01
0.00
0.00
0.01
0.01
0.00
0.00
0.00
0.01
0.00
0.00
0.01
0.00
0.01
0.00
0.01
0.00
0.01
0.00
0.00
0.00
0.00
0.03
0.00
0.00
0.00
0.00
0.00
0.01
0.00
0.01
0.00
0.03
0.01
0.01
0.05
0.03
0.02
0.03
0.04
0.06
0.41
0.09
0.09
0.02
0.13
0.13
0.18
0.14
0.13
0.18
0.16
0.19
0.28
0.00
0.63
0.09
0.58
0.79
0.66
0.57
0.50
0.18
0.18
0.13
0.11
0.05
0.03
0.01
0.00
0.01
0.02
0.03
0.03
0.03
0.04
0.06
0.09
0.04
0.07
0.04
0.06
0.03
0.06
0.01
0.04
0.00
0.01
0.00
0.00
0.00
0.05
0.11
0.14
0.10
0.11
0.09
0.03
0.01
0.01
0.01
0.02
0.01
0.02
0.01
0.03
0.02
0.03
0.01
0.03
0.03
0.02
0.01
0.03
0.01
0.02
0.02
0.01
0.01
0.00
0.00
0.01
0.00
0.03
0.03
0.05
0.00
0.03
0.05
0.03
0.05
0.01
0.02
0.00
0.02
0.20
0.09
0.14
0.00
0.16
0.18
0.18
0.14
0.16
0.18
0.21
0.21
0.25
0.09
0.03
0.79
0.57
0.72
0.60
0.61
0.58
0.29
0.23
0.18
0.19
0.16
0.13
0.13
0.13
0.11
0.11
0.11
0.09
0.11
0.09
0.13
0.09
0.10
0.11
0.14
0.13
0.16
0.21
0.23
0.29
0.31
0.35
0.33
0.33
0.31
0.33
0.25
0.21
0.19
0.14
0.13
0.11
0.11
0.03
0.09
0.03
0.09
0.05
0.09
0.05
0.05
0.03
0.05
0.05
0.03
0.05
0.03
0.01
0.03
0.05
0.01
0.03
0.01
0.03
0.00
0.03
0.05
0.05
0.00
0.03
0.03
0.01
0.05
0.03
0.01
0.00
0.03
0.07
0.20
0.20
0.04
0.01
0.14
0.13
0.14
0.16
0.14
0.19
0.18
0.23
0.19
0.00
0.58
0.03
0.59
0.63
0.60
0.57
0.50
0.14
0.19
0.14
0.14
0.09
0.11
0.05
0.09
0.03
0.05
0.05
0.01
0.00
0.01
0.01
0.00
0.00
0.00
0.00
0.00
0.05
0.05
0.11
0.13
0.14
0.14
0.16
0.19
0.14
0.14
0.11
0.11
0.05
0.03
0.01
0.03
0.00
0.00
0.00
0.01
0.01
0.01
0.00
0.02
0.01
0.02
0.01
0.01
0.01
0.02
0.00
0.02
0.00
0.19
0.02
0.04
0.42
0.00
0.49
0.58
0.03
0.72
0.86
0.92
0.95
0.97
0.97
0.95
0.91
0.42
0.62
0.31
0.04
0.01
0.11
0.19
0.40
0.40
0.44
0.45
0.50
0.50
0.51
0.53
0.54
0.56
0.58
0.57
0.56
0.58
0.58
0.58
0.57
0.58
0.56
0.53
0.48
0.35
0.21
0.11
0.03
0.00
0.00
0.02
0.00
0.02
0.00
0.02
0.01
0.02
0.02
0.02
0.03
0.01
0.03
0.01
0.03
0.01
0.03
0.00
0.02
0.00
0.01
0.00
0.01
0.02
0.00
0.02
0.00
0.01
0.01
0.02
0.00
0.02
0.01
0.02
0.02
0.01
0.02
0.02
0.02
0.00
0.02
0.01
0.02
0.02
0.02
0.02
0.02
0.02
0.03
0.00
0.01
0.02
0.01
0.01
0.01
0.01
0.00
0.02
0.04
0.07
0.09
0.17
0.46
0.31
0.31
0.09
0.00
0.03
0.01
0.03
0.01
0.09
0.03
0.10
0.16
0.14
0.54
0.66
0.56
0.82
0.61
0.57
0.49
0.09
0.11
0.01
0.00
0.03
0.02
0.04
0.03
0.06
0.06
0.07
0.09
0.09
0.14
0.20
0.17
0.14
0.20
0.09
0.09
0.07
0.07
0.03
0.04
0.02
0.02
0.00
0.02
0.01
0.03
0.10
0.09
0.03
0.05
0.01
0.00
0.02
0.02
0.03
0.03
0.03
0.03
0.06
0.04
0.07
0.04
0.07
0.06
0.07
0.07
0.07
0.09
0.09
0.00
0.14
0.01
0.16
0.07
0.62
0.69
0.82
0.92
0.96
0.94
0.95
0.96
0.98
0.97
0.97
0.89
0.81
0.34
0.02
0.18
0.38
0.50
0.50
0.50
0.51
0.55
0.53
0.56
0.58
0.57
0.57
0.57
0.56
0.62
0.66
0.70
0.75
0.75
0.73
0.70
0.63
0.56
0.57
0.57
0.51
0.47
0.25
0.14
0.05
0.03
0.00
0.00
0.00
0.03
0.03
0.03
0.03
0.03
0.03
0.03
0.03
0.03
0.01
0.03
0.02
0.03
0.02
0.03
0.02
0.03
0.02
0.03
0.01
0.01
0.03
0.00
0.02
0.00
0.01
0.00
0.00
0.00
0.00
0.00
0.01
0.01
0.01
0.09
0.01
0.00
0.03
0.01
0.05
0.03
0.10
0.01
0.03
0.01
0.09
0.03
0.09
0.05
0.05
0.05
0.05
0.01
0.02
0.01
0.07
0.22
0.27
0.09
0.07
0.01
0.09
0.14
0.09
0.11
0.11
0.13
0.13
0.19
0.00
0.04
0.80
0.58
0.63
0.57
0.56
0.57
0.21
0.16
0.14
0.13
0.05
0.03
0.01
0.00
0.01
0.00
0.02
0.01
0.03
0.00
0.02
0.00
0.02
0.00
0.00
0.03
0.03
0.09
0.05
0.09
0.10
0.09
0.13
0.10
0.13
0.13
0.18
0.18
0.14
0.13
0.14
0.05
0.05
0.03
0.03
0.01
0.00
0.05
0.01
0.00
0.00
0.01
0.00
0.01
0.01
0.01
0.00
0.01
0.00
0.03
0.01
0.00
0.01
0.00
0.03
0.01
0.03
0.00
0.01
0.01
0.03
0.07
0.34
0.17
0.09
0.02
0.10
0.14
0.16
0.14
0.11
0.21
0.19
0.18
0.25
0.01
0.52
0.06
0.61
0.63
0.60
0.57
0.53
0.16
0.18
0.11
0.13
0.03
0.09
0.01
0.03
0.00
0.01
0.01
0.01
0.00
0.00
0.00
0.02
0.00
0.01
0.00
0.00
0.03
0.01
0.05
0.05
0.13
0.10
0.11
0.11
0.10
0.09
0.09
0.09
0.01
0.01
0.01
0.01
0.01
0.00
0.00
0.00
0.01
0.00
0.00
0.00
0.00
0.01
0.01
0.00
0.00
0.00
0.00
0.01
0.03
0.00
0.01
0.00
0.01
0.01
0.00
0.00
0.01
0.03
0.09
0.07
0.20
0.42
0.32
0.31
0.17
0.01
0.03
0.09
0.03
0.09
0.05
0.05
0.05
0.11
0.22
0.51
0.82
0.62
0.84
0.68
0.58
0.55
0.09
0.03
0.00
0.02
0.01
0.03
0.03
0.06
0.04
0.06
0.07
0.07
0.07
0.14
0.17
0.14
0.22
0.17
0.27
0.20
0.22
0.09
0.07
0.04
0.03
0.01
0.00
0.01
0.05
0.03
0.01
0.00
0.01
0.01
0.01
0.02
0.01
0.03
0.01
0.01
0.02
0.02
0.02
0.02
0.03
0.02
0.03
0.03
0.03
0.02
0.03
0.02
0.04
0.03
0.03
0.03
0.03
0.01
0.03
0.02
0.02
0.03
0.03
0.02
0.03
0.03
0.07
0.06
0.14
0.14
0.38
0.31
0.07
0.04
0.11
0.10
0.09
0.05
0.05
0.05
0.05
0.09
0.01
0.27
0.52
0.83
0.63
0.86
0.64
0.62
0.51
0.01
0.00
0.01
0.03
0.04
0.04
0.07
0.06
0.06
0.09
0.14
0.14
0.17
0.14
0.17
0.20
0.20
0.17
0.14
0.17
0.06
0.06
0.03
0.02
0.03
0.03
0.10
0.05
0.10
0.05
0.03
0.00
0.00
0.01
0.03
0.03
0.03
0.03
0.03
0.01
0.04
0.03
0.03
0.03
0.04
0.03
0.03
0.04
0.04
0.06
0.03
0.06
0.03
0.06
0.03
0.04
0.03
0.03
0.01
0.02
0.00
0.01
0.00
0.00
0.01
0.01
0.00
0.00
0.01
0.04
0.07
0.04
0.14
0.27
0.31
0.07
0.03
0.10
0.16
0.11
0.10
0.10
0.10
0.10
0.11
0.13
0.00
0.34
0.79
0.53
0.79
0.80
0.73
0.58
0.28
0.05
0.03
0.01
0.01
0.00
0.03
0.03
0.03
0.03
0.06
0.03
0.06
0.06
0.04
0.06
0.06
0.07
0.07
0.04
0.03
0.03
0.01
0.01
0.10
0.11
0.16
0.13
0.18
0.14
0.11
0.09
0.03
0.03
0.01
0.00
0.02
0.01
0.01
0.00
0.01
0.00
0.01
0.00
0.01
0.02
0.00
0.01
0.01
0.02
0.00
0.01
0.00
0.01
0.01
0.02
0.01
0.00
0.01
0.01
0.00
0.00
0.00
0.01
0.01
0.01
0.01
0.01
0.01
0.05
0.00
0.03
0.03
0.00
0.06
0.00
0.06
0.03
0.32
0.03
0.01
0.05
0.21
0.14
0.18
0.14
0.16
0.14
0.18
0.16
0.18
0.17
0.54
0.64
0.62
0.81
0.59
0.57
0.53
0.14
0.18
0.16
0.13
0.13
0.10
0.10
0.10
0.10
0.09
0.05
0.10
0.03
0.09
0.03
0.03
0.05
0.11
0.11
0.13
0.14
0.25
0.23
0.33
0.33
0.35
0.37
0.33
0.33
0.23
0.23
0.19
0.16
0.11
0.11
0.13
0.11
0.09
0.09
0.13
0.09
0.13
0.10
0.11
0.09
0.11
0.09
0.09
0.10
0.09
0.10
0.10
0.11
0.11
0.11
0.10
0.13
0.11
0.10
0.10
0.13
0.09
0.10
0.11
0.11
0.10
0.11
0.10
0.10
0.10
0.05
0.01
0.01
0.03
0.01
0.20
0.03
0.01
0.05
0.23
0.21
0.23
0.16
0.19
0.23
0.19
0.23
0.23
0.03
0.53
0.61
0.59
0.76
0.60
0.57
0.54
0.10
0.18
0.10
0.10
0.03
0.03
0.01
0.01
0.00
0.01
0.00
0.00
0.01
0.00
0.01
0.01
0.00
0.00
0.00
0.00
0.03
0.03
0.05
0.10
0.16
0.13
0.14
0.13
0.13
0.10
0.03
0.05
0.00
0.00
0.00
0.00
0.03
0.02
0.03
0.03
0.04
0.03
0.04
0.04
0.04
0.03
0.03
0.03
0.03
0.03
0.02
0.03
0.02
0.03
0.02
0.01
0.01
0.01
0.03
0.00
0.02
0.01
0.03
0.01
0.03
0.02
0.02
0.02
0.03
0.02
0.03
0.02
0.02
0.02
0.02
0.04
0.17
0.06
0.22
0.22
0.45
0.17
0.14
0.03
0.10
0.03
0.03
0.01
0.00
0.03
0.01
0.09
0.01
0.42
0.64
0.66
0.67
0.85
0.62
0.57
0.50
0.02
0.00
0.03
0.03
0.03
0.03
0.07
0.04
0.07
0.07
0.07
0.09
0.14
0.20
0.20
0.20
0.20
0.31
0.22
0.27
0.22
0.20
0.06
0.06
0.02
0.00
0.01
0.03
0.03
0.09
0.00
0.01
0.02
0.03
0.06
0.06
0.07
0.06
0.06
0.06
0.06
0.07
0.07
0.06
0.09
0.09
0.09
0.14
0.09
0.17
0.06
0.17
0.14
0.07
0.09
0.09
0.06
0.04
0.06
0.04
0.04
0.03
0.04
0.03
0.03
0.03
0.04
0.03
0.03
0.04
0.03
0.04
0.04
0.04
0.03
0.06
0.04
0.06
0.03
0.07
0.14
0.09
0.20
0.22
0.49
0.20
0.14
0.03
0.10
0.09
0.05
0.03
0.00
0.05
0.03
0.09
0.09
0.38
0.55
0.72
0.64
0.85
0.58
0.57
0.49
0.00
0.01
0.01
0.03
0.06
0.04
0.09
0.07
0.14
0.09
0.17
0.14
0.17
0.20
0.20
0.20
0.20
0.20
0.17
0.17
0.09
0.07
0.03
0.00
0.03
0.05
0.09
0.09
0.09
0.09
0.03
0.00
0.02
0.01
0.04
0.04
0.07
0.06
0.07
0.04
0.04
0.06
0.06
0.06
0.04
0.09
0.07
0.09
0.07
0.14
0.07
0.09
0.06
0.07
0.04
0.07
0.04
0.04
0.03
0.04
0.06
0.03
0.04
0.03
0.03
0.01
0.03
0.02
0.02
0.01
0.01
0.01
0.00
0.01
0.00
0.01
0.00
0.01
0.00
0.00
0.00
0.02
0.04
0.03
0.09
0.06
0.38
0.06
0.04
0.00
0.16
0.13
0.11
0.10
0.03
0.11
0.05
0.10
0.10
0.31
0.45
0.75
0.58
0.82
0.56
0.56
0.51
0.00
0.03
0.00
0.00
0.02
0.02
0.03
0.03
0.04
0.06
0.03
0.06
0.04
0.07
0.04
0.07
0.06
0.07
0.03
0.06
0.02
0.00
0.03
0.05
0.11
0.18
0.18
0.21
0.21
0.21
0.19
0.18
0.14
0.13
0.13
0.10
0.11
0.10
0.13
0.13
0.13
0.13
0.14
0.13
0.14
0.11
0.13
0.11
0.13
0.13
0.11
0.11
0.10
0.13
0.10
0.10
0.10
0.10
0.10
0.10
0.11
0.13
0.10
0.10
0.13
0.10
0.10
0.10
0.11
0.09
0.11
0.09
0.09
0.09
0.10
0.09
0.09
0.05
0.02
0.03
0.03
0.01
0.27
0.06
0.03
0.00
0.16
0.18
0.18
0.14
0.16
0.14
0.19
0.14
0.16
0.03
0.07
0.79
0.57
0.68
0.58
0.63
0.57
0.23
0.16
0.13
0.11
0.11
0.03
0.03
0.03
0.00
0.00
0.01
0.01
0.01
0.00
0.01
0.00
0.01
0.00
0.01
0.05
0.05
0.13
0.13
0.18
0.19
0.28
0.28
0.28
0.28
0.19
0.19
0.13
0.13
0.09
0.09
0.03
0.03
0.01
0.03
0.03
0.01
0.01
0.00
0.03
0.00
0.01
0.00
0.00
0.00
0.01
0.00
0.01
0.00
0.00
0.00
0.05
0.01
0.01
0.03
0.01
0.03
0.01
0.03
0.01
0.03
0.00
0.03
0.00
0.00
0.00
0.01
0.00
0.01
0.00
0.03
0.03
0.04
0.04
0.27
0.20
0.07
0.03
0.09
0.14
0.14
0.11
0.13
0.14
0.14
0.13
0.18
0.03
0.22
0.75
0.57
0.66
0.58
0.56
0.58
0.21
0.11
0.10
0.09
0.03
0.00
0.00
0.02
0.01
0.02
0.00
0.03
0.03
0.03
0.03
0.06
0.04
0.06
0.03
0.04
0.03
0.02
0.01
0.03
0.03
0.09
0.09
0.13
0.10
0.10
0.09
0.05
0.00
0.01
0.00
0.02
0.02
0.03
0.02
0.04
0.03
0.03
0.03
0.07
0.03
0.04
0.04
0.06
0.03
0.04
0.03
0.04
0.04
0.03
0.06
0.03
0.04
0.03
0.04
0.03
0.06
0.03
0.03
0.03
0.03
0.03
0.03
0.03
0.03
0.03
0.01
0.03
0.02
0.02
0.02
0.02
0.01
0.03
0.07
0.09
0.09
0.22
0.34
0.27
0.09
0.03
0.03
0.13
0.10
0.09
0.05
0.10
0.09
0.05
0.11
0.04
0.32
0.83
0.56
0.79
0.72
0.70
0.56
0.13
0.01
0.03
0.01
0.03
0.03
0.04
0.06
0.06
0.07
0.07
0.14
0.07
0.17
0.14
0.20
0.17
0.17
0.22
0.17
0.17
0.14
0.07
0.02
0.03
0.01
0.03
0.10
0.10
0.11
0.13
0.11
0.10
0.03
0.01
0.00
0.00
0.01
0.01
0.02
0.00
0.01
0.01
0.01
0.00
0.01
0.00
0.01
0.01
0.03
0.02
0.03
0.03
0.02
0.03
0.02
0.03
0.03
0.03
0.02
0.03
0.03
0.03
0.03
0.01
0.03
0.02
0.03
0.02
0.03
0.01
0.03
0.00
0.02
0.02
0.01
0.01
0.02
0.07
0.02
0.20
0.07
0.42
0.09
0.07
0.00
0.13
0.16
0.13
0.10
0.13
0.13
0.13
0.14
0.18
0.07
0.14
0.79
0.62
0.84
0.63
0.63
0.55
0.16
0.16
0.13
0.09
0.09
0.00
0.00
0.00
0.03
0.01
0.00
0.01
0.00
0.02
0.01
0.03
0.02
0.02
0.02
0.01
0.01
0.01
0.05
0.10
0.13
0.21
0.19
0.21
0.23
0.21
0.16
0.13
0.11
0.09
0.01
0.00
0.00
0.00
0.00
0.01
0.00
0.02
0.00
0.01
0.00
0.02
0.02
0.02
0.03
0.03
0.03
0.03
0.04
0.03
0.03
0.03
0.03
0.03
0.03
0.03
0.03
0.02
0.03
0.01
0.01
0.01
0.01
0.01
0.00
0.00
0.00
0.00
0.00
0.00
0.01
0.00
0.01
0.02
0.02
0.06
0.02
0.14
0.09
0.34
0.07
0.03
0.09
0.19
0.14
0.13
0.10
0.14
0.11
0.14
0.13
0.00
0.14
0.79
0.58
0.76
0.64
0.68
0.57
0.21
0.14
0.11
0.11
0.03
0.10
0.01
0.03
0.00
0.03
0.01
0.01
0.00
0.00
0.01
0.01
0.03
0.05
0.09
0.09
0.13
0.11
0.18
0.25
0.31
0.35
0.35
0.37
0.35
0.33
0.29
0.23
0.19
0.16
0.10
0.11
0.09
0.05
0.09
0.09
0.03
0.05
0.09
0.05
0.03
0.03
0.03
0.03
0.05
0.00
0.03
0.01
0.05
0.01
0.05
0.03
0.10
0.03
0.05
0.09
0.03
0.05
0.03
0.05
0.03
0.09
0.05
0.09
0.09
0.11
0.05
0.09
0.05
0.03
0.01
0.03
0.04
0.03
0.22
0.09
0.03
0.01
0.19
0.16
0.16
0.13
0.14
0.14
0.14
0.18
0.23
0.03
0.51
0.51
0.56
0.63
0.56
0.57
0.50
0.14
0.16
0.14
0.11
0.10
0.10
0.10
0.03
0.05
0.05
0.05
0.03
0.01
0.00
0.00
0.01
0.01
0.03
0.03
0.10
0.11
0.11
0.16
0.21
0.23
0.25
0.23
0.23
0.23
0.19
0.16
0.10
0.09
0.03
0.01
0.00
0.00
0.00
0.02
0.02
0.02
0.01
0.02
0.00
0.02
0.01
0.03
0.01
0.00
0.00
0.00
0.01
0.00
0.00
0.00
0.00
0.01
0.00
0.01
0.00
0.00
0.00
0.03
0.00
0.00
0.00
0.01
0.00
0.00
0.01
0.03
0.06
0.04
0.14
0.34
0.27
0.20
0.06
0.03
0.11
0.11
0.09
0.11
0.11
0.10
0.09
0.14
0.02
0.20
0.78
0.58
0.70
0.67
0.63
0.58
0.16
0.05
0.01
0.01
0.01
0.03
0.03
0.03
0.03
0.07
0.07
0.09
0.06
0.14
0.14
0.17
0.17
0.17
0.20
0.14
0.14
0.09
0.06
0.03
0.01
0.03
0.05
0.10
0.10
0.11
0.09
0.05
0.03
0.01
0.00
0.00
0.01
0.01
0.01
0.01
0.00
0.02
0.02
0.01
0.02
0.03
0.02
0.02
0.02
0.03
0.01
0.00
0.00
0.00
0.09
0.03
0.11
0.40
0.54
0.58
0.54
0.70
0.80
0.86
0.73
0.01
0.78
0.76
0.07
0.44
0.01
0.06
0.17
0.34
0.46
0.52
0.52
0.55
0.61
0.62
0.57
0.59
0.49
0.41
0.46
0.49
0.58
0.60
0.62
0.66
0.67
0.70
0.72
0.71
0.72
0.71
0.70
0.66
0.65
0.57
0.51
0.34
0.27
0.14
0.14
0.07
0.07
0.07
0.06
0.09
0.06
0.09
0.06
0.06
0.06
0.07
0.04
0.03
0.03
0.03
0.03
0.03
0.03
0.01
0.00
0.01
0.01
0.01
0.02
0.00
0.00
0.00
0.01
0.00
0.00
0.00
0.00
0.00
0.00
0.01
0.00
0.00
0.00
0.01
0.00
0.01
0.01
0.02
0.00
0.02
0.01
0.02
0.01
0.02
0.01
0.00
0.00
0.00
0.00
0.00
0.00
0.01
0.00
0.01
0.01
0.03
0.03
0.01
0.03
0.01
0.03
0.01
0.04
0.22
0.32
0.17
0.04
0.00
0.14
0.11
0.14
0.11
0.11
0.16
0.13
0.18
0.05
0.00
0.81
0.57
0.70
0.60
0.63
0.58
0.19
0.16
0.13
0.10
0.05
0.01
0.00
0.00
0.00
0.02
0.01
0.03
0.03
0.03
0.03
0.03
0.02
0.03
0.02
0.00
0.00
0.03
0.03
0.11
0.10
0.14
0.13
0.16
0.18
0.23
0.28
0.28
0.23
0.21
0.18
0.14
0.11
0.05
0.09
0.00
0.01
0.00
0.01
0.00
0.00
0.00
0.01
0.02
0.02
0.01
0.03
0.03
0.04
0.13
0.19
0.16
0.33
0.05
0.60
0.68
0.79
0.92
0.96
0.94
0.94
0.95
0.97
0.98
0.97
0.91
0.70
0.31
0.19
0.18
0.35
0.33
0.40
0.31
0.50
0.50
0.54
0.58
0.57
0.57
0.58
0.56
0.56
0.63
0.64
0.70
0.75
0.76
0.75
0.70
0.67
0.58
0.57
0.57
0.55
0.51
0.45
0.28
0.19
0.11
0.13
0.10
0.09
0.10
0.10
0.10
0.05
0.11
0.03
0.10
0.05
0.11
0.09
0.09
0.09
0.11
0.05
0.09
0.10
0.09
0.09
0.05
0.11
0.05
0.10
0.09
0.05
0.05
0.09
0.09
0.09
0.05
0.05
0.09
0.03
0.09
0.09
0.09
0.03
0.09
0.03
0.05
0.01
0.09
0.01
0.01
0.01
0.00
0.03
0.03
0.05
0.03
0.05
0.03
0.09
0.05
0.09
0.05
0.05
0.10
0.05
0.01
0.03
0.01
0.03
0.22
0.22
0.09
0.03
0.09
0.09
0.11
0.14
0.14
0.13
0.18
0.13
0.23
0.10
0.03
0.70
0.55
0.57
0.58
0.57
0.58
0.25
0.18
0.19
0.14
0.09
0.10
0.03
0.09
0.03
0.01
0.03
0.03
0.01
0.03
0.01
0.03
0.01
0.05
0.05
0.10
0.11
0.13
0.13
0.13
0.16
0.13
0.14
0.14
0.16
0.16
0.21
0.19
0.18
0.16
0.16
0.10
0.09
0.05
0.01
0.03
0.00
0.03
0.00
0.03
0.00
0.03
0.00
0.01
0.00
0.01
0.00
0.03
0.00
0.00
0.03
0.01
0.03
0.00
0.01
0.01
0.00
0.00
0.01
0.03
0.02
0.06
0.06
0.42
0.27
0.20
0.03
0.05
0.01
0.11
0.05
0.09
0.10
0.13
0.09
0.21
0.07
0.51
0.72
0.57
0.69
0.56
0.58
0.56
0.14
0.09
0.05
0.00
0.01
0.02
0.03
0.03
0.04
0.04
0.09
0.09
0.09
0.07
0.14
0.09
0.17
0.14
0.17
0.14
0.07
0.07
0.03
0.02
0.00
0.01
0.09
0.09
0.14
0.09
0.10
0.09
0.01
0.00
0.00
0.00
0.02
0.01
0.02
0.02
0.03
0.02
0.03
0.02
0.03
0.03
0.03
0.03
0.03
0.03
0.03
0.04
0.02
0.04
0.03
0.03
0.02
0.03
0.03
0.03
0.02
0.03
0.03
0.03
0.20
0.04
0.20
0.42
0.42
0.34
0.20
0.02
0.01
0.03
0.03
0.03
0.03
0.09
0.05
0.05
0.03
0.41
0.71
0.11
0.76
0.84
0.69
0.56
0.48
0.05
0.03
0.00
0.01
0.02
0.03
0.02
0.06
0.04
0.04
0.06
0.07
0.07
0.14
0.17
0.17
0.14
0.14
0.20
0.14
0.09
0.06
0.03
0.00
0.00
0.09
0.10
0.13
0.11
0.10
0.11
0.05
0.03
0.00
0.00
0.02
0.00
0.01
0.00
0.01
0.00
0.00
0.00
0.00
0.00
0.00
0.01
0.00
0.01
0.00
0.01
0.00
0.01
0.02
0.01
0.00
0.00
0.00
0.01
0.00
0.01
0.01
0.03
0.03
0.03
0.03
0.01
0.01
0.01
0.04
0.01
0.09
0.06
0.34
0.09
0.03
0.01
0.18
0.14
0.16
0.13
0.11
0.16
0.16
0.16
0.11
0.17
0.46
0.78
0.67
0.85
0.64
0.63
0.54
0.18
0.13
0.10
0.10
0.01
0.00
0.00
0.00
0.02
0.01
0.03
0.02
0.04
0.04
0.06
0.07
0.07
0.06
0.03
0.07
0.03
0.03
0.05
0.03
0.13
0.14
0.18
0.19
0.21
0.18
0.14
0.11
0.09
0.03
0.01
0.00
0.00
0.00
0.01
0.01
0.00
0.03
0.00
0.01
0.00
0.00
0.00
0.00
0.01
0.00
0.00
0.02
0.00
0.01
0.00
0.00
0.00
0.00
0.03
0.01
0.09
0.03
0.03
0.05
0.03
0.05
0.09
0.05
0.01
0.09
0.03
0.09
0.02
0.03
0.03
0.01
0.27
0.04
0.01
0.05
0.18
0.18
0.19
0.13
0.14
0.13
0.16
0.11
0.14
0.14
0.34
0.83
0.57
0.75
0.61
0.60
0.56
0.16
0.10
0.13
0.05
0.03
0.00
0.03
0.03
0.01
0.02
0.03
0.03
0.03
0.03
0.03
0.02
0.03
0.00
0.00
0.01
0.01
0.11
0.11
0.18
0.18
0.21
0.21
0.21
0.19
0.16
0.13
0.05
0.03
0.00
0.00
0.03
0.03
0.02
0.01
0.02
0.02
0.00
0.02
0.02
0.02
0.03
0.04
0.01
0.03
0.03
0.03
0.03
0.04
0.03
0.04
0.03
0.04
0.03
0.03
0.06
0.01
0.03
0.01
0.03
0.03
0.02
0.00
0.02
0.02
0.02
0.03
0.20
0.31
0.41
0.68
0.75
0.72
0.82
0.86
0.91
0.94
0.91
0.91
0.92
0.95
0.94
0.80
0.59
0.33
0.13
0.47
0.44
0.48
0.49
0.51
0.53
0.55
0.53
0.56
0.58
0.57
0.57
0.57
0.56
0.56
0.58
0.62
0.63
0.61
0.59
0.56
0.57
0.58
0.57
0.57
0.53
0.49
0.37
0.19
0.09
0.05
0.00
0.00
0.00
0.01
0.00
0.00
0.00
0.00
0.00
0.02
0.02
0.03
0.01
0.03
0.02
0.02
0.02
0.03
0.02
0.01
0.02
0.01
0.02
0.00
0.01
0.00
0.00
0.00
0.00
0.00
0.00
0.00
0.00
0.00
0.00
0.02
0.00
0.00
0.01
0.01
0.00
0.02
0.02
0.02
0.02
0.01
0.02
0.02
0.03
0.02
0.03
0.02
0.03
0.09
0.07
0.17
0.27
0.45
0.31
0.17
0.07
0.01
0.10
0.01
0.05
0.01
0.05
0.03
0.01
0.03
0.07
0.42
0.85
0.54
0.76
0.79
0.73
0.57
0.19
0.03
0.00
0.03
0.04
0.04
0.07
0.09
0.09
0.20
0.17
0.27
0.20
0.27
0.31
0.32
0.31
0.38
0.32
0.32
0.32
0.27
0.20
0.09
0.04
0.02
0.01
0.03
0.05
0.11
0.10
0.09
0.03
0.01
0.00
0.02
0.02
0.03
0.03
0.04
0.02
0.03
0.02
0.03
0.02
0.03
0.03
0.03
0.03
0.04
0.06
0.04
0.09
0.07
0.07
0.07
0.09
0.06
0.06
0.04
0.06
0.02
0.04
0.03
0.03
0.03
0.03
0.02
0.02
0.03
0.01
0.03
0.02
0.14
0.03
0.20
0.07
0.42
0.14
0.04
0.01
0.14
0.13
0.13
0.09
0.09
0.11
0.11
0.10
0.11
0.38
0.54
0.78
0.68
0.85
0.64
0.61
0.54
0.10
0.05
0.05
0.00
0.01
0.03
0.02
0.04
0.03
0.04
0.06
0.09
0.09
0.14
0.14
0.17
0.14
0.14
0.17
0.09
0.06
0.02
0.01
0.09
0.10
0.14
0.19
0.23
0.21
0.19
0.16
0.11
0.09
0.03
0.05
0.00
0.00
0.00
0.00
0.01
0.00
0.00
0.00
0.02
0.00
0.02
0.02
0.02
0.02
0.03
0.03
0.03
0.06
0.04
0.04
0.03
0.03
0.03
0.02
0.02
0.03
0.02
0.00
0.01
0.00
0.00
0.00
0.17
0.04
0.20
0.31
0.59
0.14
0.00
0.41
0.57
0.71
0.84
0.93
0.95
0.94
0.88
0.82
0.42
0.04
0.16
0.21
0.25
0.35
0.38
0.44
0.31
0.45
0.48
0.51
0.54
0.58
0.58
0.57
0.56
0.58
0.57
0.56
0.57
0.56
0.56
0.57
0.57
0.58
0.57
0.56
0.53
0.48
0.40
0.25
0.21
0.16
0.11
0.11
0.10
0.11
0.09
0.09
0.05
0.05
0.09
0.10
0.05
0.09
0.09
0.09
0.10
0.10
0.09
0.09
0.05
0.10
0.09
0.09
0.09
0.10
0.09
0.13
0.13
0.10
0.09
0.10
0.11
0.11
0.09
0.11
0.10
0.11
0.10
0.13
0.09
0.11
0.10
0.13
0.09
0.11
0.10
0.11
0.11
0.13
0.13
0.11
0.11
0.10
0.13
0.11
0.13
0.13
0.16
0.13
0.18
0.13
0.16
0.13
0.18
0.14
0.14
0.16
0.14
0.16
0.18
0.18
0.13
0.18
0.16
0.16
0.13
0.13
0.03
0.09
0.01
0.00
0.20
0.01
0.00
0.09
0.23
0.16
0.21
0.16
0.16
0.19
0.18
0.16
0.11
0.07
0.66
0.49
0.63
0.64
0.60
0.57
0.37
0.14
0.10
0.10
0.00
0.01
0.02
0.00
0.01
0.02
0.02
0.03
0.03
0.03
0.01
0.03
0.01
0.03
0.00
0.01
0.00
0.00
0.03
0.05
0.05
0.11
0.11
0.14
0.13
0.19
0.14
0.18
0.14
0.13
0.11
0.10
0.05
0.09
0.05
0.01
0.00
0.03
0.01
0.00
0.00
0.00
0.00
0.00
0.00
0.00
0.00
0.01
0.00
0.00
0.00
0.00
0.03
0.00
0.01
0.01
0.00
0.01
0.01
0.01
0.00
0.01
0.00
0.03
0.00
0.01
0.00
0.00
0.00
0.01
0.01
0.00
0.00
0.01
0.07
0.02
0.07
0.09
0.31
0.07
0.03
0.00
0.13
0.10
0.10
0.05
0.09
0.10
0.09
0.09
0.00
0.41
0.78
0.50
0.75
0.78
0.69
0.58
0.21
0.03
0.01
0.00
0.03
0.03
0.04
0.04
0.09
0.09
0.07
0.17
0.17
0.22
0.22
0.32
0.31
0.31
0.32
0.32
0.22
0.27
0.17
0.07
0.03
0.01
0.00
0.05
0.05
0.05
0.01
0.03
0.02
0.02
0.04
0.06
0.09
0.07
0.14
0.17
0.09
0.52
0.61
0.69
0.87
0.88
0.94
0.95
0.95
0.97
0.96
0.95
0.96
0.97
0.97
0.91
0.64
0.53
0.28
0.35
0.43
0.48
0.49
0.51
0.51
0.54
0.55
0.55
0.56
0.58
0.57
0.57
0.58
0.57
0.56
0.56
0.56
0.56
0.57
0.57
0.57
0.58
0.54
0.50
0.35
0.09
0.11
0.01
0.09
0.14
0.14
0.13
0.05
0.10
0.09
0.10
0.09
0.10
0.09
0.16
0.49
0.66
0.78
0.58
0.76
0.56
0.57
0.45
0.09
0.05
0.05
0.00
0.00
0.00
0.00
0.02
0.02
0.03
0.01
0.01
0.02
0.02
0.02
0.03
0.03
0.02
0.04
0.02
0.03
0.00
0.00
0.03
0.03
0.05
0.09
0.03
0.03
0.01
0.01
0.01
0.00
0.02
0.02
0.02
0.01
0.02
0.01
0.03
0.02
0.02
0.03
0.02
0.03
0.01
0.03
0.01
0.03
0.02
0.03
0.03
0.03
0.02
0.03
0.03
0.02
0.03
0.02
0.02
0.03
0.03
0.01
0.17
0.14
0.22
0.66
0.72
0.70
0.74
0.78
0.90
0.93
0.92
0.92
0.93
0.97
0.95
0.79
0.66
0.00
0.11
0.23
0.48
0.49
0.51
0.51
0.55
0.54
0.56
0.58
0.57
0.57
0.57
0.56
0.56
0.59
0.63
0.63
0.63
0.61
0.58
0.56
0.57
0.57
0.57
0.56
0.53
0.48
0.37
0.19
0.16
0.09
0.09
0.03
0.09
0.05
0.05
0.05
0.05
0.05
0.05
0.03
0.01
0.03
0.03
0.09
0.03
0.10
0.05
0.09
0.01
0.05
0.05
0.05
0.09
0.05
0.09
0.05
0.09
0.10
0.10
0.10
0.11
0.09
0.11
0.10
0.13
0.09
0.13
0.10
0.11
0.11
0.11
0.11
0.09
0.13
0.11
0.13
0.11
0.13
0.11
0.13
0.11
0.13
0.13
0.14
0.11
0.13
0.10
0.10
0.14
0.10
0.11
0.10
0.11
0.09
0.13
0.09
0.10
0.10
0.11
0.01
0.01
0.02
0.00
0.17
0.03
0.00
0.01
0.18
0.16
0.23
0.05
0.05
0.03
0.51
0.06
0.14
0.03
0.66
0.92
0.70
0.25
0.55
0.54
0.53
0.37
0.31
0.33
0.31
0.31
0.33
0.37
0.37
0.37
0.38
0.40
0.44
0.47
0.49
0.50
0.50
0.51
0.54
0.54
0.55
0.55
0.56
0.55
0.53
0.54
0.51
0.49
0.38
0.28
0.14
0.10
0.00
0.01
0.00
0.01
0.00
0.00
0.00
0.03
0.01
0.01
0.03
0.01
0.03
0.01
0.03
0.00
0.03
0.00
0.10
0.33
0.49
0.57
0.55
0.21
0.79
0.97
0.99
1.00
1.00
0.99
0.97
0.95
0.97
0.98
0.97
0.92
0.71
0.21
0.49
0.53
0.56
0.58
0.57
0.56
0.58
0.58
0.56
0.56
0.60
0.63
0.72
0.79
0.83
0.86
0.87
0.87
0.87
0.88
0.87
0.88
0.87
0.85
0.77
0.63
0.57
0.58
0.51
0.48
0.37
0.25
0.23
0.19
0.19
0.16
0.18
0.13
0.14
0.14
0.14
0.13
0.11
0.10
0.09
0.09
0.03
0.09
0.01
0.01
0.01
0.06
0.14
0.17
0.63
0.78
0.78
0.85
0.84
0.92
0.94
0.94
0.94
0.95
0.97
0.95
0.80
0.02
0.10
0.37
0.28
0.37
0.43
0.47
0.49
0.50
0.51
0.54
0.54
0.57
0.58
0.57
0.57
0.57
0.57
0.57
0.56
0.56
0.57
0.58
0.56
0.58
0.55
0.53
0.49
0.38
0.28
0.13
0.05
0.00
0.03
0.00
0.20
0.04
0.45
0.07
0.14
0.03
0.01
0.09
0.10
0.05
0.05
0.05
0.10
0.05
0.05
0.09
0.13
0.41
0.82
0.18
0.70
0.56
0.60
0.54
0.16
0.10
0.09
0.05
0.00
0.01
0.00
0.00
0.00
0.00
0.01
0.00
0.01
0.01
0.02
0.02
0.01
0.03
0.01
0.00
0.03
0.03
0.10
0.11
0.14
0.13
0.18
0.18
0.14
0.11
0.10
0.05
0.01
0.01
0.00
0.00
0.01
0.00
0.02
0.00
0.01
0.00
0.02
0.00
0.01
0.02
0.03
0.01
0.01
0.02
0.01
0.02
0.01
0.03
0.00
0.01
0.03
0.03
0.03
0.27
0.41
0.57
0.74
0.68
0.83
0.75
0.89
0.93
0.92
0.92
0.92
0.95
0.96
0.86
0.66
0.33
0.11
0.40
0.33
0.43
0.43
0.50
0.38
0.50
0.54
0.54
0.57
0.57
0.57
0.57
0.56
0.57
0.58
0.60
0.58
0.58
0.56
0.57
0.58
0.56
0.58
0.55
0.51
0.48
0.33
0.23
0.16
0.13
0.11
0.10
0.10
0.10
0.13
0.09
0.10
0.09
0.09
0.09
0.11
0.09
0.10
0.11
0.10
0.09
0.09
0.11
0.09
0.10
0.05
0.10
0.09
0.10
0.09
0.09
0.03
0.09
0.09
0.05
0.05
0.05
0.05
0.03
0.03
0.01
0.09
0.01
0.03
0.05
0.05
0.03
0.05
0.09
0.05
0.10
0.09
0.09
0.05
0.11
0.10
0.11
0.10
0.11
0.11
0.11
0.14
0.13
0.13
0.11
0.13
0.10
0.14
0.13
0.16
0.13
0.14
0.16
0.16
0.13
0.09
0.13
0.01
0.00
0.09
0.00
0.01
0.16
0.25
0.25
0.28
0.28
0.23
0.31
0.18
0.16
0.28
0.45
0.68
0.60
0.13
0.56
0.57
0.57
0.48
0.25
0.23
0.23
0.18
0.19
0.16
0.21
0.14
0.18
0.14
0.18
0.16
0.19
0.21
0.25
0.29
0.33
0.37
0.43
0.45
0.48
0.49
0.49
0.50
0.49
0.50
0.45
0.45
0.37
0.31
0.28
0.18
0.16
0.14
0.11
0.09
0.10
0.03
0.03
0.05
0.03
0.03
0.03
0.05
0.00
0.01
0.01
0.03
0.01
0.05
0.18
0.48
0.54
0.58
0.51
0.53
0.92
0.99
1.00
1.00
0.99
0.98
0.95
0.95
0.99
0.99
0.97
0.91
0.32
0.31
0.48
0.53
0.54
0.56
0.58
0.57
0.56
0.57
0.57
0.56
0.60
0.70
0.78
0.81
0.85
0.86
0.87
0.87
0.87
0.87
0.87
0.87
0.85
0.80
0.70
0.56
0.56
0.54
0.49
0.38
0.23
0.18
0.13
0.14
0.10
0.11
0.10
0.10
0.09
0.09
0.09
0.03
0.09
0.03
0.05
0.00
0.03
0.00
0.00
0.00
0.00
0.02
0.00
0.17
0.20
0.20
0.68
0.71
0.78
0.79
0.86
0.92
0.93
0.92
0.93
0.95
0.97
0.93
0.72
0.10
0.09
0.43
0.33
0.37
0.45
0.48
0.49
0.51
0.53
0.54
0.56
0.58
0.57
0.57
0.57
0.57
0.57
0.56
0.56
0.56
0.57
0.58
0.57
0.58
0.53
0.54
0.48
0.31
0.16
0.00
0.01
0.34
0.22
0.31
0.06
0.03
0.01
0.01
0.05
0.01
0.05
0.09
0.05
0.05
0.10
0.19
0.17
0.82
0.35
0.79
0.56
0.62
0.49
0.14
0.01
0.05
0.01
0.00
0.00
0.01
0.02
0.03
0.03
0.06
0.04
0.04
0.03
0.07
0.04
0.04
0.04
0.06
0.04
0.01
0.02
0.00
0.00
0.05
0.03
0.09
0.09
0.03
0.01
0.01
0.00
0.00
0.01
0.01
0.02
0.03
0.02
0.03
0.02
0.03
0.03
0.03
0.03
0.04
0.03
0.03
0.03
0.03
0.03
0.03
0.04
0.02
0.03
0.03
0.03
0.03
0.04
0.03
0.04
0.09
0.06
0.09
0.27
0.41
0.53
0.72
0.67
0.79
0.70
0.87
0.92
0.92
0.92
0.93
0.95
0.97
0.92
0.72
0.07
0.31
0.11
0.18
0.28
0.48
0.53
0.53
0.54
0.54
0.57
0.58
0.57
0.58
0.57
0.56
0.58
0.59
0.63
0.62
0.61
0.57
0.56
0.57
0.58
0.57
0.57
0.54
0.50
0.43
0.25
0.18
0.09
0.10
0.01
0.00
0.00
0.00
0.00
0.01
0.00
0.03
0.02
0.03
0.00
0.01
0.01
0.01
0.01
0.00
0.00
0.00
0.00
0.00
0.00
0.00
0.01
0.01
0.00
0.00
0.01
0.00
0.00
0.00
0.00
0.00
0.00
0.00
0.01
0.00
0.00
0.00
0.03
0.01
0.01
0.00
0.01
0.00
0.00
0.00
0.00
0.00
0.00
0.03
0.00
0.01
0.00
0.01
0.00
0.01
0.01
0.01
0.01
0.01
0.01
0.00
0.00
0.01
0.03
0.00
0.01
0.03
0.03
0.07
0.20
0.32
0.04
0.03
0.05
0.14
0.13
0.13
0.13
0.09
0.11
0.13
0.11
0.02
0.22
0.78
0.19
0.58
0.61
0.56
0.56
0.28
0.14
0.11
0.13
0.03
0.05
0.05
0.03
0.03
0.01
0.03
0.01
0.03
0.03
0.05
0.05
0.14
0.14
0.21
0.25
0.31
0.31
0.35
0.35
0.43
0.38
0.38
0.33
0.28
0.33
0.21
0.23
0.16
0.16
0.11
0.09
0.09
0.03
0.01
0.01
0.03
0.03
0.01
0.01
0.01
0.01
0.03
0.00
0.01
0.01
0.00
0.00
0.11
0.43
0.53
0.58
0.51
0.34
0.92
0.98
1.00
1.00
0.99
0.97
0.95
0.95
0.99
0.98
0.97
0.91
0.32
0.25
0.47
0.45
0.53
0.54
0.58
0.57
0.57
0.56
0.58
0.63
0.69
0.76
0.79
0.84
0.86
0.87
0.87
0.87
0.87
0.87
0.87
0.86
0.84
0.79
0.63
0.57
0.58
0.54
0.47
0.40
0.31
0.23
0.23
0.21
0.19
0.18
0.18
0.18
0.18
0.13
0.16
0.13
0.13
0.10
0.11
0.09
0.09
0.05
0.03
0.01
0.01
0.03
0.07
0.14
0.22
0.66
0.67
0.76
0.72
0.87
0.92
0.92
0.92
0.93
0.95
0.97
0.91
0.67
0.25
0.01
0.40
0.31
0.38
0.44
0.48
0.49
0.51
0.54
0.55
0.57
0.57
0.56
0.58
0.57
0.56
0.56
0.56
0.56
0.56
0.57
0.57
0.57
0.56
0.54
0.49
0.44
0.05
0.01
0.03
0.01
0.00
0.03
0.11
0.05
0.09
0.10
0.13
0.10
0.13
0.09
0.25
0.01
0.59
0.02
0.80
0.85
0.58
0.50
0.23
0.01
0.00
0.01
0.01
0.00
0.02
0.00
0.03
0.03
0.03
0.03
0.04
0.04
0.06
0.09
0.09
0.14
0.07
0.17
0.07
0.07
0.06
0.06
0.06
0.03
0.03
0.03
0.03
0.03
0.03
0.03
0.04
0.03
0.06
0.04
0.06
0.03
0.04
0.03
0.04
0.04
0.03
0.03
0.02
0.02
0.02
0.03
0.02
0.02
0.02
0.03
0.01
0.02
0.03
0.03
0.02
0.02
0.03
0.02
0.03
0.03
0.03
0.02
0.09
0.20
0.34
0.60
0.72
0.66
0.75
0.70
0.89
0.92
0.92
0.93
0.93
0.97
0.97
0.86
0.71
0.05
0.10
0.43
0.45
0.48
0.50
0.50
0.51
0.54
0.53
0.58
0.57
0.57
0.58
0.56
0.56
0.58
0.60
0.63
0.62
0.59
0.56
0.56
0.57
0.57
0.57
0.56
0.53
0.49
0.38
0.23
0.16
0.09
0.09
0.05
0.09
0.03
0.01
0.03
0.01
0.03
0.01
0.05
0.00
0.01
0.00
0.01
0.00
0.00
0.00
0.01
0.01
0.00
0.02
0.01
0.00
0.01
0.02
0.01
0.01
0.03
0.03
0.03
0.03
0.03
0.03
0.03
0.03
0.03
0.03
0.02
0.03
0.03
0.03
0.02
0.02
0.02
0.02
0.02
0.03
0.02
0.02
0.02
0.01
0.02
0.01
0.02
0.00
0.02
0.00
0.02
0.00
0.02
0.00
0.00
0.00
0.03
0.06
0.03
0.20
0.20
0.45
0.17
0.14
0.00
0.09
0.05
0.09
0.09
0.05
0.10
0.05
0.10
0.01
0.20
0.79
0.45
0.56
0.64
0.61
0.56
0.19
0.10
0.11
0.03
0.01
0.01
0.00
0.01
0.02
0.03
0.03
0.03
0.03
0.03
0.03
0.02
0.02
0.01
0.00
0.05
0.10
0.13
0.13
0.18
0.18
0.19
0.21
0.21
0.21
0.21
0.19
0.14
0.13
0.10
0.09
0.00
0.00
0.00
0.00
0.00
0.00
0.01
0.01
0.02
0.02
0.02
0.01
0.01
0.01
0.00
0.01
0.00
0.01
0.00
0.02
0.00
0.02
0.00
0.00
0.00
0.00
0.00
0.00
0.03
0.00
0.00
0.01
0.02
0.00
0.02
0.01
0.06
0.06
0.04
0.09
0.34
0.31
0.17
0.17
0.05
0.05
0.11
0.01
0.09
0.09
0.10
0.10
0.16
0.01
0.09
0.70
0.49
0.56
0.56
0.56
0.58
0.33
0.14
0.13
0.10
0.10
0.03
0.03
0.03
0.01
0.00
0.00
0.00
0.02
0.01
0.03
0.00
0.00
0.00
0.00
0.03
0.01
0.10
0.11
0.16
0.16
0.18
0.16
0.14
0.14
0.11
0.09
0.01
0.00
0.02
0.03
0.03
0.03
0.04
0.04
0.03
0.03
0.03
0.03
0.01
0.03
0.01
0.02
0.00
0.02
0.00
0.01
0.01
0.01
0.00
0.00
0.00
0.00
0.00
0.01
0.00
0.01
0.00
0.01
0.00
0.03
0.00
0.00
0.00
0.01
0.01
0.00
0.03
0.04
0.04
0.14
0.34
0.22
0.09
0.06
0.05
0.03
0.11
0.01
0.05
0.05
0.05
0.09
0.09
0.20
0.45
0.82
0.56
0.82
0.64
0.63
0.53
0.11
0.03
0.00
0.00
0.01
0.02
0.03
0.03
0.06
0.07
0.07
0.06
0.09
0.07
0.14
0.17
0.17
0.09
0.14
0.07
0.04
0.03
0.00
0.00
0.09
0.11
0.13
0.11
0.16
0.10
0.09
0.05
0.03
0.00
0.02
0.02
0.03
0.02
0.03
0.02
0.04
0.03
0.06
0.03
0.04
0.04
0.04
0.04
0.06
0.04
0.04
0.04
0.03
0.04
0.03
0.04
0.02
0.03
0.03
0.03
0.02
0.03
0.03
0.03
0.02
0.02
0.03
0.02
0.03
0.04
0.03
0.17
0.32
0.42
0.71
0.72
0.80
0.79
0.91
0.93
0.95
0.95
0.95
0.96
0.97
0.91
0.66
0.28
0.16
0.45
0.45
0.49
0.50
0.51
0.51
0.54
0.53
0.56
0.58
0.57
0.57
0.57
0.56
0.58
0.61
0.63
0.63
0.63
0.59
0.56
0.57
0.58
0.57
0.56
0.53
0.49
0.37
0.21
0.11
0.01
0.00
0.02
0.00
0.00
0.01
0.03
0.01
0.02
0.02
0.02
0.03
0.02
0.03
0.02
0.03
0.03
0.03
0.02
0.03
0.03
0.03
0.02
0.03
0.02
0.02
0.03
0.02
0.02
0.00
0.01
0.00
0.00
0.00
0.01
0.03
0.00
0.00
0.01
0.01
0.00
0.00
0.01
0.00
0.03
0.00
0.01
0.00
0.01
0.01
0.03
0.01
0.03
0.03
0.03
0.01
0.00
0.05
0.01
0.01
0.03
0.03
0.03
0.09
0.20
0.22
0.06
0.03
0.10
0.16
0.16
0.11
0.11
0.10
0.13
0.10
0.13
0.00
0.06
0.82
0.55
0.70
0.64
0.68
0.58
0.28
0.14
0.13
0.10
0.11
0.05
0.05
0.01
0.03
0.00
0.00
0.00
0.02
0.02
0.02
0.03
0.03
0.00
0.01
0.01
0.01
0.09
0.10
0.14
0.16
0.21
0.19
0.23
0.23
0.23
0.25
0.21
0.19
0.10
0.10
0.03
0.05
0.01
0.03
0.01
0.01
0.03
0.03
0.03
0.00
0.01
0.00
0.00
0.02
0.00
0.01
0.00
0.01
0.00
0.00
0.00
0.00
0.01
0.01
0.03
0.01
0.00
0.00
0.00
0.03
0.00
0.03
0.01
0.03
0.01
0.01
0.03
0.01
0.03
0.00
0.02
0.03
0.03
0.03
0.31
0.14
0.03
0.01
0.16
0.18
0.19
0.11
0.13
0.16
0.13
0.13
0.19
0.03
0.31
0.80
0.57
0.68
0.56
0.56
0.56
0.14
0.13
0.09
0.10
0.05
0.03
0.01
0.03
0.00
0.01
0.00
0.00
0.00
0.01
0.03
0.03
0.01
0.09
0.10
0.10
0.14
0.18
0.23
0.25
0.31
0.31
0.33
0.31
0.25
0.19
0.16
0.13
0.03
0.03
0.00
0.00
0.03
0.03
0.02
0.02
0.03
0.01
0.03
0.01
0.01
0.03
0.02
0.03
0.03
0.03
0.02
0.03
0.02
0.02
0.03
0.02
0.00
0.01
0.02
0.00
0.02
0.00
0.02
0.01
0.02
0.00
0.01
0.00
0.02
0.01
0.00
0.03
0.07
0.03
0.09
0.32
0.31
0.27
0.09
0.00
0.10
0.10
0.09
0.10
0.11
0.11
0.11
0.14
0.05
0.14
0.70
0.38
0.59
0.63
0.58
0.57
0.33
0.10
0.05
0.01
0.00
0.01
0.01
0.04
0.03
0.07
0.04
0.09
0.07
0.14
0.14
0.14
0.14
0.14
0.14
0.14
0.07
0.06
0.03
0.00
0.00
0.03
0.03
0.10
0.05
0.03
0.01
0.00
0.02
0.03
0.03
0.06
0.06
0.09
0.06
0.09
0.09
0.09
0.07
0.09
0.09
0.06
0.09
0.06
0.06
0.04
0.06
0.04
0.04
0.04
0.07
0.04
0.07
0.06
0.06
0.03
0.06
0.06
0.04
0.06
0.04
0.07
0.04
0.06
0.04
0.07
0.04
0.07
0.06
0.07
0.07
0.07
0.27
0.22
0.31
0.32
0.52
0.41
0.32
0.17
0.01
0.03
0.00
0.00
0.00
0.01
0.00
0.00
0.00
0.27
0.51
0.85
0.57
0.78
0.64
0.64
0.53
0.00
0.03
0.03
0.07
0.07
0.17
0.17
0.20
0.14
0.27
0.20
0.22
0.22
0.31
0.31
0.32
0.34
0.31
0.32
0.22
0.27
0.17
0.14
0.03
0.03
0.00
0.00
0.00
0.00
0.00
0.01
0.03
0.04
0.06
0.06
0.17
0.07
0.20
0.09
0.17
0.09
0.17
0.09
0.14
0.20
0.17
0.17
0.17
0.22
0.17
0.17
0.14
0.22
0.17
0.17
0.14
0.14
0.09
0.09
0.09
0.04
0.09
0.04
0.07
0.06
0.07
0.06
0.06
0.06
0.07
0.07
0.04
0.09
0.07
0.07
0.04
0.09
0.04
0.06
0.04
0.06
0.17
0.17
0.17
0.22
0.42
0.31
0.20
0.06
0.03
0.13
0.09
0.05
0.03
0.03
0.05
0.05
0.09
0.09
0.31
0.83
0.58
0.76
0.70
0.70
0.57
0.19
0.05
0.05
0.00
0.00
0.02
0.03
0.03
0.02
0.04
0.03
0.06
0.04
0.07
0.09
0.07
0.09
0.09
0.09
0.04
0.06
0.03
0.00
0.05
0.09
0.13
0.16
0.16
0.16
0.16
0.13
0.09
0.09
0.01
0.00
0.02
0.01
0.02
0.01
0.03
0.01
0.02
0.02
0.01
0.01
0.02
0.03
0.02
0.03
0.03
0.03
0.03
0.06
0.03
0.03
0.03
0.02
0.02
0.02
0.03
0.00
0.01
0.00
0.01
0.00
0.00
0.00
0.00
0.00
0.00
0.00
0.00
0.01
0.00
0.00
0.00
0.00
0.00
0.03
0.03
0.04
0.14
0.22
0.22
0.06
0.03
0.13
0.16
0.14
0.11
0.11
0.09
0.11
0.11
0.11
0.02
0.20
0.81
0.58
0.76
0.69
0.70
0.57
0.21
0.13
0.13
0.09
0.09
0.03
0.05
0.00
0.01
0.00
0.01
0.00
0.01
0.00
0.01
0.00
0.00
0.03
0.03
0.10
0.10
0.16
0.19
0.28
0.28
0.38
0.37
0.37
0.35
0.35
0.29
0.25
0.23
0.18
0.14
0.13
0.14
0.10
0.14
0.13
0.14
0.13
0.13
0.13
0.13
0.11
0.13
0.10
0.09
0.11
0.10
0.11
0.10
0.10
0.10
0.11
0.11
0.13
0.14
0.18
0.14
0.14
0.14
0.14
0.16
0.13
0.13
0.13
0.13
0.09
0.13
0.14
0.11
0.11
0.11
0.11
0.10
0.05
0.00
0.05
0.03
0.02
0.17
0.03
0.02
0.14
0.19
0.21
0.18
0.18
0.19
0.21
0.21
0.21
0.23
0.02
0.57
0.02
0.56
0.66
0.60
0.57
0.49
0.13
0.14
0.13
0.11
0.03
0.00
0.05
0.01
0.01
0.00
0.00
0.02
0.00
0.00
0.00
0.00
0.00
0.00
0.00
0.05
0.10
0.14
0.16
0.19
0.21
0.25
0.21
0.23
0.19
0.16
0.11
0.10
0.09
0.01
0.05
0.00
0.00
0.00
0.01
0.00
0.00
0.00
0.03
0.00
0.01
0.01
0.01
0.03
0.01
0.05
0.01
0.05
0.05
0.09
0.03
0.09
0.09
0.09
0.10
0.10
0.13
0.11
0.11
0.11
0.14
0.13
0.14
0.13
0.14
0.13
0.16
0.14
0.14
0.16
0.16
0.13
0.10
0.01
0.05
0.01
0.04
0.07
0.03
0.00
0.13
0.23
0.18
0.18
0.18
0.14
0.16
0.16
0.21
0.10
0.06
0.70
0.43
0.68
0.78
0.66
0.57
0.40
0.09
0.05
0.01
0.00
0.02
0.02
0.03
0.03
0.06
0.04
0.07
0.04
0.14
0.06
0.09
0.14
0.14
0.09
0.07
0.07
0.04
0.03
0.00
0.00
0.09
0.09
0.09
0.09
0.10
0.03
0.01
0.00
0.02
0.03
0.06
0.04
0.09
0.07
0.17
0.07
0.14
0.09
0.17
0.14
0.17
0.09
0.14
0.17
0.14
0.14
0.07
0.09
0.09
0.07
0.06
0.07
0.06
0.07
0.04
0.06
0.04
0.06
0.04
0.04
0.04
0.06
0.04
0.03
0.04
0.03
0.03
0.03
0.04
0.03
0.03
0.03
0.03
0.02
0.14
0.09
0.14
0.22
0.46
0.31
0.17
0.09
0.05
0.01
0.10
0.00
0.01
0.03
0.03
0.01
0.11
0.32
0.62
0.53
0.61
0.81
0.60
0.56
0.47
0.03
0.05
0.01
0.00
0.01
0.03
0.03
0.06
0.03
0.06
0.06
0.06
0.07
0.06
0.14
0.07
0.09
0.06
0.07
0.03
0.03
0.02
0.00
0.05
0.09
0.11
0.11
0.14
0.10
0.09
0.05
0.00
0.00
0.03
0.03
0.06
0.06
0.06
0.04
0.06
0.04
0.07
0.07
0.07
0.07
0.07
0.09
0.09
0.09
0.07
0.14
0.06
0.14
0.07
0.07
0.04
0.09
0.04
0.04
0.03
0.04
0.03
0.04
0.04
0.06
0.04
0.04
0.06
0.04
0.04
0.03
0.03
0.03
0.03
0.03
0.03
0.03
0.03
0.09
0.14
0.14
0.22
0.49
0.32
0.22
0.09
0.01
0.03
0.03
0.00
0.00
0.01
0.00
0.00
0.05
0.32
0.38
0.83
0.57
0.78
0.56
0.56
0.51
0.03
0.00
0.02
0.03
0.04
0.09
0.09
0.09
0.07
0.14
0.07
0.14
0.09
0.14
0.09
0.14
0.09
0.09
0.07
0.06
0.04
0.02
0.01
0.05
0.09
0.13
0.13
0.16
0.13
0.14
0.09
0.03
0.00
0.00
0.03
0.04
0.04
0.07
0.06
0.09
0.07
0.07
0.07
0.09
0.14
0.14
0.14
0.14
0.09
0.14
0.09
0.09
0.09
0.06
0.06
0.03
0.04
0.02
0.03
0.02
0.01
0.00
0.01
0.00
0.01
0.02
0.00
0.00
0.00
0.01
0.00
0.01
0.00
0.00
0.01
0.04
0.02
0.17
0.14
0.41
0.22
0.07
0.00
0.13
0.09
0.13
0.05
0.11
0.10
0.10
0.11
0.11
0.09
0.66
0.05
0.61
0.72
0.62
0.58
0.45
0.03
0.09
0.05
0.01
0.00
0.00
0.00
0.00
0.01
0.02
0.00
0.01
0.02
0.01
0.01
0.01
0.01
0.00
0.01
0.05
0.09
0.11
0.16
0.23
0.25
0.29
0.29
0.25
0.23
0.18
0.18
0.10
0.11
0.05
0.05
0.01
0.01
0.00
0.03
0.01
0.00
0.00
0.00
0.00
0.01
0.00
0.00
0.03
0.01
0.00
0.01
0.03
0.01
0.00
0.00
0.01
0.00
0.00
0.01
0.00
0.00
0.00
0.00
0.00
0.01
0.00
0.03
0.01
0.03
0.01
0.03
0.05
0.05
0.03
0.01
0.03
0.00
0.14
0.14
0.27
0.14
0.07
0.01
0.13
0.11
0.14
0.11
0.14
0.13
0.13
0.18
0.01
0.04
0.72
0.56
0.61
0.56
0.56
0.58
0.18
0.16
0.09
0.10
0.03
0.05
0.00
0.01
0.00
0.00
0.00
0.00
0.00
0.00
0.02
0.01
0.00
0.00
0.01
0.01
0.05
0.09
0.11
0.14
0.18
0.19
0.23
0.21
0.21
0.18
0.16
0.11
0.09
0.09
0.00
0.00
0.01
0.01
0.02
0.02
0.02
0.03
0.03
0.02
0.03
0.03
0.03
0.03
0.03
0.03
0.02
0.03
0.02
0.02
0.01
0.03
0.01
0.02
0.01
0.01
0.02
0.01
0.01
0.00
0.00
0.00
0.00
0.00
0.01
0.00
0.00
0.00
0.07
0.03
0.09
0.17
0.41
0.20
0.06
0.00
0.10
0.10
0.11
0.05
0.09
0.10
0.11
0.10
0.11
0.20
0.66
0.18
0.72
0.82
0.70
0.58
0.31
0.05
0.01
0.03
0.02
0.02
0.03
0.02
0.04
0.04
0.06
0.07
0.09
0.07
0.09
0.20
0.14
0.17
0.14
0.17
0.07
0.06
0.02
0.02
0.01
0.01
0.05
0.10
0.13
0.10
0.10
0.09
0.01
0.00
0.01
0.00
0.03
0.01
0.02
0.02
0.02
0.01
0.01
0.03
0.02
0.03
0.02
0.03
0.02
0.03
0.02
0.03
0.02
0.03
0.02
0.02
0.02
0.03
0.02
0.00
0.02
0.00
0.01
0.00
0.02
0.00
0.00
0.01
0.00
0.01
0.01
0.00
0.01
0.03
0.03
0.00
0.00
0.00
0.03
0.02
0.06
0.06
0.34
0.07
0.03
0.05
0.19
0.21
0.19
0.18
0.14
0.21
0.16
0.19
0.23
0.06
0.54
0.49
0.66
0.84
0.63
0.57
0.49
0.11
0.14
0.10
0.10
0.03
0.03
0.00
0.00
0.01
0.00
0.02
0.02
0.02
0.03
0.03
0.04
0.03
0.03
0.01
0.02
0.00
0.03
0.10
0.14
0.19
0.21
0.21
0.23
0.25
0.23
0.19
0.16
0.13
0.13
0.09
0.05
0.05
0.10
0.03
0.05
0.05
0.05
0.05
0.03
0.05
0.01
0.05
0.01
0.03
0.00
0.01
0.00
0.01
0.00
0.01
0.00
0.01
0.01
0.01
0.03
0.01
0.05
0.03
0.09
0.03
0.09
0.03
0.09
0.03
0.09
0.03
0.05
0.09
0.05
0.05
0.05
0.00
0.03
0.00
0.04
0.17
0.17
0.02
0.01
0.19
0.21
0.21
0.16
0.18
0.21
0.19
0.19
0.19
0.03
0.03
0.78
0.57
0.78
0.63
0.66
0.56
0.21
0.16
0.16
0.13
0.09
0.10
0.09
0.09
0.03
0.09
0.03
0.03
0.01
0.05
0.03
0.05
0.05
0.09
0.09
0.11
0.16
0.21
0.23
0.29
0.33
0.33
0.37
0.35
0.37
0.31
0.29
0.21
0.19
0.16
0.14
0.11
0.10
0.11
0.09
0.10
0.09
0.11
0.09
0.10
0.05
0.10
0.05
0.09
0.10
0.03
0.05
0.03
0.09
0.03
0.11
0.10
0.10
0.09
0.09
0.09
0.09
0.10
0.09
0.10
0.10
0.11
0.13
0.11
0.10
0.16
0.10
0.13
0.11
0.13
0.00
0.09
0.02
0.03
0.09
0.06
0.00
0.05
0.21
0.21
0.21
0.19
0.25
0.23
0.21
0.25
0.28
0.03
0.54
0.00
0.58
0.68
0.60
0.57
0.50
0.19
0.18
0.19
0.13
0.11
0.09
0.10
0.09
0.05
0.05
0.00
0.01
0.01
0.05
0.03
0.01
0.03
0.09
0.03
0.10
0.13
0.14
0.19
0.19
0.25
0.23
0.28
0.21
0.23
0.14
0.16
0.11
0.10
0.03
0.05
0.01
0.00
0.01
0.00
0.00
0.00
0.01
0.00
0.00
0.00
0.01
0.01
0.00
0.03
0.03
0.01
0.01
0.01
0.00
0.01
0.01
0.01
0.00
0.01
0.00
0.00
0.00
0.00
0.00
0.00
0.00
0.00
0.00
0.01
0.00
0.03
0.00
0.02
0.01
0.07
0.07
0.20
0.17
0.45
0.32
0.20
0.14
0.05
0.03
0.09
0.00
0.05
0.05
0.05
0.09
0.14
0.17
0.32
0.78
0.56
0.79
0.58
0.57
0.54
0.03
0.01
0.01
0.02
0.02
0.03
0.03
0.03
0.07
0.06
0.09
0.09
0.14
0.09
0.17
0.17
0.22
0.20
0.22
0.17
0.09
0.09
0.03
0.02
0.00
0.00
0.05
0.09
0.09
0.05
0.03
0.01
0.00
0.01
0.02
0.02
0.04
0.03
0.04
0.04
0.03
0.03
0.06
0.03
0.06
0.04
0.04
0.06
0.06
0.06
0.06
0.06
0.04
0.07
0.04
0.06
0.04
0.06
0.03
0.04
0.03
0.03
0.03
0.03
0.03
0.02
0.03
0.03
0.03
0.02
0.03
0.02
0.03
0.02
0.03
0.03
0.03
0.09
0.06
0.22
0.14
0.46
0.20
0.17
0.02
0.10
0.10
0.13
0.09
0.05
0.11
0.11
0.10
0.19
0.20
0.54
0.54
0.63
0.82
0.63
0.57
0.50
0.01
0.05
0.01
0.00
0.01
0.02
0.02
0.03
0.03
0.04
0.03
0.07
0.06
0.09
0.17
0.20
0.14
0.14
0.17
0.14
0.07
0.06
0.03
0.00
0.00
0.01
0.00
0.05
0.01
0.03
0.00
0.00
0.03
0.04
0.06
0.09
0.09
0.09
0.09
0.17
0.09
0.14
0.07
0.14
0.07
0.07
0.09
0.14
0.17
0.14
0.17
0.17
0.20
0.09
0.22
0.14
0.17
0.14
0.20
0.09
0.14
0.14
0.09
0.14
0.14
0.17
0.09
0.17
0.09
0.09
0.06
0.14
0.07
0.09
0.07
0.07
0.07
0.17
0.31
0.17
0.34
0.46
0.49
0.32
0.27
0.02
0.00
0.00
0.01
0.01
0.01
0.01
0.00
0.00
0.04
0.27
0.79
0.53
0.70
0.66
0.66
0.53
0.16
0.01
0.01
0.03
0.06
0.06
0.07
0.06
0.14
0.07
0.17
0.17
0.20
0.20
0.20
0.20
0.22
0.27
0.22
0.22
0.17
0.17
0.06
0.06
0.02
0.00
0.00
0.01
0.03
0.01
0.00
0.01
0.02
0.04
0.06
0.06
0.14
0.14
0.17
0.09
0.09
0.09
0.09
0.14
0.09
0.09
0.04
0.07
0.04
0.09
0.04
0.07
0.06
0.06
0.06
0.07
0.06
0.04
0.07
0.04
0.06
0.03
0.07
0.03
0.04
0.03
0.04
0.03
0.03
0.03
0.03
0.03
0.02
0.03
0.09
0.09
0.20
0.22
0.45
0.32
0.17
0.03
0.09
0.05
0.09
0.05
0.03
0.10
0.09
0.10
0.14
0.07
0.52
0.57
0.60
0.79
0.59
0.57
0.50
0.11
0.13
0.09
0.09
0.01
0.03
0.00
0.01
0.00
0.00
0.02
0.01
0.01
0.02
0.02
0.03
