0.08
0.08
0.10
0.12
0.12
0.13
0.13
0.15
0.17
0.20
0.23
0.28
0.28
0.29
0.29
0.33
0.33
0.31
0.33
0.35
0.35
0.34
0.35
0.34
0.35
0.32
0.29
0.25
0.15
0.08
0.05
0.03
0.00
0.00
0.00
0.00
0.00
0.00
0.00
0.00
0.00
0.00
0.00
0.00
0.00
0.00
0.00
0.01
0.03
0.03
0.01
0.01
0.03
0.01
0.01
0.01
0.00
0.00
0.00
0.01
0.00
0.00
0.00
0.00
0.00
0.00
0.03
0.05
0.08
0.08
0.10
0.12
0.17
0.17
0.15
0.15
0.08
0.05
0.01
0.00
0.00
0.00
0.01
0.00
0.01
0.01
0.01
0.00
0.00
0.00
0.00
0.01
0.18
0.12
0.72
0.85
0.89
0.74
0.51
0.70
0.18
0.08
0.08
0.05
0.05
0.05
0.05
0.08
0.05
0.08
0.08
0.10
0.13
0.12
0.13
0.15
0.15
0.20
0.23
0.25
0.29
0.29
0.29
0.33
0.33
0.32
0.33
0.35
0.34
0.35
0.35
0.37
0.35
0.33
0.33
0.30
0.23
0.12
0.08
0.03
0.00
0.00
0.01
0.00
0.01
0.00
0.00
0.00
0.00
0.00
0.00
0.00
0.00
0.01
0.00
0.01
0.00
0.01
0.03
0.01
0.03
0.01
0.01
0.01
0.00
0.01
0.00
0.00
0.00
0.00
0.00
0.00
0.00
0.00
0.00
0.00
0.00
0.01
0.05
0.08
0.08
0.08
0.12
0.13
0.17
0.17
0.15
0.15
0.08
0.05
0.01
0.00
0.00
0.00
0.00
0.00
0.00
0.00
0.00
0.00
0.00
0.01
0.00
0.00
0.06
0.29
0.81
0.89
0.86
0.66
0.64
0.58
0.03
0.08
0.05
0.05
0.05
0.05
0.05
0.08
0.05
0.08
0.08
0.12
0.12
0.13
0.13
0.17
0.15
0.20
0.25
0.28
0.29
0.30
0.29
0.33
0.32
0.32
0.35
0.35
0.37
0.37
0.42
0.42
0.34
0.32
0.33
0.29
0.20
0.10
0.05
0.01
0.00
0.00
0.00
0.00
0.00
0.01
0.01
0.00
0.01
0.00
0.00
0.00
0.00
0.00
0.00
0.01
0.00
0.00
0.01
0.01
0.01
0.00
0.00
0.00
0.00
0.00
0.00
0.00
0.00
0.00
0.00
0.00
0.00
0.00
0.00
0.00
0.00
0.01
0.03
0.05
0.05
0.08
0.08
0.15
0.17
0.15
0.15
0.12
0.03
0.01
0.00
0.00
0.01
0.01
0.02
0.02
0.06
0.02
0.02
0.02
0.01
0.01
0.01
0.10
0.01
0.35
0.84
0.94
0.83
0.20
0.75
0.47
0.00
0.03
0.00
0.00
0.00
0.00
0.00
0.01
0.00
0.01
0.03
0.05
0.05
0.08
0.08
0.10
0.10
0.12
0.15
0.17
0.20
0.25
0.29
0.30
0.29
0.33
0.32
0.32
0.35
0.35
0.35
0.35
0.32
0.33
0.29
0.17
0.10
0.03
0.00
0.02
0.06
0.18
0.18
0.18
0.18
0.18
0.18
0.18
0.18
0.18
0.06
0.06
0.06
0.06
0.06
0.02
0.06
0.02
0.02
0.02
0.02
0.02
0.06
0.06
0.10
0.10
0.10
0.06
0.06
0.10
0.10
0.10
0.18
0.10
0.10
0.10
0.10
0.10
0.10
0.01
0.01
0.00
0.00
0.03
0.05
0.08
0.10
0.08
0.08
0.00
0.00
0.02
0.02
0.10
0.18
0.10
0.18
0.30
0.18
0.18
0.18
0.10
0.10
0.06
0.10
0.46
0.00
0.37
0.84
0.89
0.75
0.47
0.75
0.51
0.00
0.00
0.02
0.02
0.02
0.01
0.02
0.01
0.00
0.00
0.00
0.01
0.03
0.03
0.05
0.08
0.08
0.10
0.12
0.15
0.20
0.25
0.25
0.29
0.29
0.33
0.32
0.32
0.32
0.33
0.32
0.31
0.33
0.30
0.23
0.12
0.05
0.00
0.02
0.10
0.10
0.10
0.18
0.18
0.30
0.18
0.30
0.18
0.10
0.10
0.06
0.10
0.10
0.06
0.10
0.06
0.02
0.02
0.06
0.06
0.06
0.02
0.10
0.06
0.06
0.06
0.06
0.06
0.10
0.06
0.18
0.10
0.10
0.06
0.06
0.06
0.06
0.02
0.02
0.00
0.01
0.01
0.03
0.08
0.10
0.12
0.08
0.08
0.01
0.00
0.01
0.02
0.10
0.10
0.10
0.10
0.10
0.06
0.10
0.06
0.06
0.02
0.06
0.06
0.35
0.10
0.67
0.83
0.86
0.69
0.62
0.75
0.40
0.03
0.03
0.00
0.00
0.00
0.00
0.00
0.01
0.03
0.03
0.05
0.05
0.05
0.08
0.08
0.10
0.12
0.13
0.15
0.20
0.25
0.28
0.29
0.29
0.33
0.33
0.32
0.32
0.33
0.33
0.32
0.33
0.32
0.33
0.29
0.17
0.10
0.03
0.01
0.01
0.02
0.06
0.02
0.02
0.06
0.06
0.10
0.06
0.02
0.02
0.01
0.01
0.01
0.01
0.01
0.01
0.00
0.00
0.00
0.00
0.00
0.01
0.01
0.01
0.01
0.02
0.02
0.02
0.02
0.02
0.06
0.01
0.02
0.02
0.01
0.02
0.00
0.00
0.00
0.03
0.05
0.05
0.10
0.12
0.12
0.12
0.08
0.03
0.00
0.01
0.02
0.06
0.06
0.18
0.10
0.10
0.06
0.02
0.06
0.02
0.02
0.06
0.30
0.00
0.35
0.84
0.88
0.81
0.02
0.77
0.53
0.01
0.03
0.01
0.00
0.00
0.00
0.00
0.01
0.03
0.05
0.08
0.05
0.08
0.08
0.08
0.08
0.12
0.13
0.17
0.20
0.23
0.28
0.29
0.30
0.33
0.33
0.32
0.32
0.33
0.35
0.31
0.32
0.33
0.29
0.25
0.13
0.08
0.01
0.02
0.06
0.10
0.10
0.10
0.10
0.18
0.10
0.18
0.18
0.10
0.06
0.10
0.10
0.06
0.06
0.06
0.06
0.02
0.02
0.02
0.02
0.06
0.02
0.06
0.06
0.06
0.06
0.10
0.06
0.06
0.10
0.10
0.18
0.10
0.10
0.10
0.06
0.10
0.10
0.06
0.02
0.00
0.00
0.01
0.03
0.08
0.08
0.10
0.08
0.08
0.00
0.00
0.06
0.10
0.10
0.10
0.18
0.18
0.10
0.18
0.18
0.18
0.10
0.10
0.10
0.18
0.30
0.29
0.81
0.88
0.83
0.33
0.76
0.58
0.01
0.00
0.01
0.02
0.01
0.01
0.01
0.00
0.00
0.00
0.01
0.01
0.03
0.03
0.05
0.08
0.10
0.12
0.13
0.15
0.20
0.23
0.28
0.29
0.33
0.33
0.33
0.31
0.33
0.35
0.35
0.33
0.31
0.33
0.28
0.15
0.08
0.00
0.01
0.06
0.06
0.10
0.18
0.18
0.18
0.30
0.18
0.10
0.10
0.10
0.10
0.10
0.06
0.06
0.06
0.02
0.02
0.02
0.02
0.02
0.02
0.02
0.06
0.02
0.02
0.06
0.06
0.06
0.02
0.02
0.06
0.02
0.02
0.02
0.01
0.02
0.02
0.02
0.02
0.00
0.01
0.03
0.05
0.05
0.08
0.12
0.13
0.13
0.13
0.08
0.03
0.00
0.00
0.01
0.02
0.02
0.02
0.01
0.02
0.02
0.01
0.02
0.01
0.01
0.00
0.18
0.10
0.66
0.85
0.89
0.74
0.51
0.68
0.02
0.05
0.03
0.01
0.00
0.01
0.03
0.03
0.05
0.05
0.05
0.08
0.08
0.10
0.10
0.13
0.15
0.17
0.20
0.25
0.23
0.28
0.29
0.29
0.33
0.33
0.31
0.33
0.33
0.35
0.34
0.35
0.35
0.33
0.33
0.30
0.23
0.12
0.08
0.05
0.01
0.00
0.00
0.01
0.01
0.01
0.01
0.00
0.00
0.00
0.00
0.00
0.00
0.00
0.00
0.01
0.01
0.01
0.01
0.01
0.00
0.00
0.00
0.00
0.00
0.00
0.00
0.00
0.00
0.00
0.00
0.00
0.00
0.00
0.00
0.00
0.00
0.00
0.00
0.01
0.03
0.08
0.08
0.10
0.10
0.13
0.17
0.17
0.17
0.12
0.08
0.03
0.00
0.00
0.00
0.00
0.00
0.00
0.01
0.00
0.01
0.01
0.00
0.00
0.00
0.01
0.01
0.33
0.81
0.91
0.83
0.31
0.69
0.61
0.01
0.08
0.05
0.03
0.05
0.05
0.05
0.08
0.08
0.08
0.08
0.08
0.10
0.12
0.13
0.15
0.17
0.20
0.23
0.23
0.28
0.30
0.30
0.33
0.33
0.31
0.32
0.33
0.35
0.34
0.35
0.34
0.35
0.32
0.33
0.28
0.20
0.12
0.08
0.03
0.01
0.00
0.00
0.01
0.00
0.00
0.00
0.00
0.00
0.00
0.00
0.00
0.01
0.03
0.03
0.03
0.03
0.03
0.01
0.01
0.01
0.03
0.03
0.01
0.00
0.01
0.00
0.00
0.00
0.01
0.01
0.00
0.01
0.00
0.00
0.00
0.01
0.05
0.08
0.08
0.10
0.12
0.12
0.17
0.20
0.20
0.17
0.12
0.08
0.03
0.01
0.00
0.00
0.00
0.00
0.00
0.00
0.00
0.00
0.00
0.00
0.03
0.01
0.06
0.28
0.77
0.86
0.84
0.37
0.72
0.58
0.03
0.10
0.08
0.05
0.05
0.08
0.08
0.08
0.08
0.08
0.12
0.10
0.12
0.13
0.15
0.17
0.17
0.23
0.25
0.23
0.29
0.30
0.33
0.33
0.33
0.31
0.33
0.33
0.35
0.34
0.34
0.34
0.33
0.32
0.33
0.25
0.17
0.12
0.08
0.05
0.01
0.01
0.01
0.00
0.00
0.00
0.00
0.00
0.01
0.01
0.03
0.01
0.03
0.03
0.03
0.03
0.03
0.05
0.05
0.03
0.01
0.03
0.03
0.01
0.03
0.01
0.01
0.01
0.00
0.00
0.01
0.01
0.01
0.01
0.01
0.01
0.05
0.08
0.10
0.12
0.12
0.17
0.23
0.20
0.20
0.13
0.10
0.08
0.03
0.01
0.01
0.00
0.01
0.01
0.01
0.03
0.00
0.01
0.03
0.01
0.03
0.01
0.05
0.37
0.84
0.91
0.80
0.03
0.72
0.30
0.12
0.12
0.08
0.08
0.10
0.08
0.10
0.10
0.10
0.13
0.13
0.13
0.15
0.15
0.17
0.23
0.23
0.25
0.29
0.29
0.30
0.29
0.33
0.33
0.31
0.33
0.35
0.35
0.34
0.35
0.35
0.34
0.35
0.32
0.33
0.29
0.23
0.15
0.08
0.05
0.03
0.01
0.01
0.00
0.01
0.01
0.00
0.01
0.03
0.03
0.05
0.05
0.05
0.05
0.03
0.05
0.08
0.08
0.08
0.08
0.08
0.05
0.03
0.03
0.03
0.05
0.05
0.03
0.03
0.03
0.01
0.03
0.01
0.03
0.03
0.05
0.08
0.10
0.10
0.12
0.13
0.17
0.25
0.23
0.20
0.15
0.08
0.08
0.03
0.01
0.01
0.00
0.00
0.00
0.00
0.00
0.00
0.00
0.01
0.01
0.01
0.10
0.13
0.71
0.85
0.94
0.77
0.30
0.70
0.10
0.08
0.08
0.05
0.05
0.08
0.05
0.05
0.08
0.05
0.08
0.08
0.10
0.12
0.12
0.15
0.15
0.20
0.23
0.28
0.29
0.30
0.29
0.33
0.33
0.31
0.35
0.35
0.34
0.35
0.34
0.34
0.35
0.32
0.33
0.28
0.15
0.08
0.03
0.00
0.01
0.02
0.02
0.01
0.01
0.02
0.01
0.02
0.01
0.02
0.01
0.00
0.01
0.00
0.00
0.00
0.01
0.00
0.00
0.00
0.00
0.00
0.00
0.00
0.02
0.01
0.01
0.01
0.01
0.02
0.01
0.01
0.02
0.02
0.01
0.00
0.01
0.03
0.05
0.08
0.05
0.08
0.15
0.15
0.12
0.10
0.03
0.01
0.00
0.02
0.02
0.02
0.02
0.06
0.06
0.02
0.06
0.06
0.06
0.02
0.01
0.02
0.30
0.15
0.74
0.85
0.88
0.75
0.54
0.69
0.10
0.03
0.03
0.00
0.00
0.00
0.00
0.03
0.01
0.03
0.03
0.03
0.08
0.08
0.08
0.12
0.12
0.13
0.15
0.17
0.23
0.28
0.29
0.30
0.33
0.33
0.31
0.31
0.35
0.35
0.35
0.35
0.33
0.33
0.29
0.20
0.13
0.08
0.01
0.00
0.02
0.02
0.06
0.06
0.06
0.02
0.02
0.06
0.02
0.02
0.06
0.02
0.01
0.00
0.00
0.00
0.01
0.00
0.01
0.00
0.00
0.00
0.01
0.01
0.01
0.01
0.02
0.02
0.01
0.01
0.02
0.01
0.02
0.01
0.02
0.02
0.01
0.00
0.03
0.03
0.05
0.08
0.08
0.13
0.15
0.12
0.12
0.05
0.01
0.00
0.01
0.06
0.02
0.02
0.02
0.06
0.06
0.02
0.06
0.06
0.02
0.01
0.01
0.35
0.08
0.66
0.85
0.88
0.74
0.56
0.68
0.06
0.05
0.03
0.00
0.00
0.00
0.01
0.01
0.03
0.03
0.05
0.05
0.05
0.08
0.08
0.12
0.12
0.13
0.15
0.17
0.20
0.25
0.29
0.30
0.29
0.33
0.32
0.32
0.32
0.33
0.35
0.35
0.32
0.33
0.30
0.20
0.13
0.08
0.03
0.00
0.01
0.02
0.02
0.10
0.06
0.02
0.02
0.02
0.02
0.02
0.01
0.02
0.02
0.01
0.00
0.00
0.00
0.01
0.00
0.02
0.01
0.01
0.00
0.00
0.02
0.02
0.01
0.06
0.02
0.02
0.02
0.02
0.02
0.02
0.02
0.01
0.00
0.03
0.05
0.05
0.08
0.10
0.13
0.12
0.10
0.08
0.01
0.00
0.01
0.06
0.02
0.10
0.10
0.06
0.06
0.06
0.06
0.06
0.02
0.06
0.06
0.35
0.05
0.55
0.83
0.86
0.73
0.58
0.75
0.46
0.03
0.03
0.00
0.00
0.00
0.01
0.00
0.00
0.01
0.03
0.03
0.03
0.05
0.05
0.08
0.08
0.12
0.13
0.13
0.17
0.20
0.23
0.28
0.29
0.29
0.33
0.33
0.33
0.31
0.31
0.31
0.31
0.33
0.29
0.25
0.15
0.08
0.01
0.01
0.06
0.06
0.06
0.10
0.10
0.10
0.10
0.18
0.10
0.06
0.10
0.02
0.06
0.02
0.02
0.06
0.06
0.02
0.02
0.01
0.06
0.06
0.02
0.10
0.06
0.06
0.06
0.06
0.10
0.10
0.06
0.18
0.10
0.10
0.10
0.02
0.01
0.00
0.01
0.01
0.05
0.08
0.10
0.08
0.08
0.00
0.02
0.10
0.10
0.18
0.18
0.18
0.18
0.18
0.30
0.30
0.30
0.18
0.10
0.10
0.30
0.40
0.23
0.79
0.86
0.84
0.33
0.78
0.64
0.02
0.00
0.01
0.01
0.01
0.00
0.00
0.00
0.00
0.00
0.00
0.01
0.05
0.05
0.05
0.08
0.10
0.10
0.13
0.15
0.20
0.25
0.28
0.29
0.29
0.33
0.33
0.32
0.32
0.32
0.32
0.32
0.32
0.29
0.28
0.15
0.08
0.03
0.00
0.02
0.02
0.10
0.10
0.10
0.10
0.10
0.06
0.06
0.06
0.06
0.06
0.02
0.01
0.01
0.01
0.02
0.01
0.01
0.01
0.00
0.00
0.01
0.01
0.01
0.01
0.02
0.02
0.02
0.02
0.01
0.01
0.02
0.01
0.06
0.01
0.00
0.03
0.05
0.05
0.05
0.08
0.12
0.13
0.13
0.13
0.08
0.03
0.00
0.00
0.02
0.02
0.02
0.01
0.02
0.02
0.02
0.02
0.06
0.02
0.01
0.00
0.10
0.01
0.32
0.81
0.91
0.83
0.33
0.75
0.56
0.01
0.05
0.01
0.01
0.00
0.01
0.01
0.03
0.05
0.03
0.08
0.08
0.08
0.10
0.12
0.13
0.15
0.15
0.20
0.25
0.25
0.29
0.30
0.33
0.33
0.31
0.33
0.35
0.35
0.34
0.35
0.34
0.35
0.32
0.30
0.25
0.12
0.08
0.03
0.00
0.00
0.01
0.01
0.02
0.06
0.02
0.01
0.01
0.01
0.01
0.00
0.01
0.00
0.00
0.01
0.01
0.01
0.01
0.05
0.05
0.12
0.23
0.32
0.75
0.81
0.84
0.85
0.86
0.97
1.00
0.97
0.86
0.83
0.84
0.64
0.03
0.58
0.61
0.61
0.61
0.61
0.61
0.60
0.60
0.61
0.61
0.62
0.68
0.70
0.72
0.75
0.75
0.78
0.79
0.83
0.84
0.85
0.87
0.87
0.88
0.87
0.87
0.84
0.81
0.75
0.70
0.61
0.54
0.47
0.30
0.06
0.02
0.01
0.02
0.06
0.02
0.06
0.06
0.06
0.02
0.01
0.02
0.01
0.00
0.01
0.00
0.00
0.00
0.01
0.00
0.00
0.00
0.00
0.00
0.01
0.00
0.01
0.00
0.00
0.01
0.00
0.00
0.01
0.00
0.01
0.01
0.01
0.01
0.00
0.01
0.01
0.01
0.01
0.01
0.03
0.01
0.01
0.03
0.03
0.03
0.03
0.03
0.05
0.01
0.03
0.03
0.05
0.05
0.05
0.05
0.05
0.08
0.03
0.05
0.08
0.05
0.08
0.05
0.08
0.05
0.03
0.05
0.08
0.05
0.05
0.08
0.08
0.08
0.05
0.08
0.08
0.10
0.12
0.13
0.17
0.13
0.20
0.28
0.29
0.29
0.28
0.20
0.13
0.08
0.08
0.08
0.05
0.05
0.03
0.03
0.05
0.01
0.03
0.05
0.05
0.00
0.28
0.74
0.86
0.88
0.74
0.56
0.62
0.00
0.12
0.10
0.08
0.08
0.08
0.08
0.08
0.10
0.10
0.12
0.13
0.12
0.13
0.15
0.17
0.20
0.23
0.25
0.25
0.25
0.29
0.29
0.33
0.33
0.33
0.32
0.32
0.32
0.35
0.35
0.35
0.35
0.35
0.32
0.33
0.29
0.29
0.23
0.15
0.13
0.10
0.08
0.08
0.05
0.08
0.08
0.08
0.10
0.10
0.08
0.10
0.08
0.10
0.10
0.13
0.12
0.12
0.10
0.12
0.10
0.10
0.08
0.10
0.08
0.08
0.08
0.08
0.08
0.05
0.08
0.05
0.05
0.05
0.08
0.05
0.08
0.08
0.10
0.12
0.13
0.15
0.20
0.25
0.28
0.23
0.25
0.17
0.13
0.08
0.05
0.03
0.05
0.01
0.03
0.03
0.01
0.03
0.03
0.05
0.05
0.05
0.01
0.01
0.32
0.81
0.87
0.83
0.35
0.72
0.54
0.10
0.15
0.12
0.10
0.10
0.12
0.12
0.12
0.13
0.13
0.17
0.15
0.17
0.20
0.20
0.25
0.25
0.28
0.29
0.29
0.29
0.33
0.33
0.32
0.32
0.35
0.35
0.34
0.34
0.35
0.35
0.34
0.35
0.32
0.29
0.28
0.17
0.10
0.08
0.05
0.03
0.03
0.03
0.03
0.03
0.01
0.03
0.03
0.05
0.05
0.05
0.05
0.08
0.05
0.05
0.08
0.08
0.08
0.08
0.08
0.08
0.03
0.05
0.05
0.05
0.05
0.03
0.03
0.05
0.01
0.03
0.03
0.05
0.08
0.10
0.10
0.13
0.12
0.20
0.23
0.23
0.23
0.23
0.13
0.10
0.03
0.03
0.03
0.01
0.01
0.01
0.01
0.01
0.00
0.00
0.01
0.03
0.05
0.00
0.01
0.35
0.83
0.91
0.83
0.29
0.73
0.46
0.08
0.12
0.08
0.08
0.08
0.08
0.10
0.10
0.10
0.12
0.10
0.12
0.13
0.17
0.17
0.20
0.20
0.25
0.25
0.29
0.29
0.29
0.33
0.33
0.31
0.32
0.35
0.35
0.34
0.35
0.35
0.34
0.35
0.33
0.30
0.23
0.13
0.08
0.03
0.00
0.00
0.00
0.01
0.01
0.01
0.01
0.00
0.01
0.00
0.00
0.00
0.00
0.00
0.00
0.01
0.00
0.00
0.01
0.01
0.00
0.00
0.00
0.00
0.00
0.00
0.00
0.00
0.01
0.00
0.00
0.00
0.00
0.01
0.00
0.01
0.01
0.05
0.08
0.05
0.12
0.13
0.15
0.13
0.12
0.05
0.01
0.01
0.00
0.02
0.02
0.02
0.06
0.06
0.02
0.02
0.02
0.02
0.01
0.01
0.35
0.08
0.62
0.85
0.92
0.78
0.35
0.70
0.18
0.05
0.03
0.01
0.00
0.00
0.01
0.00
0.03
0.03
0.05
0.08
0.08
0.08
0.10
0.08
0.12
0.15
0.20
0.23
0.25
0.28
0.29
0.30
0.33
0.32
0.32
0.35
0.35
0.34
0.37
0.34
0.35
0.32
0.33
0.25
0.13
0.08
0.01
0.01
0.02
0.06
0.06
0.06
0.06
0.06
0.02
0.10
0.06
0.06
0.02
0.02
0.02
0.01
0.01
0.02
0.01
0.00
0.00
0.00
0.01
0.00
0.00
0.02
0.01
0.01
0.01
0.01
0.02
0.02
0.02
0.06
0.02
0.01
0.00
0.01
0.01
0.05
0.08
0.08
0.10
0.12
0.12
0.10
0.01
0.00
0.01
0.06
0.06
0.06
0.06
0.06
0.10
0.10
0.06
0.10
0.06
0.06
0.02
0.18
0.06
0.33
0.81
0.89
0.84
0.33
0.75
0.58
0.00
0.01
0.00
0.01
0.01
0.00
0.00
0.01
0.00
0.00
0.01
0.03
0.05
0.08
0.08
0.10
0.10
0.12
0.15
0.15
0.20
0.25
0.29
0.30
0.33
0.33
0.32
0.32
0.33
0.35
0.35
0.35
0.32
0.33
0.29
0.17
0.08
0.03
0.00
0.02
0.06
0.10
0.10
0.18
0.18
0.10
0.10
0.10
0.10
0.10
0.10
0.10
0.06
0.02
0.02
0.02
0.02
0.01
0.00
0.01
0.01
0.01
0.05
0.13
0.28
0.58
0.79
0.82
0.83
0.86
0.95
0.99
0.98
0.89
0.83
0.84
0.76
0.15
0.56
0.61
0.58
0.61
0.61
0.61
0.68
0.70
0.72
0.75
0.75
0.75
0.76
0.78
0.79
0.82
0.83
0.85
0.86
0.87
0.89
0.89
0.89
0.89
0.89
0.87
0.85
0.82
0.73
0.69
0.61
0.53
0.46
0.30
0.18
0.18
0.10
0.30
0.30
0.18
0.18
0.18
0.18
0.10
0.10
0.18
0.10
0.10
0.02
0.02
0.06
0.02
0.01
0.06
0.06
0.02
0.01
0.00
0.02
0.01
0.01
0.02
0.02
0.02
0.01
0.01
0.01
0.02
0.01
0.01
0.02
0.02
0.00
0.01
0.00
0.01
0.01
0.01
0.02
0.01
0.01
0.00
0.00
0.01
0.01
0.01
0.01
0.01
0.01
0.01
0.00
0.00
0.00
0.00
0.01
0.00
0.00
0.00
0.00
0.00
0.00
0.00
0.00
0.00
0.00
0.00
0.00
0.00
0.03
0.08
0.05
0.08
0.10
0.13
0.17
0.17
0.17
0.15
0.05
0.05
0.01
0.00
0.00
0.01
0.01
0.01
0.02
0.01
0.01
0.01
0.00
0.01
0.10
0.20
0.73
0.84
0.85
0.56
0.70
0.70
0.02
0.08
0.03
0.00
0.01
0.03
0.01
0.03
0.05
0.01
0.03
0.05
0.08
0.08
0.10
0.12
0.12
0.12
0.15
0.17
0.23
0.25
0.28
0.29
0.30
0.29
0.33
0.33
0.32
0.32
0.31
0.31
0.31
0.33
0.29
0.29
0.23
0.13
0.08
0.03
0.01
0.00
0.01
0.01
0.00
0.00
0.00
0.00
0.00
0.00
0.00
0.01
0.01
0.03
0.03
0.01
0.03
0.01
0.03
0.01
0.01
0.01
0.01
0.00
0.00
0.01
0.00
0.01
0.00
0.00
0.01
0.00
0.01
0.00
0.03
0.05
0.08
0.10
0.13
0.13
0.13
0.12
0.08
0.05
0.00
0.00
0.01
0.01
0.01
0.06
0.02
0.01
0.01
0.01
0.01
0.01
0.00
0.06
0.10
0.29
0.80
0.86
0.83
0.33
0.75
0.61
0.01
0.08
0.05
0.05
0.03
0.03
0.05
0.05
0.05
0.08
0.08
0.10
0.10
0.12
0.13
0.15
0.15
0.20
0.25
0.25
0.29
0.29
0.33
0.33
0.33
0.31
0.33
0.35
0.34
0.34
0.35
0.34
0.35
0.32
0.33
0.25
0.15
0.08
0.03
0.00
0.01
0.01
0.01
0.01
0.01
0.01
0.01
0.01
0.02
0.00
0.00
0.00
0.00
0.00
0.00
0.00
0.00
0.00
0.01
0.01
0.01
0.01
0.01
0.00
0.00
0.00
0.00
0.00
0.00
0.00
0.00
0.00
0.00
0.03
0.08
0.08
0.10
0.10
0.15
0.17
0.15
0.17
0.12
0.08
0.03
0.01
0.00
0.01
0.01
0.00
0.00
0.00
0.01
0.01
0.00
0.01
0.00
0.02
0.06
0.33
0.80
0.89
0.83
0.35
0.75
0.58
0.03
0.08
0.05
0.01
0.03
0.01
0.05
0.05
0.08
0.08
0.08
0.08
0.10
0.10
0.13
0.15
0.20
0.20
0.23
0.25
0.29
0.29
0.29
0.33
0.32
0.32
0.35
0.35
0.35
0.35
0.42
0.37
0.34
0.32
0.33
0.28
0.15
0.08
0.01
0.00
0.00
0.00
0.01
0.02
0.01
0.02
0.02
0.01
0.01
0.01
0.01
0.01
0.01
0.00
0.00
0.00
0.00
0.00
0.01
0.00
0.00
0.00
0.00
0.00
0.00
0.00
0.00
0.00
0.00
0.00
0.00
0.00
0.03
0.05
0.05
0.08
0.08
0.10
0.13
0.15
0.15
0.15
0.08
0.01
0.00
0.01
0.01
0.01
0.01
0.01
0.02
0.02
0.01
0.06
0.01
0.00
0.00
0.02
0.02
0.32
0.81
0.89
0.83
0.35
0.72
0.58
0.01
0.08
0.05
0.01
0.01
0.03
0.05
0.05
0.05
0.08
0.08
0.08
0.10
0.12
0.13
0.15
0.17
0.20
0.23
0.25
0.28
0.29
0.29
0.33
0.33
0.32
0.32
0.35
0.34
0.35
0.42
0.42
0.35
0.33
0.33
0.29
0.13
0.08
0.03
0.00
0.00
0.00
0.01
0.01
0.02
0.01
0.01
0.01
0.01
0.01
0.00
0.00
0.01
0.00
0.00
0.00
0.00
0.00
0.00
0.00
0.00
0.00
0.00
0.00
0.00
0.00
0.00
0.00
0.00
0.00
0.00
0.00
0.00
0.03
0.08
0.05
0.08
0.10
0.15
0.17
0.13
0.15
0.10
0.03
0.00
0.00
0.00
0.00
0.01
0.01
0.00
0.02
0.02
0.01
0.01
0.00
0.00
0.00
0.10
0.13
0.72
0.85
0.87
0.73
0.58
0.69
0.01
0.05
0.05
0.05
0.05
0.05
0.05
0.05
0.08
0.05
0.08
0.08
0.10
0.13
0.13
0.15
0.17
0.17
0.20
0.25
0.29
0.30
0.30
0.33
0.33
0.32
0.32
0.35
0.35
0.35
0.37
0.37
0.34
0.33
0.33
0.29
0.20
0.13
0.08
0.03
0.00
0.00
0.00
0.00
0.00
0.00
0.00
0.00
0.00
0.00
0.00
0.00
0.00
0.01
0.01
0.01
0.03
0.01
0.01
0.01
0.03
0.03
0.01
0.01
0.01
0.01
0.01
0.01
0.01
0.01
0.00
0.01
0.03
0.05
0.08
0.08
0.12
0.13
0.17
0.15
0.20
0.15
0.15
0.12
0.05
0.01
0.00
0.00
0.00
0.01
0.00
0.00
0.00
0.00
0.00
0.00
0.01
0.00
0.10
0.15
0.72
0.83
0.86
0.73
0.58
0.75
0.30
0.10
0.10
0.08
0.05
0.05
0.08
0.05
0.08
0.08
0.08
0.12
0.12
0.13
0.13
0.13
0.17
0.20
0.23
0.25
0.29
0.29
0.29
0.33
0.33
0.31
0.33
0.35
0.34
0.34
0.37
0.37
0.35
0.33
0.33
0.29
0.20
0.12
0.08
0.01
0.00
0.00
0.00
0.01
0.01
0.01
0.01
0.01
0.01
0.01
0.01
0.01
0.01
0.00
0.00
0.01
0.00
0.00
0.00
0.01
0.00
0.00
0.00
0.01
0.00
0.00
0.00
0.00
0.00
0.00
0.00
0.02
0.00
0.00
0.03
0.05
0.08
0.08
0.10
0.12
0.13
0.13
0.13
0.10
0.05
0.00
0.00
0.06
0.06
0.06
0.06
0.02
0.06
0.06
0.02
0.10
0.02
0.02
0.02
0.30
0.15
0.72
0.84
0.87
0.73
0.58
0.72
0.30
0.03
0.01
0.00
0.00
0.01
0.00
0.01
0.01
0.01
0.01
0.03
0.03
0.05
0.08
0.10
0.10
0.13
0.13
0.17
0.20
0.25
0.29
0.30
0.33
0.33
0.31
0.33
0.35
0.34
0.35
0.34
0.35
0.33
0.29
0.17
0.08
0.01
0.00
0.02
0.06
0.10
0.18
0.18
0.35
0.18
0.18
0.10
0.10
0.18
0.10
0.10
0.18
0.10
0.10
0.06
0.02
0.06
0.06
0.02
0.10
0.06
0.06
0.02
0.02
0.06
0.06
0.06
0.10
0.10
0.10
0.06
0.06
0.06
0.06
0.02
0.02
0.00
0.00
0.03
0.03
0.08
0.10
0.10
0.08
0.08
0.01
0.00
0.02
0.10
0.10
0.10
0.18
0.18
0.18
0.18
0.18
0.18
0.18
0.10
0.10
0.30
0.18
0.30
0.81
0.88
0.84
0.37
0.73
0.61
0.01
0.01
0.00
0.00
0.00
0.00
0.01
0.00
0.00
0.01
0.03
0.03
0.05
0.08
0.08
0.08
0.12
0.13
0.17
0.20
0.25
0.28
0.29
0.29
0.33
0.32
0.33
0.35
0.34
0.35
0.37
0.34
0.35
0.32
0.30
0.20
0.08
0.03
0.00
0.02
0.02
0.10
0.10
0.10
0.10
0.10
0.10
0.10
0.06
0.06
0.06
0.02
0.06
0.06
0.02
0.06
0.02
0.01
0.01
0.01
0.02
0.01
0.06
0.06
0.02
0.02
0.02
0.02
0.06
0.02
0.06
0.02
0.02
0.02
0.02
0.02
0.01
0.00
0.00
0.01
0.03
0.08
0.12
0.12
0.12
0.12
0.08
0.03
0.00
0.01
0.02
0.06
0.06
0.06
0.18
0.10
0.06
0.10
0.06
0.06
0.06
0.02
0.40
0.01
0.42
0.84
0.89
0.81
0.01
0.76
0.56
0.00
0.00
0.00
0.00
0.00
0.00
0.00
0.00
0.00
0.01
0.03
0.03
0.05
0.05
0.08
0.10
0.08
0.12
0.15
0.17
0.23
0.25
0.29
0.30
0.29
0.33
0.31
0.33
0.35
0.35
0.34
0.35
0.31
0.29
0.25
0.13
0.05
0.00
0.01
0.10
0.06
0.10
0.10
0.10
0.10
0.10
0.10
0.18
0.18
0.10
0.10
0.02
0.02
0.06
0.02
0.02
0.02
0.00
0.01
0.05
0.13
0.25
0.64
0.78
0.82
0.83
0.83
0.88
0.97
0.96
0.85
0.83
0.81
0.70
0.05
0.58
0.61
0.61
0.62
0.62
0.61
0.58
0.60
0.61
0.61
0.62
0.68
0.72
0.73
0.75
0.75
0.77
0.79
0.83
0.83
0.85
0.86
0.86
0.85
0.84
0.82
0.76
0.70
0.64
0.58
0.51
0.40
0.30
0.10
0.18
0.30
0.40
0.35
0.40
0.40
0.35
0.40
0.40
0.35
0.46
0.35
0.35
0.30
0.18
0.30
0.30
0.30
0.35
0.30
0.30
0.18
0.10
0.30
0.30
0.10
0.30
0.30
0.30
0.18
0.10
0.18
0.30
0.18
0.30
0.18
0.18
0.10
0.10
0.10
0.18
0.10
0.18
0.18
0.18
0.06
0.10
0.10
0.18
0.06
0.18
0.10
0.06
0.06
0.06
0.06
0.06
0.02
0.10
0.10
0.06
0.02
0.02
0.02
0.06
0.02
0.06
0.06
0.02
0.02
0.02
0.01
0.01
0.01
0.01
0.02
0.01
0.01
0.01
0.00
0.00
0.03
0.05
0.05
0.08
0.13
0.13
0.15
0.13
0.12
0.08
0.01
0.01
0.00
0.02
0.02
0.02
0.02
0.06
0.06
0.02
0.02
0.02
0.02
0.35
0.20
0.77
0.86
0.83
0.34
0.75
0.61
0.00
0.03
0.00
0.00
0.00
0.00
0.00
0.00
0.01
0.03
0.01
0.03
0.05
0.08
0.10
0.10
0.12
0.13
0.13
0.17
0.23
0.25
0.29
0.30
0.29
0.33
0.33
0.32
0.32
0.35
0.35
0.35
0.35
0.33
0.33
0.30
0.29
0.17
0.10
0.08
0.01
0.00
0.00
0.01
0.01
0.00
0.00
0.00
0.00
0.00
0.00
0.00
0.00
0.01
0.01
0.03
0.03
0.03
0.03
0.01
0.01
0.03
0.01
0.01
0.00
0.00
0.00
0.01
0.00
0.00
0.00
0.00
0.00
0.00
0.00
0.01
0.00
0.01
0.03
0.08
0.08
0.08
0.12
0.13
0.17
0.15
0.15
0.10
0.05
0.00
0.00
0.01
0.01
0.00
0.01
0.01
0.01
0.01
0.01
0.01
0.00
0.00
0.10
0.05
0.56
0.83
0.91
0.77
0.40
0.69
0.02
0.08
0.05
0.03
0.01
0.03
0.05
0.08
0.08
0.08
0.08
0.08
0.08
0.12
0.13
0.15
0.17
0.20
0.23
0.25
0.23
0.29
0.30
0.33
0.33
0.31
0.33
0.35
0.35
0.34
0.35
0.35
0.35
0.32
0.33
0.28
0.13
0.08
0.03
0.00
0.00
0.02
0.02
0.02
0.06
0.02
0.02
0.02
0.02
0.02
0.02
0.01
0.01
0.01
0.00
0.00
0.00
0.00
0.00
0.00
0.00
0.00
0.00
0.00
0.00
0.01
0.01
0.01
0.02
0.01
0.01
0.00
0.01
0.01
0.01
0.01
0.00
0.03
0.05
0.08
0.10
0.13
0.15
0.15
0.12
0.08
0.05
0.00
0.00
0.01
0.06
0.01
0.06
0.02
0.02
0.01
0.01
0.01
0.02
0.01
0.06
0.30
0.15
0.73
0.85
0.87
0.73
0.58
0.70
0.18
0.05
0.05
0.01
0.01
0.01
0.01
0.05
0.01
0.05
0.08
0.08
0.08
0.08
0.08
0.13
0.12
0.15
0.17
0.23
0.25
0.28
0.29
0.29
0.33
0.33
0.31
0.32
0.35
0.35
0.34
0.35
0.35
0.35
0.32
0.33
0.28
0.13
0.08
0.03
0.00
0.01
0.01
0.01
0.02
0.01
0.01
0.01
0.02
0.02
0.01
0.01
0.00
0.00
0.00
0.00
0.00
0.00
0.00
0.00
0.00
0.00
0.00
0.00
0.00
0.00
0.00
0.00
0.00
0.01
0.00
0.01
0.01
0.00
0.01
0.03
0.05
0.05
0.08
0.13
0.13
0.13
0.15
0.12
0.08
0.00
0.00
0.02
0.02
0.01
0.01
0.01
0.02
0.02
0.01
0.06
0.01
0.00
0.01
0.18
0.28
0.79
0.86
0.83
0.35
0.76
0.61
0.01
0.08
0.03
0.03
0.01
0.01
0.03
0.08
0.08
0.08
0.08
0.10
0.08
0.10
0.13
0.15
0.15
0.20
0.20
0.25
0.28
0.29
0.29
0.33
0.33
0.32
0.32
0.35
0.35
0.35
0.35
0.34
0.35
0.31
0.33
0.28
0.15
0.10
0.05
0.01
0.00
0.00
0.00
0.00
0.00
0.00
0.00
0.00
0.00
0.00
0.00
0.00
0.01
0.00
0.00
0.01
0.03
0.03
0.01
0.03
0.01
0.00
0.01
0.01
0.01
0.01
0.00
0.00
0.00
0.00
0.00
0.01
0.00
0.03
0.05
0.08
0.10
0.08
0.12
0.17
0.20
0.20
0.20
0.13
0.12
0.03
0.01
0.00
0.00
0.00
0.00
0.00
0.00
0.00
0.00
0.00
0.00
0.01
0.00
0.02
0.33
0.80
0.88
0.83
0.31
0.75
0.56
0.08
0.12
0.08
0.08
0.08
0.08
0.08
0.10
0.12
0.12
0.12
0.13
0.15
0.17
0.17
0.20
0.25
0.25
0.28
0.29
0.29
0.33
0.33
0.32
0.32
0.35
0.35
0.35
0.37
0.42
0.42
0.37
0.35
0.32
0.33
0.29
0.20
0.12
0.08
0.03
0.01
0.00
0.00
0.01
0.01
0.01
0.01
0.01
0.03
0.01
0.01
0.03
0.05
0.05
0.05
0.05
0.05
0.03
0.05
0.05
0.08
0.08
0.03
0.03
0.05
0.01
0.01
0.01
0.03
0.01
0.03
0.01
0.03
0.01
0.03
0.08
0.08
0.10
0.12
0.13
0.20
0.23
0.15
0.20
0.13
0.10
0.05
0.01
0.00
0.00
0.01
0.00
0.00
0.00
0.00
0.01
0.00
0.00
0.00
0.02
0.02
0.32
0.81
0.91
0.84
0.33
0.75
0.51
0.05
0.08
0.03
0.03
0.03
0.01
0.03
0.05
0.05
0.08
0.08
0.08
0.08
0.08
0.10
0.13
0.15
0.17
0.20
0.23
0.28
0.29
0.30
0.33
0.33
0.32
0.32
0.35
0.35
0.35
0.34
0.35
0.35
0.32
0.29
0.23
0.12
0.08
0.01
0.00
0.01
0.02
0.02
0.06
0.06
0.06
0.10
0.06
0.02
0.06
0.02
0.02
0.01
0.00
0.02
0.00
0.00
0.00
0.00
0.03
0.05
0.17
0.30
0.72
0.80
0.84
0.83
0.86
0.97
1.00
0.96
0.83
0.84
0.82
0.32
0.47
0.64
0.64
0.64
0.64
0.64
0.62
0.61
0.61
0.62
0.64
0.68
0.70
0.73
0.75
0.77
0.79
0.82
0.84
0.86
0.87
0.87
0.89
0.89
0.89
0.87
0.86
0.83
0.76
0.70
0.62
0.58
0.51
0.40
0.30
0.30
0.10
0.10
0.18
0.18
0.18
0.18
0.18
0.18
0.10
0.06
0.10
0.02
0.06
0.02
0.02
0.06
0.02
0.01
0.01
0.01
0.01
0.01
0.01
0.02
0.01
0.01
0.01
0.00
0.01
0.01
0.00
0.01
0.01
0.00
0.00
0.00
0.01
0.00
0.00
0.01
0.00
0.00
0.00
0.00
0.00
0.00
0.00
0.00
0.00
0.00
0.00
0.00
0.00
0.01
0.00
0.00
0.01
0.01
0.00
0.01
0.00
0.01
0.00
0.00
0.01
0.01
0.03
0.01
0.01
0.01
0.01
0.01
0.01
0.01
0.03
0.03
0.01
0.03
0.03
0.08
0.08
0.10
0.13
0.13
0.20
0.25
0.20
0.23
0.20
0.15
0.10
0.03
0.03
0.01
0.00
0.00
0.00
0.00
0.00
0.00
0.00
0.01
0.01
0.06
0.30
0.78
0.87
0.84
0.37
0.70
0.64
0.00
0.08
0.08
0.05
0.03
0.03
0.05
0.03
0.03
0.05
0.08
0.08
0.08
0.10
0.12
0.12
0.13
0.15
0.17
0.20
0.23
0.25
0.29
0.29
0.29
0.33
0.33
0.33
0.32
0.33
0.31
0.32
0.31
0.32
0.33
0.29
0.25
0.17
0.12
0.08
0.05
0.03
0.01
0.01
0.00
0.01
0.01
0.00
0.01
0.03
0.05
0.05
0.05
0.03
0.05
0.01
0.03
0.03
0.05
0.03
0.01
0.01
0.01
0.00
0.00
0.00
0.00
0.00
0.00
0.01
0.00
0.01
0.00
0.01
0.00
0.00
0.01
0.03
0.05
0.03
0.08
0.12
0.15
0.15
0.13
0.13
0.10
0.05
0.00
0.01
0.02
0.02
0.02
0.02
0.02
0.06
0.02
0.02
0.02
0.02
0.01
0.02
0.30
0.13
0.73
0.85
0.86
0.58
0.65
0.72
0.18
0.05
0.01
0.01
0.00
0.00
0.01
0.01
0.03
0.03
0.03
0.05
0.08
0.08
0.08
0.10
0.12
0.13
0.13
0.17
0.20
0.25
0.29
0.29
0.30
0.33
0.33
0.33
0.32
0.31
0.32
0.31
0.33
0.33
0.28
0.17
0.12
0.05
0.01
0.01
0.06
0.06
0.18
0.10
0.10
0.10
0.06
0.10
0.10
0.10
0.10
0.06
0.06
0.02
0.02
0.02
0.06
0.02
0.06
0.02
0.06
0.06
0.02
0.10
0.06
0.06
0.10
0.10
0.10
0.10
0.06
0.10
0.10
0.10
0.18
0.10
0.06
0.02
0.00
0.00
0.00
0.01
0.03
0.08
0.10
0.08
0.12
0.05
0.01
0.02
0.10
0.10
0.10
0.18
0.10
0.18
0.18
0.18
0.30
0.18
0.10
0.10
0.10
0.40
0.17
0.77
0.86
0.83
0.35
0.76
0.61
0.00
0.01
0.01
0.02
0.01
0.00
0.00
0.00
0.00
0.01
0.00
0.01
0.03
0.08
0.08
0.10
0.10
0.13
0.13
0.15
0.23
0.28
0.29
0.30
0.33
0.33
0.33
0.31
0.32
0.35
0.35
0.33
0.33
0.29
0.23
0.13
0.08
0.01
0.00
0.02
0.06
0.06
0.18
0.10
0.10
0.10
0.06
0.06
0.06
0.02
0.06
0.06
0.02
0.01
0.01
0.01
0.01
0.01
0.02
0.01
0.01
0.00
0.00
0.02
0.02
0.02
0.06
0.02
0.02
0.02
0.02
0.02
0.02
0.02
0.06
0.02
0.02
0.01
0.00
0.00
0.03
0.05
0.03
0.05
0.10
0.13
0.17
0.13
0.13
0.08
0.03
0.00
0.00
0.01
0.01
0.02
0.02
0.01
0.06
0.02
0.02
0.01
0.00
0.01
0.00
0.18
0.08
0.62
0.83
0.92
0.78
0.35
0.70
0.10
0.05
0.05
0.03
0.03
0.03
0.03
0.05
0.05
0.08
0.08
0.08
0.10
0.12
0.13
0.13
0.17
0.20
0.20
0.23
0.29
0.29
0.30
0.33
0.33
0.33
0.31
0.35
0.35
0.34
0.34
0.34
0.35
0.32
0.33
0.29
0.20
0.12
0.08
0.01
0.01
0.00
0.01
0.00
0.00
0.01
0.00
0.01
0.00
0.00
0.00
0.00
0.00
0.01
0.01
0.01
0.01
0.00
0.00
0.01
0.01
0.01
0.01
0.01
0.01
0.01
0.00
0.00
0.00
0.00
0.00
0.00
0.00
0.00
0.00
0.00
0.00
0.00
0.00
0.00
0.00
0.00
0.00
0.00
0.01
0.03
0.08
0.08
0.08
0.10
0.10
0.15
0.23
0.23
0.20
0.15
0.08
0.05
0.01
0.01
0.00
0.01
0.00
0.00
0.00
0.00
0.00
0.00
0.01
0.01
0.01
0.01
0.00
0.33
0.81
0.91
0.83
0.33
0.70
0.46
0.08
0.08
0.08
0.05
0.08
0.08
0.08
0.08
0.08
0.08
0.10
0.12
0.13
0.15
0.17
0.17
0.20
0.20
0.25
0.29
0.29
0.29
0.33
0.33
0.32
0.31
0.33
0.35
0.34
0.34
0.35
0.34
0.35
0.32
0.33
0.29
0.23
0.13
0.08
0.05
0.01
0.01
0.00
0.00
0.00
0.00
0.00
0.00
0.01
0.01
0.01
0.03
0.03
0.01
0.05
0.03
0.05
0.03
0.03
0.05
0.05
0.05
0.03
0.01
0.03
0.01
0.01
0.01
0.01
0.03
0.01
0.01
0.01
0.00
0.01
0.01
0.01
0.03
0.08
0.08
0.12
0.10
0.13
0.20
0.23
0.23
0.23
0.17
0.12
0.05
0.03
0.01
0.01
0.00
0.01
0.00
0.00
0.00
0.00
0.00
0.01
0.01
0.01
0.00
0.00
0.29
0.81
0.86
0.85
0.55
0.70
0.61
0.03
0.10
0.08
0.08
0.08
0.08
0.08
0.10
0.10
0.10
0.12
0.13
0.15
0.15
0.17
0.20
0.23
0.23
0.25
0.29
0.30
0.29
0.33
0.33
0.31
0.32
0.33
0.35
0.34
0.35
0.35
0.34
0.35
0.31
0.33
0.29
0.20
0.13
0.08
0.05
0.03
0.01
0.01
0.00
0.01
0.03
0.03
0.03
0.03
0.01
0.03
0.05
0.08
0.05
0.05
0.08
0.08
0.08
0.05
0.08
0.08
0.08
0.08
0.05
0.05
0.03
0.03
0.03
0.05
0.05
0.05
0.03
0.05
0.01
0.03
0.05
0.05
0.05
0.05
0.05
0.10
0.08
0.12
0.13
0.15
0.20
0.25
0.25
0.25
0.25
0.15
0.15
0.08
0.08
0.05
0.03
0.05
0.01
0.03
0.03
0.05
0.05
0.03
0.03
0.08
0.08
0.00
0.08
0.45
0.83
0.94
0.83
0.23
0.72
0.30
0.13
0.15
0.12
0.12
0.12
0.12
0.13
0.12
0.13
0.13
0.17
0.20
0.20
0.23
0.25
0.23
0.28
0.29
0.29
0.29
0.29
0.33
0.33
0.32
0.32
0.35
0.35
0.37
0.37
0.42
0.45
0.37
0.34
0.35
0.33
0.30
0.25
0.17
0.12
0.08
0.08
0.08
0.05
0.05
0.05
0.05
0.05
0.03
0.05
0.08
0.08
0.08
0.08
0.08
0.08
0.08
0.08
0.10
0.08
0.08
0.08
0.08
0.08
0.05
0.05
0.08
0.05
0.05
0.05
0.05
0.03
0.03
0.05
0.05
0.05
0.03
0.05
0.05
0.01
0.05
0.05
0.05
0.05
0.08
0.10
0.13
0.13
0.15
0.17
0.25
0.28
0.25
0.25
0.23
0.13
0.08
0.08
0.05
0.03
0.01
0.03
0.01
0.01
0.00
0.01
0.01
0.01
0.05
0.03
0.01
0.00
0.29
0.81
0.91
0.85
0.56
0.70
0.56
0.05
0.10
0.08
0.08
0.08
0.08
0.08
0.08
0.10
0.08
0.10
0.13
0.13
0.15
0.17
0.20
0.20
0.23
0.28
0.29
0.29
0.29
0.33
0.33
0.32
0.32
0.35
0.34
0.37
0.35
0.35
0.35
0.35
0.32
0.29
0.28
0.15
0.10
0.05
0.01
0.00
0.00
0.00
0.00
0.00
0.01
0.00
0.00
0.00
0.01
0.00
0.00
0.00
0.00
0.00
0.00
0.00
0.00
0.01
0.01
0.01
0.00
0.00
0.00
0.00
0.00
0.00
0.00
0.01
0.00
0.01
0.00
0.00
0.02
0.01
0.00
0.00
0.01
0.00
0.00
0.00
0.01
0.00
0.00
0.03
0.08
0.08
0.08
0.08
0.13
0.15
0.17
0.17
0.17
0.08
0.03
0.00
0.00
0.01
0.01
0.01
0.01
0.01
0.02
0.01
0.02
0.01
0.00
0.00
0.10
0.01
0.37
0.84
0.92
0.78
0.35
0.69
0.06
0.05
0.05
0.00
0.00
0.01
0.03
0.03
0.05
0.05
0.08
0.08
0.08
0.10
0.12
0.12
0.13
0.15
0.17
0.23
0.23
0.28
0.29
0.29
0.33
0.33
0.31
0.32
0.35
0.35
0.35
0.35
0.35
0.32
0.33
0.29
0.15
0.08
0.05
0.00
0.01
0.02
0.01
0.06
0.06
0.02
0.01
0.01
0.01
0.01
0.01
0.01
0.00
0.00
0.00
0.00
0.00
0.00
0.00
0.01
0.00
0.00
0.00
0.00
0.00
0.01
0.00
0.02
0.01
0.01
0.00
0.00
0.01
0.02
0.01
0.02
0.01
0.01
0.01
0.00
0.01
0.01
0.00
0.02
0.00
0.03
0.05
0.08
0.08
0.08
0.13
0.13
0.15
0.15
0.15
0.10
0.01
0.00
0.00
0.02
0.01
0.01
0.01
0.01
0.01
0.01
0.02
0.02
0.01
0.00
0.01
0.18
0.15
0.73
0.87
0.86
0.71
0.61
0.65
0.06
0.08
0.05
0.03
0.01
0.01
0.03
0.03
0.05
0.05
0.08
0.08
0.08
0.08
0.12
0.12
0.13
0.15
0.15
0.20
0.25
0.25
0.29
0.30
0.29
0.33
0.33
0.31
0.33
0.33
0.35
0.35
0.35
0.33
0.33
0.30
0.23
0.12
0.08
0.03
0.00
0.00
0.01
0.01
0.01
0.02
0.02
0.02
0.01
0.00
0.01
0.00
0.00
0.01
0.00
0.01
0.00
0.01
0.00
0.00
0.00
0.00
0.00
0.00
0.00
0.00
0.00
0.00
0.00
0.01
0.00
0.00
0.01
0.00
0.00
0.01
0.00
0.01
0.00
0.00
0.00
0.00
0.00
0.01
0.05
0.05
0.08
0.08
0.13
0.17
0.15
0.15
0.15
0.08
0.05
0.00
0.00
0.00
0.01
0.01
0.01
0.02
0.01
0.02
0.02
0.01
0.01
0.01
0.01
0.30
0.17
0.75
0.85
0.86
0.58
0.69
0.69
0.02
0.05
0.01
0.00
0.00
0.00
0.01
0.01
0.01
0.03
0.05
0.05
0.08
0.08
0.08
0.10
0.10
0.13
0.15
0.17
0.23
0.25
0.29
0.29
0.29
0.33
0.33
0.31
0.32
0.33
0.33
0.31
0.33
0.29
0.25
0.17
0.08
0.01
0.00
0.02
0.02
0.02
0.02
0.06
0.06
0.06
0.02
0.06
0.02
0.02
0.01
0.00
0.02
0.00
0.00
0.01
0.00
0.00
0.00
0.03
0.05
0.10
0.20
0.31
0.75
0.80
0.84
0.83
0.86
0.96
0.97
0.91
0.83
0.83
0.82
0.62
0.02
0.61
0.65
0.65
0.69
0.68
0.65
0.65
0.64
0.64
0.64
0.61
0.61
0.61
0.62
0.64
0.68
0.72
0.76
0.81
0.84
0.85
0.86
0.86
0.86
0.86
0.85
0.83
0.79
0.75
0.68
0.61
0.54
0.47
0.35
0.10
0.18
0.10
0.06
0.10
0.06
0.10
0.10
0.06
0.10
0.06
0.06
0.02
0.01
0.01
0.02
0.01
0.01
0.01
0.00
0.00
0.00
0.00
0.00
0.00
0.00
0.00
0.00
0.00
0.00
0.00
0.00
0.00
0.00
0.01
0.01
0.01
0.01
0.01
0.03
0.01
0.01
0.03
0.03
0.03
0.05
0.03
0.03
0.03
0.03
0.03
0.05
0.05
0.05
0.03
0.05
0.05
0.03
0.05
0.08
0.05
0.08
0.05
0.08
0.05
0.05
0.08
0.08
0.08
0.08
0.08
0.08
0.08
0.08
0.08
0.08
0.08
0.08
0.08
0.08
0.08
0.08
0.08
0.10
0.10
0.10
0.10
0.10
0.12
0.15
0.17
0.23
0.23
0.28
0.29
0.30
0.29
0.29
0.25
0.20
0.13
0.10
0.08
0.08
0.08
0.08
0.08
0.08
0.08
0.08
0.08
0.08
0.00
0.08
0.34
0.83
0.92
0.83
0.33
0.70
0.30
0.10
0.13
0.12
0.08
0.10
0.10
0.12
0.10
0.10
0.13
0.13
0.15
0.15
0.17
0.20
0.17
0.23
0.25
0.28
0.29
0.30
0.29
0.33
0.33
0.33
0.31
0.33
0.35
0.35
0.35
0.34
0.35
0.35
0.35
0.32
0.33
0.30
0.28
0.20
0.13
0.12
0.08
0.08
0.08
0.08
0.08
0.08
0.08
0.08
0.08
0.08
0.10
0.10
0.10
0.10
0.12
0.08
0.10
0.10
0.10
0.10
0.08
0.08
0.08
0.05
0.08
0.08
0.08
0.08
0.05
0.05
0.05
0.03
0.05
0.05
0.05
0.05
0.03
0.05
0.05
0.05
0.10
0.12
0.13
0.15
0.15
0.25
0.28
0.23
0.25
0.17
0.13
0.08
0.05
0.05
0.01
0.01
0.03
0.03
0.01
0.01
0.01
0.03
0.01
0.03
0.00
0.00
0.33
0.81
0.91
0.84
0.32
0.70
0.51
0.08
0.13
0.08
0.08
0.08
0.08
0.08
0.10
0.10
0.12
0.12
0.13
0.17
0.13
0.20
0.23
0.25
0.28
0.29
0.29
0.29
0.29
0.33
0.33
0.31
0.35
0.35
0.35
0.34
0.35
0.34
0.34
0.35
0.32
0.33
0.29
0.20
0.13
0.08
0.05
0.03
0.01
0.00
0.00
0.00
0.00
0.00
0.01
0.01
0.01
0.01
0.01
0.01
0.01
0.01
0.03
0.05
0.03
0.05
0.03
0.05
0.03
0.01
0.01
0.03
0.01
0.03
0.01
0.01
0.01
0.00
0.01
0.01
0.01
0.03
0.03
0.03
0.05
0.08
0.08
0.12
0.12
0.13
0.20
0.23
0.20
0.20
0.15
0.12
0.05
0.03
0.01
0.00
0.00
0.00
0.00
0.00
0.01
0.00
0.01
0.01
0.01
0.00
0.00
0.32
0.83
0.91
0.81
0.12
0.72
0.47
0.08
0.12
0.08
0.08
0.08
0.08
0.08
0.08
0.10
0.10
0.10
0.13
0.13
0.15
0.17
0.17
0.20
0.25
0.25
0.29
0.29
0.29
0.33
0.33
0.33
0.32
0.33
0.35
0.35
0.34
0.35
0.34
0.35
0.32
0.33
0.30
0.25
0.15
0.10
0.05
0.05
0.03
0.01
0.01
0.01
0.01
0.01
0.01
0.03
0.03
0.08
0.03
0.05
0.08
0.05
0.08
0.08
0.08
0.08
0.08
0.05
0.08
0.05
0.05
0.05
0.05
0.05
0.05
0.03
0.05
0.01
0.03
0.05
0.05
0.08
0.08
0.12
0.13
0.12
0.13
0.25
0.25
0.28
0.25
0.20
0.15
0.08
0.05
0.05
0.03
0.05
0.03
0.01
0.01
0.00
0.03
0.03
0.03
0.05
0.03
0.02
0.28
0.73
0.85
0.86
0.69
0.58
0.70
0.06
0.13
0.12
0.08
0.08
0.10
0.10
0.10
0.12
0.13
0.13
0.13
0.15
0.17
0.20
0.23
0.25
0.25
0.25
0.29
0.29
0.29
0.33
0.33
0.32
0.32
0.33
0.35
0.35
0.34
0.34
0.35
0.35
0.33
0.32
0.29
0.28
0.20
0.12
0.08
0.05
0.03
0.01
0.01
0.01
0.01
0.03
0.03
0.03
0.03
0.03
0.03
0.05
0.05
0.05
0.05
0.08
0.08
0.05
0.05
0.05
0.05
0.05
0.05
0.05
0.03
0.03
0.03
0.03
0.03
0.03
0.03
0.03
0.05
0.08
0.08
0.10
0.12
0.13
0.17
0.20
0.20
0.17
0.15
0.12
0.05
0.03
0.01
0.00
0.00
0.00
0.00
0.00
0.00
0.00
0.00
0.00
0.01
0.02
0.10
0.25
0.78
0.87
0.86
0.66
0.64
0.70
0.02
0.08
0.08
0.05
0.03
0.05
0.08
0.05
0.08
0.08
0.10
0.10
0.12
0.10
0.13
0.13
0.15
0.20
0.23
0.25
0.29
0.29
0.30
0.33
0.33
0.32
0.31
0.33
0.35
0.35
0.35
0.35
0.35
0.32
0.33
0.29
0.20
0.12
0.08
0.01
0.01
0.01
0.01
0.02
0.01
0.02
0.02
0.01
0.02
0.02
0.00
0.01
0.00
0.00
0.00
0.00
0.00
0.00
0.01
0.01
0.00
0.00
0.00
0.00
0.00
0.00
0.00
0.00
0.00
0.01
0.00
0.02
0.01
0.00
0.03
0.05
0.05
0.05
0.10
0.12
0.15
0.13
0.13
0.08
0.05
0.00
0.00
0.02
0.02
0.02
0.02
0.02
0.02
0.02
0.02
0.02
0.02
0.01
0.01
0.30
0.13
0.71
0.85
0.88
0.75
0.54
0.70
0.18
0.05
0.03
0.01
0.00
0.00
0.01
0.01
0.01
0.03
0.05
0.08
0.08
0.08
0.08
0.12
0.12
0.15
0.17
0.20
0.23
0.25
0.29
0.29
0.33
0.33
0.31
0.33
0.35
0.35
0.34
0.34
0.35
0.32
0.33
0.29
0.17
0.08
0.03
0.00
0.01
0.01
0.06
0.02
0.06
0.06
0.02
0.02
0.02
0.02
0.02
0.01
0.02
0.02
0.00
0.00
0.00
0.00
0.00
0.00
0.01
0.00
0.00
0.00
0.00
0.00
0.01
0.01
0.02
0.02
0.02
0.01
0.00
0.00
0.01
0.05
0.01
0.05
0.12
0.13
0.13
0.13
0.12
0.08
0.00
0.01
0.00
0.02
0.02
0.02
0.06
0.02
0.10
0.06
0.06
0.02
0.02
0.02
0.10
0.06
0.29
0.81
0.88
0.84
0.29
0.75
0.54
0.01
0.01
0.00
0.00
0.01
0.01
0.01
0.03
0.03
0.03
0.05
0.08
0.08
0.10
0.10
0.10
0.13
0.15
0.17
0.20
0.25
0.29
0.29
0.30
0.33
0.33
0.32
0.32
0.35
0.35
0.35
0.35
0.32
0.33
0.29
0.20
0.12
0.08
0.01
0.01
0.02
0.06
0.06
0.06
0.02
0.01
0.02
0.06
0.02
0.06
0.02
0.02
0.01
0.01
0.01
0.02
0.00
0.06
0.00
0.00
0.00
0.00
0.00
0.02
0.01
0.06
0.02
0.01
0.02
0.01
0.01
0.01
0.00
0.00
0.01
0.03
0.05
0.10
0.12
0.12
0.12
0.08
0.03
0.01
0.02
0.02
0.06
0.10
0.10
0.18
0.10
0.10
0.10
0.10
0.10
0.06
0.06
0.18
0.40
0.17
0.76
0.85
0.83
0.34
0.73
0.70
0.10
0.01
0.00
0.00
0.00
0.00
0.00
0.00
0.00
0.01
0.01
0.03
0.05
0.05
0.08
0.08
0.08
0.12
0.12
0.13
0.17
0.20
0.25
0.29
0.29
0.33
0.33
0.33
0.32
0.31
0.32
0.32
0.33
0.33
0.28
0.15
0.08
0.00
0.01
0.06
0.18
0.06
0.10
0.18
0.18
0.10
0.18
0.10
0.18
0.10
0.10
0.06
0.02
0.06
0.06
0.06
0.06
0.06
0.06
0.02
0.02
0.06
0.06
0.06
0.10
0.10
0.10
0.10
0.10
0.10
0.10
0.10
0.02
0.01
0.00
0.01
0.03
0.08
0.08
0.05
0.08
0.01
0.00
0.06
0.10
0.18
0.18
0.35
0.30
0.35
0.18
0.18
0.30
0.30
0.18
0.18
0.18
0.46
0.08
0.67
0.83
0.86
0.66
0.64
0.75
0.40
0.01
0.00
0.01
0.01
0.01
0.01
0.00
0.00
0.00
0.01
0.01
0.03
0.03
0.08
0.08
0.08
0.12
0.12
0.15
0.17
0.23
0.28
0.29
0.29
0.33
0.33
0.31
0.32
0.35
0.35
0.33
0.31
0.33
0.29
0.17
0.08
0.03
0.01
0.06
0.06
0.10
0.10
0.10
0.18
0.06
0.18
0.10
0.10
0.02
0.02
0.06
0.06
0.02
0.06
0.02
0.02
0.01
0.00
0.01
0.01
0.01
0.02
0.02
0.02
0.02
0.02
0.02
0.02
0.02
0.06
0.02
0.01
0.00
0.00
0.03
0.03
0.05
0.10
0.10
0.10
0.12
0.10
0.03
0.00
0.02
0.06
0.10
0.06
0.06
0.06
0.06
0.10
0.06
0.10
0.10
0.02
0.02
0.35
0.01
0.37
0.83
0.94
0.79
0.06
0.75
0.40
0.03
0.01
0.00
0.00
0.00
0.00
0.01
0.01
0.01
0.03
0.05
0.05
0.08
0.08
0.12
0.12
0.13
0.15
0.20
0.23
0.28
0.29
0.29
0.33
0.32
0.31
0.35
0.35
0.34
0.35
0.35
0.35
0.32
0.29
0.25
0.13
0.08
0.01
0.00
0.01
0.02
0.06
0.06
0.06
0.06
0.02
0.02
0.02
0.02
0.02
0.02
0.06
0.02
0.00
0.00
0.00
0.00
0.00
0.00
0.00
0.01
0.00
0.00
0.00
0.00
0.01
0.01
0.02
0.01
0.01
0.01
0.00
0.00
0.01
0.05
0.05
0.05
0.12
0.13
0.13
0.13
0.12
0.08
0.00
0.01
0.01
0.02
0.02
0.02
0.06
0.02
0.06
0.06
0.02
0.02
0.01
0.01
0.10
0.06
0.33
0.81
0.91
0.83
0.35
0.75
0.58
0.01
0.03
0.01
0.00
0.01
0.01
0.01
0.03
0.05
0.03
0.05
0.08
0.08
0.12
0.12
0.13
0.17
0.15
0.20
0.25
0.29
0.30
0.29
0.33
0.32
0.32
0.33
0.35
0.34
0.35
0.37
0.34
0.35
0.33
0.29
0.20
0.10
0.05
0.01
0.00
0.01
0.02
0.02
0.01
0.01
0.01
0.01
0.01
0.01
0.02
0.00
0.00
0.00
0.00
0.00
0.00
0.01
0.00
0.00
0.00
0.00
0.00
0.00
0.00
0.00
0.00
0.01
0.00
0.00
0.00
0.00
0.00
0.00
0.01
0.03
0.05
0.08
0.08
0.13
0.15
0.15
0.15
0.13
0.08
0.05
0.00
0.01
0.00
0.01
0.00
0.02
0.01
0.01
0.00
0.00
0.00
0.00
0.00
0.02
0.10
0.23
0.74
0.86
0.86
0.66
0.64
0.64
0.00
0.08
0.05
0.05
0.03
0.05
0.05
0.05
0.08
0.08
0.08
0.12
0.12
0.13
0.13
0.15
0.15
0.20
0.25
0.25
0.29
0.29
0.29
0.33
0.33
0.32
0.35
0.35
0.34
0.35
0.34
0.35
0.33
0.33
0.29
0.17
0.12
0.08
0.01
0.00
0.00
0.00
0.00
0.00
0.00
0.00
0.00
0.00
0.01
0.01
0.01
0.01
0.01
0.03
0.01
0.03
0.03
0.03
0.05
0.01
0.03
0.03
0.01
0.03
0.01
0.01
0.01
0.01
0.00
0.01
0.00
0.01
0.05
0.08
0.08
0.12
0.12
0.15
0.20
0.20
0.20
0.23
0.17
0.12
0.05
0.03
0.01
0.00
0.00
0.01
0.01
0.00
0.00
0.01
0.01
0.00
0.01
0.03
0.02
0.17
0.73
0.85
0.86
0.73
0.58
0.70
0.01
0.13
0.12
0.10
0.08
0.08
0.08
0.12
0.10
0.12
0.13
0.15
0.13
0.15
0.20
0.23
0.25
0.25
0.29
0.29
0.30
0.29
0.33
0.31
0.33
0.35
0.35
0.35
0.35
0.42
0.45
0.42
0.34
0.32
0.33
0.29
0.17
0.12
0.08
0.08
0.05
0.03
0.01
0.03
0.01
0.01
0.03
0.03
0.05
0.03
0.05
0.08
0.05
0.05
0.08
0.08
0.08
0.08
0.08
0.08
0.05
0.05
0.05
0.08
0.08
0.08
0.05
0.08
0.03
0.03
0.05
0.05
0.05
0.08
0.10
0.12
0.13
0.13
0.15
0.23
0.25
0.25
0.25
0.23
0.13
0.08
0.05
0.03
0.03
0.03
0.01
0.01
0.01
0.00
0.01
0.01
0.01
0.05
0.05
0.00
0.01
0.32
0.81
0.91
0.83
0.31
0.73
0.46
0.10
0.10
0.08
0.08
0.08
0.10
0.10
0.10
0.10
0.10
0.12
0.13
0.15
0.17
0.17
0.23
0.25
0.25
0.29
0.30
0.29
0.33
0.33
0.31
0.33
0.35
0.34
0.37
0.45
0.50
0.45
0.35
0.33
0.33
0.29
0.20
0.12
0.08
0.01
0.01
0.00
0.00
0.00
0.00
0.00
0.00
0.00
0.00
0.01
0.00
0.00
0.00
0.00
0.00
0.00
0.01
0.00
0.00
0.01
0.01
0.00
0.00
0.00
0.00
0.00
0.00
0.00
0.00
0.00
0.00
0.01
0.00
0.01
0.01
0.00
0.03
0.03
0.08
0.08
0.10
0.13
0.13
0.13
0.13
0.10
0.08
0.00
0.01
0.01
0.02
0.02
0.02
0.02
0.02
0.06
0.02
0.02
0.06
0.01
0.01
0.30
0.08
0.64
0.83
0.92
0.78
0.35
0.72
0.18
0.05
0.01
0.00
0.00
0.00
0.00
0.01
0.01
0.03
0.03
0.05
0.05
0.08
0.08
0.12
0.13
0.15
0.17
0.23
0.23
0.28
0.29
0.33
0.33
0.32
0.33
0.35
0.35
0.34
0.34
0.34
0.35
0.33
0.29
0.17
0.08
0.03
0.00
0.00
0.01
0.02
0.06
0.06
0.10
0.06
0.06
0.02
0.02
0.06
0.02
0.02
0.02
0.02
0.01
0.01
0.01
0.00
0.01
0.00
0.00
0.01
0.01
0.01
0.01
0.00
0.01
0.01
0.01
0.02
0.02
0.01
0.01
0.00
0.02
0.01
0.00
0.00
0.03
0.03
0.08
0.08
0.10
0.13
0.15
0.12
0.13
0.08
0.03
0.00
0.01
0.02
0.02
0.06
0.02
0.06
0.06
0.02
0.06
0.02
0.02
0.02
0.18
0.02
0.31
0.83
0.92
0.83
0.20
0.75
0.47
0.01
0.01
0.00
0.00
0.00
0.01
0.00
0.00
0.03
0.03
0.03
0.05
0.08
0.05
0.10
0.12
0.13
0.15
0.17
0.20
0.25
0.28
0.30
0.33
0.33
0.32
0.32
0.33
0.35
0.35
0.35
0.33
0.33
0.29
0.23
0.12
0.08
0.00
0.01
0.02
0.02
0.06
0.06
0.10
0.06
0.10
0.06
0.06
0.06
0.06
0.06
0.06
0.06
0.06
0.02
0.02
0.02
0.02
0.02
0.02
0.02
0.02
0.02
0.02
0.01
0.02
0.00
0.03
0.12
0.20
0.35
0.74
0.83
0.84
0.86
0.91
0.97
1.00
0.99
0.94
0.86
0.83
0.75
0.02
0.61
0.61
0.64
0.69
0.72
0.75
0.75
0.76
0.77
0.78
0.82
0.82
0.83
0.84
0.84
0.86
0.87
0.89
0.89
0.91
0.91
0.91
0.91
0.91
0.91
0.90
0.89
0.85
0.81
0.72
0.65
0.60
0.53
0.40
0.35
0.18
0.18
0.10
0.10
0.10
0.06
0.10
0.06
0.06
0.06
0.02
0.02
0.02
0.01
0.02
0.02
0.01
0.01
0.01
0.00
0.00
0.01
0.01
0.02
0.00
0.01
0.01
0.01
0.02
0.01
0.02
0.02
0.01
0.01
0.01
0.01
0.02
0.01
0.02
0.02
0.01
0.01
0.01
0.01
0.01
0.00
0.02
0.02
0.01
0.00
0.01
0.00
0.01
0.02
0.01
0.01
0.01
0.01
0.01
0.01
0.01
0.00
0.01
0.01
0.01
0.00
0.00
0.00
0.00
0.01
0.00
0.03
0.08
0.08
0.08
0.15
0.17
0.17
0.15
0.13
0.08
0.01
0.00
0.01
0.02
0.01
0.06
0.02
0.02
0.01
0.02
0.06
0.02
0.00
0.18
0.02
0.32
0.81
0.86
0.80
0.08
0.76
0.56
0.00
0.03
0.00
0.00
0.00
0.00
0.00
0.01
0.00
0.01
0.03
0.03
0.05
0.05
0.08
0.08
0.08
0.10
0.12
0.15
0.20
0.20
0.23
0.29
0.29
0.30
0.33
0.33
0.33
0.33
0.32
0.33
0.33
0.33
0.29
0.25
0.15
0.10
0.05
0.01
0.02
0.01
0.01
0.01
0.01
0.01
0.00
0.00
0.00
0.00
0.00
0.00
0.01
0.00
0.01
0.00
0.01
0.01
0.01
0.01
0.00
0.00
0.00
0.00
0.01
0.00
0.00
0.00
0.01
0.01
0.01
0.02
0.01
0.01
0.00
0.00
0.01
0.03
0.08
0.05
0.08
0.13
0.15
0.15
0.13
0.10
0.08
0.00
0.01
0.01
0.02
0.01
0.02
0.02
0.02
0.06
0.02
0.02
0.01
0.00
0.01
0.18
0.23
0.74
0.87
0.87
0.73
0.58
0.70
0.06
0.08
0.01
0.00
0.01
0.03
0.03
0.03
0.05
0.05
0.05
0.08
0.10
0.12
0.13
0.13
0.15
0.20
0.20
0.23
0.28
0.29
0.30
0.33
0.33
0.31
0.32
0.33
0.35
0.35
0.34
0.34
0.35
0.31
0.29
0.25
0.13
0.08
0.03
0.00
0.00
0.01
0.02
0.06
0.02
0.02
0.02
0.01
0.01
0.01
0.01
0.02
0.00
0.00
0.00
0.00
0.00
0.00
0.00
0.00
0.00
0.00
0.00
0.00
0.00
0.00
0.00
0.02
0.01
0.00
0.00
0.00
0.00
0.00
0.00
0.01
0.01
0.05
0.05
0.08
0.08
0.12
0.17
0.13
0.13
0.15
0.10
0.08
0.00
0.00
0.01
0.02
0.02
0.02
0.02
0.01
0.02
0.02
0.01
0.02
0.00
0.18
0.03
0.37
0.83
0.91
0.76
0.46
0.70
0.10
0.05
0.05
0.01
0.03
0.01
0.01
0.03
0.05
0.05
0.08
0.08
0.08
0.10
0.10
0.13
0.15
0.15
0.20
0.23
0.28
0.29
0.29
0.33
0.33
0.33
0.31
0.33
0.35
0.35
0.35
0.35
0.35
0.31
0.30
0.23
0.13
0.08
0.01
0.00
0.01
0.01
0.02
0.06
0.02
0.06
0.06
0.02
0.01
0.01
0.01
0.01
0.00
0.02
0.00
0.00
0.00
0.00
0.00
0.00
0.00
0.01
0.00
0.00
0.00
0.00
0.01
0.00
0.01
0.02
0.01
0.01
0.00
0.00
0.00
0.01
0.05
0.05
0.05
0.08
0.08
0.13
0.15
0.13
0.15
0.10
0.03
0.00
0.00
0.01
0.01
0.01
0.02
0.02
0.06
0.02
0.02
0.01
0.01
0.01
0.06
0.06
0.29
0.80
0.91
0.84
0.33
0.75
0.51
0.00
0.03
0.03
0.01
0.03
0.01
0.03
0.05
0.01
0.03
0.08
0.08
0.10
0.10
0.12
0.13
0.13
0.17
0.20
0.25
0.28
0.29
0.29
0.33
0.33
0.32
0.32
0.35
0.35
0.35
0.35
0.35
0.32
0.33
0.29
0.20
0.13
0.05
0.01
0.00
0.02
0.02
0.01
0.01
0.01
0.00
0.01
0.00
0.01
0.01
0.00
0.00
0.00
0.00
0.00
0.00
0.01
0.00
0.01
0.00
0.00
0.01
0.00
0.00
0.00
0.01
0.00
0.00
0.00
0.00
0.00
0.00
0.00
0.01
0.00
0.01
0.03
0.08
0.08
0.08
0.10
0.13
0.15
0.17
0.15
0.12
0.08
0.01
0.00
0.01
0.01
0.01
0.00
0.00
0.01
0.01
0.01
0.02
0.00
0.00
0.00
0.18
0.10
0.69
0.84
0.91
0.76
0.46
0.69
0.02
0.08
0.05
0.03
0.01
0.03
0.05
0.05
0.08
0.08
0.08
0.10
0.08
0.12
0.13
0.15
0.20
0.20
0.23
0.25
0.28
0.29
0.29
0.33
0.32
0.31
0.32
0.35
0.35
0.34
0.34
0.34
0.35
0.33
0.30
0.28
0.13
0.08
0.03
0.00
0.00
0.00
0.00
0.00
0.01
0.01
0.00
0.00
0.00
0.00
0.01
0.00
0.01
0.01
0.01
0.03
0.03
0.03
0.01
0.01
0.01
0.01
0.01
0.01
0.00
0.00
0.00
0.00
0.00
0.00
0.00
0.00
0.00
0.00
0.03
0.05
0.05
0.08
0.10
0.10
0.15
0.17
0.20
0.17
0.12
0.08
0.05
0.01
0.00
0.00
0.00
0.01
0.01
0.01
0.00
0.00
0.00
0.00
0.00
0.00
0.10
0.05
0.45
0.83
0.91
0.77
0.40
0.72
0.35
0.08
0.08
0.05
0.03
0.03
0.05
0.03
0.05
0.08
0.08
0.08
0.10
0.10
0.12
0.13
0.13
0.17
0.23
0.25
0.28
0.29
0.30
0.29
0.33
0.33
0.32
0.33
0.35
0.35
0.35
0.35
0.33
0.31
0.33
0.28
0.15
0.10
0.05
0.01
0.00
0.00
0.00
0.01
0.01
0.01
0.01
0.01
0.02
0.01
0.01
0.00
0.00
0.00
0.00
0.00
0.00
0.00
0.00
0.00
0.00
0.00
0.00
0.00
0.01
0.00
0.00
0.01
0.00
0.01
0.01
0.01
0.01
0.01
0.00
0.01
0.03
0.03
0.08
0.08
0.12
0.13
0.13
0.12
0.08
0.03
0.00
0.01
0.06
0.06
0.02
0.06
0.06
0.06
0.10
0.06
0.06
0.02
0.02
0.02
0.35
0.15
0.75
0.85
0.85
0.55
0.70
0.68
0.01
0.05
0.03
0.00
0.00
0.00
0.03
0.01
0.01
0.03
0.05
0.05
0.05
0.08
0.10
0.12
0.13
0.13
0.17
0.17
0.23
0.28
0.29
0.29
0.33
0.33
0.32
0.32
0.32
0.35
0.35
0.33
0.32
0.33
0.28
0.15
0.08
0.03
0.00
0.00
0.02
0.02
0.02
0.10
0.06
0.06
0.02
0.02
0.02
0.01
0.01
0.02
0.01
0.00
0.00
0.00
0.00
0.00
0.00
0.00
0.01
0.00
0.00
0.01
0.01
0.01
0.02
0.01
0.02
0.01
0.01
0.02
0.01
0.00
0.00
0.01
0.03
0.08
0.08
0.10
0.13
0.12
0.12
0.05
0.00
0.00
0.02
0.06
0.06
0.06
0.06
0.06
0.18
0.06
0.06
0.06
0.02
0.06
0.01
0.30
0.00
0.35
0.84
0.91
0.81
0.05
0.75
0.47
0.01
0.03
0.01
0.00
0.01
0.01
0.01
0.03
0.01
0.05
0.05
0.08
0.08
0.10
0.12
0.13
0.12
0.17
0.20
0.25
0.28
0.29
0.29
0.33
0.33
0.31
0.33
0.35
0.35
0.35
0.35
0.31
0.33
0.29
0.20
0.10
0.05
0.00
0.00
0.06
0.06
0.06
0.06
0.06
0.06
0.06
0.02
0.06
0.06
0.02
0.01
0.01
0.01
0.01
0.00
0.01
0.00
0.00
0.00
0.00
0.00
0.00
0.00
0.01
0.02
0.01
0.00
0.01
0.01
0.01
0.01
0.01
0.02
0.00
0.01
0.03
0.05
0.08
0.08
0.13
0.12
0.12
0.12
0.05
0.03
0.00
0.01
0.02
0.10
0.06
0.06
0.06
0.02
0.06
0.06
0.02
0.10
0.06
0.02
0.35
0.17
0.75
0.86
0.88
0.74
0.56
0.64
0.00
0.01
0.01
0.00
0.00
0.00
0.00
0.00
0.01
0.03
0.03
0.05
0.05
0.08
0.08
0.12
0.13
0.15
0.17
0.23
0.23
0.28
0.30
0.33
0.33
0.32
0.31
0.33
0.35
0.35
0.34
0.35
0.31
0.33
0.25
0.15
0.05
0.00
0.01
0.02
0.02
0.10
0.10
0.10
0.18
0.10
0.10
0.06
0.06
0.06
0.06
0.02
0.06
0.02
0.02
0.01
0.01
0.02
0.01
0.01
0.06
0.02
0.02
0.02
0.02
0.02
0.06
0.02
0.06
0.06
0.06
0.06
0.06
0.06
0.02
0.00
0.00
0.00
0.01
0.05
0.08
0.12
0.08
0.08
0.01
0.01
0.02
0.10
0.18
0.18
0.18
0.18
0.18
0.30
0.30
0.18
0.18
0.10
0.10
0.10
0.47
0.03
0.58
0.83
0.91
0.76
0.46
0.73
0.40
0.00
0.00
0.02
0.02
0.01
0.01
0.01
0.01
0.01
0.00
0.00
0.00
0.01
0.03
0.05
0.08
0.08
0.10
0.13
0.15
0.20
0.25
0.28
0.30
0.30
0.33
0.33
0.31
0.33
0.33
0.33
0.31
0.33
0.28
0.15
0.08
0.01
0.01
0.10
0.10
0.30
0.30
0.30
0.30
0.30
0.35
0.18
0.30
0.30
0.18
0.18
0.10
0.10
0.10
0.10
0.10
0.10
0.10
0.06
0.06
0.06
0.06
0.10
0.10
0.18
0.10
0.06
0.18
0.10
0.18
0.10
0.10
0.18
0.10
0.02
0.00
0.00
0.01
0.01
0.05
0.08
0.10
0.08
0.08
0.00
0.01
0.06
0.10
0.18
0.10
0.10
0.10
0.18
0.18
0.18
0.10
0.18
0.10
0.06
0.18
0.18
0.29
0.81
0.87
0.84
0.29
0.76
0.58
0.00
0.01
0.00
0.01
0.00
0.00
0.00
0.01
0.00
0.03
0.05
0.01
0.05
0.08
0.10
0.12
0.12
0.13
0.17
0.17
0.23
0.28
0.29
0.29
0.33
0.33
0.32
0.32
0.32
0.35
0.35
0.33
0.31
0.33
0.29
0.23
0.12
0.08
0.01
0.00
0.00
0.02
0.02
0.02
0.06
0.02
0.02
0.02
0.01
0.02
0.01
0.01
0.01
0.00
0.00
0.00
0.00
0.00
0.00
0.00
0.01
0.00
0.00
0.00
0.00
0.01
0.00
0.01
0.02
0.01
0.00
0.01
0.00
0.00
0.00
0.03
0.01
0.08
0.08
0.08
0.17
0.17
0.13
0.12
0.05
0.03
0.01
0.01
0.01
0.01
0.02
0.02
0.02
0.01
0.01
0.00
0.01
0.01
0.00
0.10
0.03
0.35
0.84
0.88
0.81
0.00
0.75
0.51
0.05
0.08
0.08
0.05
0.05
0.08
0.08
0.05
0.08
0.08
0.10
0.12
0.12
0.12
0.15
0.13
0.17
0.20
0.25
0.28
0.29
0.30
0.33
0.33
0.32
0.31
0.35
0.35
0.35
0.35
0.35
0.35
0.31
0.33
0.28
0.20
0.12
0.05
0.01
0.01
0.00
0.00
0.00
0.00
0.01
0.01
0.00
0.00
0.00
0.00
0.00
0.00
0.00
0.00
0.01
0.00
0.01
0.00
0.01
0.01
0.01
0.00
0.00
0.00
0.00
0.00
0.00
0.00
0.00
0.00
0.00
0.01
0.00
0.05
0.08
0.08
0.10
0.08
0.15
0.15
0.15
0.15
0.12
0.08
0.03
0.01
0.00
0.02
0.01
0.00
0.00
0.01
0.01
0.01
0.00
0.01
0.00
0.00
0.10
0.01
0.35
0.83
0.89
0.81
0.12
0.76
0.56
0.03
0.08
0.05
0.03
0.03
0.03
0.05
0.05
0.08
0.08
0.08
0.10
0.12
0.12
0.13
0.15
0.17
0.20
0.23
0.25
0.29
0.29
0.29
0.33
0.32
0.32
0.33
0.35
0.34
0.34
0.35
0.35
0.35
0.32
0.33
0.29
0.17
0.10
0.05
0.01
0.00
0.00
0.00
0.01
0.00
0.01
0.00
0.00
0.00
0.00
0.00
0.00
0.00
0.00
0.00
0.01
0.01
0.03
0.01
0.01
0.03
0.01
0.01
0.01
0.01
0.01
0.00
0.00
0.01
0.00
0.00
0.01
0.00
0.00
0.00
0.01
0.05
0.05
0.08
0.08
0.12
0.20
0.20
0.17
0.17
0.08
0.08
0.01
0.00
0.00
0.01
0.00
0.00
0.01
0.00
0.00
0.00
0.00
0.00
0.01
0.01
0.01
0.33
0.80
0.91
0.84
0.37
0.73
0.54
0.05
0.08
0.08
0.05
0.05
0.05
0.08
0.08
0.08
0.08
0.10
0.12
0.12
0.13
0.15
0.15
0.20
0.25
0.28
0.29
0.30
0.29
0.33
0.33
0.32
0.35
0.35
0.37
0.42
0.45
0.45
0.37
0.35
0.33
0.29
0.23
0.13
0.08
0.05
0.00
0.00
0.00
0.00
0.00
0.00
0.00
0.01
0.00
0.00
0.00
0.01
0.03
0.03
0.03
0.03
0.01
0.01
0.03
0.05
0.03
0.03
0.03
0.03
0.01
0.01
0.03
0.03
0.03
0.01
0.01
0.03
0.00
0.01
0.03
0.08
0.08
0.08
0.12
0.12
0.13
0.20
0.23
0.23
0.25
0.17
0.12
0.08
0.03
0.01
0.03
0.03
0.03
0.01
0.01
0.03
0.00
0.01
0.03
0.05
0.05
0.01
0.12
0.62
0.83
0.96
0.81
0.00
0.69
0.06
0.12
0.12
0.08
0.08
0.08
0.10
0.10
0.10
0.12
0.12
0.13
0.13
0.17
0.17
0.23
0.25
0.25
0.29
0.29
0.30
0.33
0.33
0.32
0.32
0.35
0.35
0.35
0.37
0.42
0.50
0.50
0.45
0.34
0.33
0.33
0.28
0.20
0.13
0.08
0.05
0.03
0.03
0.03
0.01
0.01
0.03
0.01
0.05
0.03
0.03
0.05
0.05
0.05
0.08
0.08
0.08
0.08
0.08
0.08
0.05
0.08
0.08
0.05
0.05
0.05
0.03
0.01
0.03
0.05
0.05
0.03
0.01
0.01
0.05
0.03
0.08
0.10
0.12
0.13
0.15
0.23
0.25
0.20
0.23
0.15
0.12
0.08
0.05
0.03
0.03
0.00
0.01
0.01
0.01
0.01
0.01
0.01
0.01
0.00
0.01
0.02
0.25
0.75
0.87
0.87
0.73
0.58
0.69
0.00
0.12
0.10
0.08
0.05
0.08
0.05
0.08
0.08
0.10
0.12
0.12
0.12
0.15
0.13
0.15
0.20
0.23
0.25
0.28
0.29
0.30
0.30
0.33
0.33
0.31
0.32
0.35
0.35
0.34
0.34
0.34
0.35
0.33
0.33
0.30
0.20
0.13
0.08
0.03
0.01
0.01
0.00
0.01
0.00
0.00
0.00
0.00
0.00
0.00
0.01
0.01
0.01
0.00
0.01
0.01
0.03
0.03
0.03
0.01
0.03
0.03
0.01
0.01
0.01
0.00
0.00
0.00
0.01
0.00
0.00
0.00
0.00
0.01
0.03
0.08
0.08
0.08
0.08
0.12
0.17
0.20
0.20
0.20
0.10
0.08
0.01
0.00
0.00
0.00
0.00
0.00
0.01
0.01
0.01
0.01
0.00
0.00
0.01
0.02
0.01
0.32
0.82
0.86
0.83
0.25
0.75
0.56
0.05
0.10
0.05
0.05
0.08
0.08
0.08
0.08
0.08
0.10
0.08
0.10
0.12
0.15
0.17
0.17
0.20
0.23
0.23
0.28
0.29
0.29
0.33
0.33
0.33
0.32
0.32
0.35
0.35
0.34
0.34
0.35
0.32
0.33
0.28
0.20
0.13
0.08
0.05
0.01
0.00
0.00
0.00
0.00
0.00
0.00
0.00
0.00
0.00
0.00
0.00
0.00
0.01
0.03
0.01
0.01
0.03
0.01
0.00
0.00
0.01
0.01
0.01
0.00
0.00
0.00
0.00
0.00
0.00
0.00
0.00
0.00
0.00
0.03
0.03
0.05
0.08
0.10
0.12
0.15
0.17
0.15
0.13
0.10
0.08
0.01
0.00
0.00
0.01
0.00
0.02
0.01
0.01
0.01
0.01
0.01
0.01
0.00
0.00
0.18
0.05
0.55
0.83
0.92
0.81
0.02
0.73
0.35
0.08
0.08
0.05
0.03
0.03
0.05
0.05
0.03
0.08
0.08
0.08
0.10
0.10
0.12
0.13
0.13
0.20
0.20
0.25
0.28
0.29
0.29
0.33
0.33
0.32
0.33
0.35
0.35
0.35
0.35
0.35
0.35
0.31
0.33
0.28
0.15
0.08
0.03
0.00
0.01
0.00
0.01
0.01
0.02
0.01
0.01
0.02
0.01
0.01
0.00
0.00
0.00
0.00
0.00
0.00
0.00
0.00
0.01
0.00
0.00
0.00
0.00
0.00
0.00
0.00
0.00
0.00
0.01
0.00
0.00
0.01
0.01
0.00
0.01
0.03
0.05
0.08
0.08
0.08
0.13
0.15
0.13
0.13
0.08
0.03
0.00
0.02
0.02
0.02
0.02
0.02
0.06
0.06
0.06
0.10
0.06
0.06
0.02
0.02
0.35
0.03
0.37
0.84
0.94
0.81
0.12
0.75
0.47
0.00
0.00
0.01
0.02
0.00
0.00
0.00
0.00
0.00
0.01
0.01
0.01
0.03
0.08
0.08
0.08
0.10
0.13
0.13
0.17
0.23
0.28
0.29
0.29
0.33
0.33
0.32
0.32
0.35
0.35
0.35
0.32
0.33
0.29
0.15
0.08
0.01
0.00
0.02
0.10
0.18
0.18
0.30
0.30
0.30
0.30
0.18
0.18
0.18
0.10
0.18
0.18
0.06
0.06
0.02
0.02
0.01
0.01
0.08
0.15
0.34
0.77
0.83
0.83
0.85
0.91
1.00
0.99
0.92
0.83
0.84
0.81
0.13
0.61
0.65
0.69
0.65
0.65
0.65
0.64
0.64
0.64
0.65
0.70
0.72
0.75
0.75
0.78
0.81
0.83
0.84
0.85
0.86
0.87
0.89
0.89
0.89
0.87
0.86
0.84
0.76
0.70
0.64
0.58
0.51
0.35
0.35
0.30
0.30
0.30
0.30
0.35
0.35
0.30
0.35
0.40
0.30
0.18
0.18
0.18
0.18
0.10
0.18
0.18
0.06
0.06
0.06
0.10
0.06
0.02
0.10
0.06
0.06
0.02
0.02
0.02
0.02
0.02
0.02
0.02
0.02
0.02
0.02
0.01
0.02
0.01
0.01
0.02
0.01
0.01
0.01
0.00
0.01
0.00
0.00
0.01
0.00
0.00
0.00
0.00
0.00
0.00
0.00
0.00
0.00
0.00
0.00
0.03
0.01
0.01
0.01
0.00
0.01
0.01
0.03
0.03
0.03
0.03
0.01
0.03
0.03
0.05
0.08
0.10
0.12
0.13
0.10
0.17
0.25
0.28
0.28
0.28
0.17
0.13
0.05
0.05
0.05
0.03
0.05
0.03
0.01
0.03
0.01
0.01
0.03
0.05
0.00
0.03
0.35
0.81
0.87
0.83
0.35
0.70
0.61
0.08
0.13
0.12
0.08
0.08
0.08
0.12
0.12
0.12
0.10
0.13
0.12
0.12
0.20
0.17
0.20
0.20
0.20
0.25
0.28
0.29
0.30
0.33
0.33
0.33
0.33
0.31
0.32
0.32
0.33
0.35
0.35
0.35
0.32
0.31
0.33
0.30
0.25
0.23
0.15
0.15
0.12
0.08
0.08
0.08
0.08
0.10
0.08
0.08
0.10
0.10
0.12
0.08
0.10
0.12
0.12
0.13
0.10
0.10
0.10
0.08
0.10
0.08
0.08
0.08
0.08
0.08
0.08
0.05
0.08
0.08
0.08
0.10
0.12
0.13
0.13
0.15
0.23
0.28
0.25
0.25
0.17
0.13
0.05
0.03
0.03
0.03
0.03
0.01
0.01
0.01
0.00
0.00
0.01
0.03
0.05
0.00
0.02
0.33
0.77
0.86
0.84
0.37
0.72
0.61
0.05
0.12
0.08
0.08
0.08
0.08
0.08
0.08
0.10
0.10
0.10
0.12
0.13
0.15
0.15
0.20
0.23
0.23
0.25
0.28
0.29
0.29
0.33
0.33
0.32
0.31
0.33
0.35
0.35
0.34
0.34
0.34
0.35
0.32
0.29
0.25
0.15
0.10
0.05
0.03
0.00
0.00
0.00
0.00
0.00
0.00
0.00
0.00
0.00
0.00
0.01
0.00
0.00
0.01
0.03
0.01
0.01
0.01
0.01
0.00
0.01
0.01
0.01
0.01
0.00
0.01
0.00
0.00
0.01
0.05
0.08
0.17
0.29
0.32
0.73
0.82
0.85
0.88
0.95
0.97
1.00
1.00
0.96
0.86
0.85
0.83
0.35
0.58
0.70
0.70
0.72
0.72
0.72
0.72
0.73
0.75
0.75
0.75
0.77
0.79
0.79
0.83
0.84
0.85
0.87
0.89
0.89
0.91
0.91
0.92
0.92
0.92
0.92
0.91
0.89
0.87
0.82
0.73
0.65
0.58
0.47
0.18
0.01
0.00
0.01
0.03
0.05
0.05
0.05
0.08
0.08
0.08
0.08
0.10
0.08
0.10
0.10
0.12
0.10
0.10
0.10
0.12
0.12
0.12
0.12
0.10
0.08
0.10
0.10
0.12
0.10
0.10
0.10
0.10
0.08
0.08
0.10
0.10
0.12
0.10
0.10
0.12
0.10
0.10
0.10
0.13
0.12
0.12
0.12
0.13
0.08
0.12
0.12
0.13
0.13
0.12
0.13
0.15
0.15
0.23
0.23
0.28
0.29
0.30
0.33
0.33
0.30
0.29
0.25
0.23
0.13
0.13
0.12
0.12
0.12
0.10
0.10
0.12
0.12
0.12
0.12
0.12
0.08
0.03
0.32
0.80
0.92
0.86
0.69
0.62
0.51
0.10
0.20
0.17
0.15
0.15
0.15
0.15
0.17
0.15
0.20
0.20
0.23
0.25
0.25
0.28
0.29
0.29
0.30
0.29
0.33
0.33
0.33
0.32
0.32
0.35
0.35
0.35
0.37
0.42
0.45
0.50
0.50
0.42
0.35
0.35
0.33
0.29
0.28
0.20
0.15
0.12
0.10
0.10
0.10
0.10
0.08
0.10
0.10
0.10
0.12
0.12
0.12
0.13
0.13
0.15
0.13
0.13
0.13
0.13
0.13
0.13
0.13
0.12
0.12
0.08
0.12
0.10
0.10
0.10
0.12
0.12
0.13
0.15
0.20
0.23
0.23
0.28
0.29
0.29
0.28
0.20
0.15
0.12
0.10
0.08
0.08
0.08
0.05
0.05
0.08
0.05
0.05
0.08
0.08
0.08
0.08
0.00
0.13
0.58
0.83
0.94
0.80
0.03
0.69
0.06
0.15
0.15
0.13
0.12
0.12
0.12
0.13
0.12
0.15
0.15
0.15
0.20
0.20
0.23
0.25
0.23
0.28
0.29
0.30
0.33
0.33
0.33
0.32
0.31
0.33
0.35
0.34
0.35
0.37
0.42
0.37
0.35
0.32
0.33
0.29
0.23
0.13
0.08
0.03
0.01
0.01
0.01
0.00
0.00
0.00
0.00
0.00
0.00
0.01
0.01
0.01
0.01
0.01
0.03
0.01
0.03
0.03
0.05
0.03
0.03
0.03
0.01
0.00
0.00
0.01
0.03
0.01
0.00
0.00
0.01
0.01
0.05
0.08
0.10
0.12
0.13
0.20
0.20
0.13
0.13
0.08
0.05
0.03
0.00
0.01
0.00
0.02
0.01
0.00
0.00
0.00
0.01
0.00
0.00
0.00
0.02
0.02
0.33
0.81
0.86
0.84
0.33
0.75
0.61
0.01
0.10
0.05
0.05
0.03
0.05
0.05
0.05
0.08
0.08
0.08
0.08
0.10
0.12
0.12
0.13
0.17
0.20
0.23
0.28
0.29
0.30
0.30
0.33
0.33
0.31
0.33
0.33
0.35
0.35
0.35
0.33
0.32
0.33
0.29
0.17
0.10
0.05
0.00
0.00
0.00
0.00
0.00
0.01
0.01
0.00
0.02
0.01
0.00
0.00
0.00
0.00
0.00
0.00
0.00
0.00
0.01
0.01
0.01
0.00
0.00
0.00
0.00
0.00
0.00
0.00
0.00
0.00
0.00
0.00
0.01
0.01
0.03
0.05
0.08
0.08
0.10
0.15
0.13
0.13
0.13
0.08
0.05
0.00
0.00
0.00
0.02
0.02
0.01
0.01
0.01
0.02
0.01
0.01
0.01
0.01
0.00
0.10
0.00
0.33
0.83
0.91
0.84
0.29
0.75
0.56
0.03
0.08
0.03
0.01
0.03
0.01
0.03
0.05
0.08
0.08
0.08
0.08
0.10
0.10
0.12
0.15
0.17
0.23
0.23
0.25
0.29
0.29
0.29
0.33
0.33
0.32
0.33
0.35
0.35
0.35
0.34
0.35
0.31
0.33
0.28
0.15
0.10
0.03
0.00
0.00
0.01
0.01
0.02
0.02
0.02
0.06
0.02
0.02
0.06
0.01
0.02
0.01
0.02
0.01
0.00
0.00
0.00
0.00
0.00
0.00
0.02
0.01
0.01
0.00
0.00
0.01
0.02
0.01
0.06
0.02
0.01
0.01
0.01
0.02
0.01
0.00
0.00
0.01
0.05
0.08
0.08
0.12
0.13
0.13
0.10
0.08
0.03
0.01
0.00
0.01
0.02
0.02
0.06
0.06
0.06
0.02
0.02
0.02
0.02
0.02
0.01
0.02
0.30
0.17
0.75
0.86
0.86
0.72
0.60
0.68
0.02
0.05
0.01
0.00
0.00
0.00
0.00
0.00
0.01
0.01
0.03
0.05
0.05
0.08
0.08
0.08
0.12
0.13
0.17
0.20
0.23
0.25
0.29
0.29
0.33
0.33
0.31
0.32
0.33
0.35
0.35
0.33
0.32
0.29
0.28
0.13
0.08
0.00
0.02
0.06
0.10
0.10
0.10
0.18
0.18
0.18
0.30
0.18
0.18
0.10
0.06
0.10
0.10
0.02
0.10
0.06
0.06
0.02
0.06
0.06
0.06
0.06
0.18
0.10
0.10
0.10
0.10
0.10
0.10
0.10
0.18
0.18
0.18
0.10
0.18
0.18
0.10
0.02
0.01
0.01
0.00
0.01
0.03
0.08
0.08
0.08
0.08
0.00
0.00
0.02
0.10
0.18
0.30
0.18
0.18
0.35
0.30
0.30
0.30
0.18
0.18
0.18
0.10
0.46
0.06
0.33
0.83
0.91
0.81
0.00
0.75
0.51
0.00
0.00
0.02
0.02
0.02
0.02
0.02
0.01
0.00
0.00
0.00
0.01
0.01
0.03
0.05
0.08
0.08
0.12
0.13
0.17
0.20
0.25
0.25
0.29
0.33
0.33
0.33
0.32
0.32
0.33
0.31
0.33
0.29
0.25
0.15
0.08
0.00
0.01
0.10
0.10
0.18
0.18
0.18
0.30
0.30
0.18
0.30
0.18
0.10
0.10
0.06
0.10
0.06
0.06
0.10
0.06
0.02
0.02
0.01
0.02
0.06
0.02
0.10
0.06
0.06
0.02
0.06
0.06
0.06
0.06
0.06
0.10
0.06
0.06
0.06
0.06
0.06
0.02
0.02
0.00
0.01
0.01
0.01
0.05
0.08
0.12
0.12
0.10
0.08
0.03
0.00
0.01
0.02
0.06
0.06
0.10
0.06
0.06
0.10
0.06
0.06
0.06
0.01
0.02
0.10
0.10
0.33
0.82
0.89
0.83
0.23
0.75
0.53
0.01
0.03
0.01
0.00
0.00
0.00
0.00
0.01
0.03
0.05
0.05
0.08
0.08
0.08
0.12
0.12
0.15
0.17
0.17
0.23
0.28
0.29
0.30
0.33
0.33
0.32
0.32
0.33
0.35
0.35
0.35
0.33
0.33
0.33
0.25
0.15
0.08
0.03
0.01
0.00
0.00
0.01
0.01
0.01
0.01
0.01
0.02
0.01
0.00
0.00
0.00
0.00
0.00
0.01
0.00
0.01
0.01
0.03
0.05
0.08
0.10
0.25
0.33
0.73
0.81
0.84
0.83
0.86
0.98
1.00
0.96
0.85
0.84
0.80
0.31
0.35
0.62
0.61
0.62
0.61
0.61
0.61
0.60
0.58
0.58
0.58
0.60
0.61
0.64
0.70
0.72
0.75
0.75
0.78
0.83
0.83
0.84
0.85
0.85
0.85
0.84
0.79
0.75
0.70
0.61
0.53
0.35
0.10
0.02
0.02
0.01
0.01
0.02
0.02
0.06
0.06
0.06
0.06
0.02
0.02
0.01
0.01
0.01
0.01
0.01
0.02
0.01
0.00
0.00
0.00
0.00
0.00
0.00
0.00
0.00
0.00
0.00
0.01
0.00
0.00
0.00
0.00
0.00
0.00
0.00
0.01
0.01
0.00
0.01
0.00
0.01
0.01
0.03
0.01
0.01
0.01
0.03
0.01
0.01
0.03
0.05
0.03
0.03
0.03
0.03
0.03
0.03
0.05
0.03
0.05
0.05
0.05
0.05
0.03
0.03
0.05
0.05
0.05
0.05
0.08
0.05
0.05
0.05
0.05
0.05
0.08
0.08
0.05
0.08
0.08
0.05
0.08
0.10
0.13
0.13
0.15
0.17
0.23
0.28
0.29
0.28
0.29
0.20
0.15
0.08
0.08
0.05
0.05
0.05
0.05
0.05
0.03
0.05
0.03
0.03
0.05
0.01
0.25
0.75
0.86
0.89
0.75
0.53
0.62
0.01
0.13
0.10
0.08
0.08
0.05
0.08
0.10
0.10
0.12
0.12
0.12
0.13
0.13
0.15
0.17
0.20
0.25
0.25
0.25
0.29
0.29
0.30
0.33
0.33
0.32
0.31
0.32
0.35
0.35
0.35
0.35
0.35
0.35
0.33
0.33
0.33
0.29
0.20
0.15
0.13
0.10
0.08
0.08
0.08
0.08
0.05
0.08
0.08
0.08
0.10
0.10
0.08
0.10
0.08
0.12
0.10
0.10
0.12
0.10
0.10
0.10
0.08
0.08
0.08
0.08
0.08
0.05
0.05
0.08
0.03
0.03
0.05
0.05
0.05
0.05
0.03
0.05
0.03
0.05
0.08
0.10
0.15
0.13
0.15
0.23
0.23
0.25
0.25
0.23
0.13
0.08
0.08
0.03
0.03
0.03
0.05
0.03
0.03
0.03
0.03
0.01
0.03
0.05
0.05
0.01
0.28
0.75
0.86
0.86
0.72
0.60
0.60
0.03
0.13
0.10
0.10
0.08
0.08
0.10
0.10
0.12
0.12
0.13
0.17
0.15
0.17
0.23
0.25
0.25
0.28
0.29
0.30
0.29
0.33
0.33
0.32
0.32
0.35
0.35
0.34
0.35
0.37
0.42
0.42
0.37
0.35
0.31
0.33
0.29
0.17
0.12
0.08
0.05
0.05
0.03
0.01
0.01
0.00
0.01
0.03
0.01
0.03
0.03
0.03
0.05
0.03
0.05
0.05
0.05
0.08
0.08
0.08
0.08
0.05
0.05
0.05
0.05
0.05
0.05
0.05
0.05
0.03
0.05
0.03
0.05
0.03
0.03
0.05
0.01
0.03
0.08
0.10
0.12
0.12
0.13
0.15
0.20
0.25
0.25
0.25
0.23
0.13
0.08
0.08
0.01
0.03
0.03
0.03
0.03
0.01
0.01
0.01
0.00
0.01
0.03
0.05
0.01
0.20
0.74
0.86
0.89
0.75
0.53
0.62
0.00
0.12
0.10
0.08
0.08
0.08
0.08
0.10
0.10
0.10
0.12
0.13
0.12
0.15
0.15
0.17
0.23
0.25
0.25
0.29
0.29
0.30
0.33
0.33
0.33
0.31
0.33
0.35
0.35
0.34
0.35
0.35
0.34
0.33
0.33
0.30
0.23
0.13
0.08
0.05
0.01
0.01
0.00
0.00
0.00
0.00
0.00
0.00
0.00
0.00
0.00
0.01
0.03
0.00
0.03
0.03
0.03
0.03
0.03
0.01
0.01
0.00
0.01
0.01
0.01
0.01
0.00
0.00
0.00
0.00
0.00
0.00
0.00
0.00
0.00
0.00
0.00
0.00
0.00
0.01
0.05
0.05
0.08
0.08
0.08
0.13
0.17
0.20
0.17
0.15
0.08
0.08
0.00
0.00
0.00
0.00
0.01
0.00
0.01
0.01
0.01
0.01
0.00
0.00
0.00
0.01
0.10
0.28
0.78
0.86
0.83
0.35
0.75
0.60
0.01
0.08
0.05
0.01
0.03
0.03
0.05
0.05
0.05
0.08
0.08
0.08
0.08
0.12
0.12
0.15
0.15
0.17
0.23
0.20
0.25
0.29
0.30
0.33
0.33
0.32
0.32
0.33
0.33
0.35
0.35
0.35
0.32
0.33
0.29
0.20
0.12
0.08
0.03
0.00
0.00
0.00
0.01
0.01
0.00
0.00
0.00
0.00
0.00
0.00
0.01
0.00
0.00
0.01
0.01
0.00
0.01
0.03
0.00
0.01
0.01
0.00
0.00
0.00
0.00
0.00
0.01
0.00
0.00
0.00
0.00
0.00
0.00
0.00
0.00
0.00
0.01
0.03
0.05
0.08
0.08
0.08
0.08
0.15
0.20
0.17
0.20
0.10
0.08
0.00
0.01
0.00
0.01
0.00
0.00
0.01
0.01
0.01
0.02
0.01
0.00
0.00
0.01
0.10
0.28
0.77
0.86
0.83
0.34
0.72
0.64
0.01
0.08
0.08
0.03
0.01
0.03
0.05
0.08
0.08
0.08
0.08
0.08
0.10
0.12
0.13
0.15
0.15
0.17
0.20
0.25
0.25
0.29
0.30
0.33
0.33
0.32
0.32
0.32
0.35
0.35
0.35
0.35
0.32
0.33
0.30
0.23
0.13
0.10
0.05
0.01
0.00
0.01
0.00
0.01
0.01
0.00
0.00
0.00
0.00
0.00
0.00
0.00
0.00
0.00
0.01
0.01
0.03
0.01
0.01
0.01
0.00
0.01
0.01
0.00
0.01
0.00
0.00
0.00
0.00
0.00
0.00
0.00
0.00
0.00
0.00
0.00
0.00
0.00
0.00
0.05
0.08
0.08
0.08
0.10
0.12
0.17
0.17
0.15
0.15
0.08
0.03
0.00
0.01
0.00
0.01
0.01
0.00
0.02
0.02
0.02
0.02
0.01
0.00
0.00
0.10
0.05
0.50
0.84
0.91
0.81
0.01
0.73
0.30
0.05
0.03
0.01
0.00
0.00
0.01
0.01
0.03
0.05
0.05
0.08
0.08
0.08
0.10
0.13
0.13
0.15
0.17
0.20
0.23
0.29
0.30
0.29
0.33
0.33
0.32
0.32
0.35
0.35
0.35
0.35
0.32
0.33
0.28
0.13
0.08
0.01
0.00
0.01
0.06
0.06
0.06
0.10
0.10
0.06
0.06
0.06
0.06
0.06
0.06
0.10
0.06
0.02
0.01
0.00
0.02
0.02
0.01
0.02
0.02
0.01
0.01
0.01
0.02
0.06
0.02
0.10
0.06
0.06
0.06
0.06
0.06
0.10
0.02
0.10
0.06
0.10
0.02
0.00
0.00
0.01
0.01
0.00
0.08
0.12
0.12
0.10
0.08
0.03
0.00
0.06
0.06
0.06
0.10
0.18
0.10
0.10
0.30
0.18
0.18
0.10
0.10
0.10
0.10
0.40
0.15
0.77
0.86
0.87
0.64
0.65
0.62
0.02
0.00
0.01
0.02
0.02
0.01
0.01
0.00
0.00
0.00
0.00
0.00
0.03
0.05
0.05
0.08
0.08
0.12
0.13
0.13
0.17
0.25
0.28
0.29
0.29
0.33
0.33
0.32
0.31
0.33
0.35
0.32
0.33
0.29
0.20
0.10
0.05
0.00
0.01
0.06
0.10
0.18
0.30
0.30
0.18
0.18
0.10
0.10
0.10
0.10
0.18
0.06
0.06
0.02
0.02
0.02
0.02
0.02
0.06
0.02
0.02
0.02
0.02
0.06
0.06
0.06
0.10
0.18
0.06
0.06
0.06
0.10
0.10
0.06
0.10
0.10
0.06
0.06
0.06
0.02
0.00
0.00
0.01
0.01
0.05
0.10
0.12
0.13
0.10
0.10
0.03
0.00
0.01
0.02
0.06
0.10
0.06
0.06
0.06
0.10
0.06
0.06
0.06
0.02
0.02
0.35
0.08
0.66
0.83
0.89
0.74
0.51
0.72
0.30
0.00
0.01
0.00
0.00
0.00
0.00
0.01
0.03
0.01
0.03
0.05
0.08
0.08
0.08
0.10
0.12
0.12
0.15
0.17
0.25
0.28
0.29
0.30
0.33
0.33
0.33
0.32
0.33
0.35
0.35
0.35
0.33
0.33
0.30
0.25
0.15
0.10
0.01
0.00
0.00
0.02
0.02
0.02
0.02
0.01
0.02
0.02
0.01
0.02
0.01
0.00
0.00
0.00
0.00
0.00
0.00
0.00
0.00
0.00
0.00
0.00
0.00
0.00
0.00
0.00
0.01
0.00
0.00
0.01
0.00
0.01
0.00
0.01
0.02
0.01
0.00
0.01
0.00
0.00
0.00
0.01
0.03
0.08
0.08
0.08
0.15
0.17
0.15
0.15
0.10
0.08
0.01
0.00
0.01
0.01
0.01
0.02
0.02
0.02
0.02
0.01
0.01
0.02
0.01
0.01
0.18
0.00
0.35
0.83
0.91
0.77
0.30
0.75
0.46
0.03
0.05
0.03
0.01
0.01
0.03
0.01
0.01
0.03
0.08
0.08
0.08
0.08
0.12
0.10
0.13
0.15
0.20
0.20
0.25
0.28
0.29
0.30
0.33
0.33
0.32
0.32
0.33
0.35
0.35
0.35
0.33
0.32
0.33
0.29
0.17
0.10
0.05
0.00
0.00
0.01
0.00
0.00
0.01
0.01
0.00
0.01
0.01
0.00
0.00
0.00
0.00
0.00
0.01
0.00
0.00
0.01
0.01
0.00
0.01
0.01
0.00
0.00
0.00
0.00
0.00
0.00
0.00
0.00
0.00
0.00
0.00
0.00
0.00
0.00
0.00
0.00
0.00
0.00
0.03
0.05
0.08
0.08
0.10
0.15
0.17
0.17
0.15
0.15
0.12
0.05
0.01
0.00
0.00
0.00
0.00
0.00
0.00
0.00
0.00
0.00
0.00
0.00
0.00
0.06
0.05
0.35
0.83
0.92
0.79
0.06
0.70
0.18
0.08
0.08
0.05
0.03
0.05
0.03
0.05
0.08
0.08
0.10
0.08
0.10
0.12
0.12
0.13
0.15
0.20
0.23
0.25
0.29
0.30
0.30
0.33
0.33
0.32
0.33
0.35
0.35
0.34
0.34
0.34
0.35
0.33
0.33
0.30
0.23
0.15
0.08
0.03
0.01
0.00
0.00
0.00
0.00
0.00
0.00
0.00
0.00
0.00
0.00
0.01
0.00
0.03
0.01
0.01
0.01
0.03
0.03
0.01
0.01
0.03
0.01
0.01
0.01
0.01
0.01
0.01
0.00
0.01
0.01
0.00
0.00
0.00
0.00
0.01
0.01
0.01
0.01
0.01
0.05
0.08
0.08
0.12
0.10
0.15
0.20
0.23
0.17
0.20
0.13
0.10
0.03
0.01
0.00
0.00
0.01
0.00
0.00
0.00
0.00
0.00
0.00
0.00
0.01
0.01
0.06
0.17
0.72
0.85
0.91
0.77
0.40
0.64
0.00
0.10
0.08
0.08
0.08
0.08
0.08
0.08
0.10
0.12
0.12
0.13
0.12
0.15
0.17
0.20
0.23
0.25
0.28
0.30
0.29
0.33
0.33
0.32
0.32
0.35
0.35
0.34
0.34
0.37
0.42
0.37
0.34
0.32
0.33
0.29
0.17
0.12
0.08
0.05
0.03
0.01
0.00
0.00
0.00
0.00
0.00
0.01
0.01
0.01
0.03
0.05
0.01
0.03
0.05
0.05
0.08
0.05
0.05
0.08
0.03
0.03
0.05
0.05
0.05
0.03
0.03
0.03
0.01
0.01
0.03
0.03
0.03
0.03
0.03
0.03
0.03
0.01
0.05
0.05
0.08
0.10
0.12
0.12
0.13
0.17
0.25
0.25
0.23
0.25
0.15
0.10
0.08
0.01
0.01
0.01
0.01
0.01
0.01
0.00
0.01
0.00
0.01
0.03
0.03
0.03
0.02
0.20
0.73
0.85
0.87
0.73
0.58
0.61
0.01
0.12
0.08
0.08
0.08
0.08
0.08
0.10
0.08
0.10
0.12
0.10
0.13
0.15
0.15
0.20
0.20
0.23
0.25
0.25
0.29
0.30
0.33
0.33
0.33
0.32
0.35
0.35
0.35
0.35
0.35
0.34
0.35
0.32
0.29
0.25
0.15
0.10
0.08
0.01
0.00
0.00
0.00
0.00
0.00
0.00
0.00
0.00
0.00
0.01
0.00
0.00
0.01
0.03
0.03
0.03
0.03
0.03
0.01
0.01
0.03
0.03
0.03
0.01
0.00
0.01
0.00
0.00
0.00
0.01
0.00
0.00
0.00
0.00
0.00
0.00
0.00
0.01
0.03
0.05
0.08
0.08
0.08
0.12
0.17
0.17
0.17
0.17
0.10
0.05
0.00
0.00
0.00
0.00
0.00
0.01
0.01
0.00
0.02
0.01
0.00
0.00
0.00
0.02
0.06
0.29
0.81
0.86
0.84
0.32
0.75
0.61
0.01
0.08
0.03
0.03
0.05
0.05
0.08
0.08
0.08
0.08
0.08
0.08
0.12
0.13
0.15
0.15
0.17
0.23
0.23
0.25
0.29
0.30
0.33
0.33
0.33
0.31
0.32
0.35
0.35
0.35
0.34
0.35
0.32
0.33
0.29
0.23
0.13
0.08
0.05
0.01
0.01
0.00
0.01
0.00
0.00
0.00
0.00
0.00
0.00
0.00
0.00
0.00
0.01
0.01
0.03
0.03
0.01
0.03
0.01
0.03
0.03
0.03
0.03
0.01
0.01
0.01
0.00
0.00
0.01
0.01
0.01
0.00
0.00
0.00
0.00
0.00
0.01
0.05
0.08
0.08
0.08
0.10
0.13
0.17
0.17
0.17
0.17
0.12
0.08
0.01
0.00
0.00
0.00
0.00
0.00
0.00
0.01
0.00
0.01
0.00
0.00
0.00
0.01
0.06
0.28
0.75
0.86
0.87
0.64
0.65
0.62
0.00
0.05
0.03
0.03
0.01
0.01
0.03
0.05
0.05
0.05
0.08
0.08
0.08
0.10
0.12
0.13
0.15
0.17
0.20
0.25
0.25
0.29
0.29
0.33
0.33
0.31
0.33
0.35
0.35
0.35
0.34
0.34
0.35
0.33
0.30
0.23
0.12
0.08
0.01
0.00
0.00
0.02
0.02
0.01
0.06
0.02
0.02
0.02
0.01
0.01
0.01
0.01
0.02
0.01
0.00
0.00
0.00
0.00
0.00
0.01
0.01
0.03
0.08
0.13
0.28
0.31
0.74
0.83
0.85
0.86
0.91
0.96
1.00
0.99
0.92
0.85
0.83
0.76
0.01
0.62
0.64
0.64
0.62
0.64
0.64
0.64
0.69
0.70
0.75
0.76
0.78
0.81
0.81
0.83
0.84
0.85
0.87
0.89
0.89
0.91
0.91
0.91
0.91
0.91
0.90
0.89
0.86
0.81
0.73
0.65
0.58
0.51
0.40
0.30
0.18
0.18
0.10
0.10
0.06
0.06
0.06
0.06
0.02
0.06
0.02
0.01
0.01
0.00
0.01
0.00
0.00
0.01
0.00
0.00
0.00
0.00
0.00
0.00
0.00
0.01
0.00
0.00
0.00
0.00
0.00
0.00
0.00
0.01
0.00
0.00
0.00
0.00
0.00
0.00
0.00
0.01
0.00
0.00
0.00
0.00
0.00
0.00
0.00
0.00
0.00
0.00
0.00
0.00
0.00
0.00
0.00
0.00
0.00
0.00
0.00
0.00
0.00
0.00
0.01
0.00
0.00
0.00
0.01
0.01
0.01
0.01
0.01
0.00
0.01
0.05
0.08
0.08
0.08
0.10
0.15
0.17
0.20
0.17
0.20
0.12
0.08
0.01
0.00
0.01
0.00
0.01
0.00
0.00
0.01
0.01
0.00
0.01
0.01
0.18
0.10
0.67
0.83
0.86
0.73
0.58
0.70
0.10
0.05
0.05
0.00
0.00
0.01
0.00
0.00
0.03
0.03
0.05
0.05
0.05
0.08
0.05
0.08
0.10
0.13
0.13
0.15
0.20
0.23
0.23
0.29
0.29
0.29
0.33
0.33
0.33
0.31
0.32
0.31
0.31
0.32
0.33
0.29
0.23
0.15
0.08
0.05
0.00
0.00
0.00
0.00
0.00
0.00
0.01
0.00
0.00
0.01
0.01
0.01
0.01
0.01
0.00
0.01
0.01
0.01
0.01
0.01
0.01
0.01
0.00
0.00
0.00
0.00
0.00
0.00
0.01
0.00
0.02
0.01
0.01
0.00
0.00
0.00
0.01
0.03
0.03
0.05
0.08
0.13
0.15
0.13
0.13
0.08
0.01
0.00
0.00
0.01
0.01
0.02
0.02
0.01
0.10
0.02
0.02
0.01
0.00
0.01
0.01
0.18
0.10
0.69
0.84
0.86
0.70
0.60
0.70
0.18
0.05
0.03
0.01
0.01
0.01
0.03
0.03
0.05
0.05
0.08
0.08
0.08
0.10
0.12
0.13
0.15
0.15
0.17
0.23
0.28
0.29
0.29
0.29
0.33
0.33
0.32
0.32
0.35
0.35
0.35
0.33
0.32
0.33
0.30
0.25
0.15
0.10
0.03
0.01
0.00
0.02
0.01
0.00
0.01
0.01
0.01
0.00
0.00
0.01
0.00
0.00
0.00
0.01
0.00
0.00
0.01
0.00
0.00
0.01
0.03
0.01
0.00
0.00
0.00
0.01
0.00
0.00
0.00
0.00
0.00
0.00
0.00
0.00
0.03
0.08
0.08
0.08
0.10
0.15
0.17
0.13
0.15
0.10
0.08
0.01
0.00
0.00
0.01
0.01
0.01
0.01
0.00
0.00
0.01
0.00
0.00
0.00
0.00
0.18
0.10
0.69
0.83
0.86
0.72
0.60
0.72
0.10
0.08
0.08
0.03
0.01
0.03
0.01
0.05
0.05
0.08
0.08
0.08
0.10
0.12
0.08
0.13
0.13
0.17
0.20
0.23
0.28
0.29
0.29
0.29
0.33
0.32
0.32
0.32
0.33
0.35
0.35
0.35
0.33
0.32
0.29
0.23
0.15
0.08
0.01
0.00
0.00
0.00
0.00
0.01
0.01
0.01
0.02
0.01
0.01
0.00
0.00
0.00
0.00
0.00
0.01
0.00
0.01
0.01
0.01
0.00
0.00
0.00
0.00
0.00
0.00
0.00
0.00
0.00
0.00
0.00
0.01
0.00
0.01
0.03
0.08
0.08
0.08
0.10
0.12
0.15
0.13
0.17
0.10
0.05
0.00
0.00
0.02
0.01
0.01
0.01
0.01
0.02
0.01
0.01
0.02
0.01
0.00
0.00
0.10
0.01
0.35
0.83
0.89
0.81
0.01
0.75
0.46
0.05
0.08
0.05
0.01
0.03
0.05
0.05
0.08
0.08
0.08
0.08
0.08
0.10
0.13
0.15
0.17
0.17
0.20
0.25
0.25
0.29
0.30
0.33
0.33
0.31
0.33
0.35
0.35
0.35
0.34
0.34
0.35
0.32
0.29
0.28
0.13
0.08
0.05
0.01
0.01
0.00
0.00
0.00
0.02
0.01
0.00
0.00
0.00
0.00
0.00
0.00
0.00
0.00
0.00
0.01
0.03
0.01
0.01
0.03
0.00
0.01
0.01
0.03
0.03
0.01
0.01
0.01
0.00
0.00
0.00
0.01
0.01
0.01
0.05
0.08
0.08
0.08
0.10
0.15
0.20
0.20
0.17
0.17
0.08
0.08
0.01
0.01
0.00
0.00
0.00
0.00
0.00
0.01
0.00
0.00
0.00
0.00
0.00
0.01
0.06
0.13
0.69
0.85
0.94
0.77
0.30
0.69
0.02
0.08
0.08
0.08
0.05
0.05
0.08
0.08
0.08
0.08
0.10
0.13
0.13
0.15
0.15
0.17
0.23
0.23
0.28
0.29
0.30
0.33
0.33
0.33
0.31
0.35
0.35
0.35
0.42
0.50
0.50
0.50
0.37
0.35
0.33
0.30
0.23
0.13
0.08
0.05
0.03
0.01
0.03
0.03
0.03
0.01
0.01
0.03
0.01
0.03
0.03
0.05
0.08
0.03
0.05
0.08
0.05
0.08
0.08
0.08
0.08
0.08
0.08
0.08
0.05
0.05
0.05
0.05
0.05
0.05
0.05
0.08
0.03
0.05
0.08
0.08
0.12
0.13
0.13
0.15
0.17
0.25
0.28
0.25
0.25
0.17
0.13
0.08
0.05
0.03
0.03
0.03
0.03
0.03
0.03
0.03
0.01
0.01
0.03
0.03
0.05
0.00
0.03
0.35
0.84
0.96
0.83
0.33
0.70
0.40
0.08
0.10
0.08
0.08
0.08
0.10
0.10
0.10
0.10
0.12
0.12
0.13
0.15
0.17
0.20
0.23
0.23
0.28
0.28
0.29
0.33
0.33
0.32
0.31
0.33
0.35
0.35
0.37
0.42
0.45
0.45
0.35
0.35
0.33
0.29
0.20
0.13
0.08
0.05
0.03
0.01
0.01
0.00
0.00
0.00
0.00
0.01
0.00
0.00
0.01
0.00
0.00
0.01
0.03
0.05
0.03
0.03
0.05
0.03
0.05
0.08
0.08
0.12
0.20
0.29
0.64
0.79
0.83
0.84
0.85
0.92
1.00
1.00
0.96
0.83
0.84
0.80
0.33
0.35
0.58
0.60
0.60
0.60
0.58
0.58
0.58
0.58
0.61
0.64
0.70
0.72
0.72
0.75
0.75
0.76
0.79
0.83
0.84
0.86
0.87
0.88
0.88
0.87
0.87
0.85
0.81
0.75
0.70
0.61
0.53
0.35
0.18
0.06
0.02
0.06
0.02
0.02
0.01
0.01
0.02
0.01
0.00
0.02
0.01
0.00
0.00
0.00
0.00
0.00
0.01
0.00
0.01
0.00
0.01
0.03
0.01
0.01
0.01
0.00
0.00
0.01
0.03
0.03
0.01
0.01
0.01
0.00
0.01
0.01
0.03
0.03
0.01
0.01
0.01
0.00
0.01
0.03
0.03
0.03
0.03
0.03
0.03
0.01
0.03
0.05
0.05
0.05
0.03
0.03
0.05
0.03
0.03
0.05
0.05
0.08
0.05
0.05
0.05
0.03
0.05
0.08
0.08
0.08
0.05
0.08
0.08
0.05
0.08
0.08
0.08
0.08
0.08
0.08
0.12
0.13
0.13
0.15
0.17
0.25
0.29
0.29
0.29
0.28
0.20
0.17
0.10
0.08
0.08
0.05
0.05
0.05
0.05
0.05
0.03
0.05
0.08
0.05
0.00
0.08
0.37
0.84
0.88
0.80
0.08
0.70
0.30
0.12
0.13
0.10
0.08
0.08
0.10
0.08
0.10
0.12
0.10
0.12
0.12
0.15
0.17
0.17
0.20
0.23
0.23
0.28
0.29
0.29
0.29
0.33
0.33
0.33
0.32
0.32
0.35
0.35
0.35
0.35
0.35
0.33
0.31
0.33
0.29
0.29
0.20
0.15
0.12
0.08
0.08
0.08
0.08
0.08
0.08
0.08
0.08
0.08
0.08
0.08
0.10
0.12
0.10
0.10
0.10
0.08
0.08
0.08
0.10
0.08
0.08
0.08
0.08
0.05
0.03
0.05
0.08
0.05
0.05
0.03
0.05
0.03
0.03
0.05
0.08
0.08
0.10
0.10
0.12
0.10
0.17
0.23
0.25
0.23
0.20
0.13
0.10
0.01
0.01
0.01
0.01
0.01
0.00
0.00
0.00
0.00
0.00
0.01
0.01
0.03
0.00
0.02
0.29
0.79
0.86
0.85
0.50
0.70
0.62
0.01
0.12
0.08
0.05
0.08
0.08
0.08
0.08
0.08
0.08
0.08
0.10
0.12
0.13
0.17
0.15
0.20
0.23
0.23
0.25
0.29
0.30
0.33
0.33
0.33
0.31
0.32
0.35
0.35
0.35
0.35
0.35
0.33
0.33
0.29
0.23
0.13
0.08
0.05
0.00
0.00
0.00
0.02
0.01
0.01
0.01
0.00
0.01
0.01
0.00
0.01
0.01
0.00
0.00
0.00
0.00
0.00
0.00
0.01
0.00
0.00
0.00
0.00
0.00
0.01
0.00
0.01
0.00
0.01
0.01
0.00
0.01
0.01
0.01
0.02
0.01
0.00
0.00
0.01
0.03
0.05
0.08
0.08
0.12
0.13
0.12
0.13
0.08
0.03
0.00
0.06
0.06
0.06
0.02
0.06
0.06
0.06
0.06
0.18
0.06
0.06
0.02
0.06
0.35
0.20
0.75
0.85
0.86
0.71
0.61
0.69
0.10
0.01
0.01
0.01
0.01
0.00
0.00
0.00
0.00
0.01
0.01
0.01
0.03
0.05
0.08
0.08
0.12
0.13
0.13
0.15
0.20
0.23
0.29
0.30
0.33
0.33
0.32
0.31
0.33
0.35
0.35
0.35
0.33
0.33
0.29
0.17
0.08
0.03
0.00
0.02
0.06
0.10
0.18
0.18
0.30
0.18
0.18
0.18
0.10
0.18
0.10
0.10
0.10
0.10
0.06
0.02
0.02
0.06
0.02
0.06
0.02
0.06
0.02
0.06
0.06
0.10
0.06
0.10
0.10
0.10
0.06
0.06
0.06
0.10
0.06
0.18
0.10
0.06
0.01
0.00
0.00
0.01
0.03
0.05
0.10
0.10
0.10
0.10
0.03
0.00
0.01
0.10
0.10
0.10
0.06
0.06
0.10
0.18
0.06
0.18
0.10
0.06
0.02
0.10
0.10
0.29
0.81
0.86
0.83
0.35
0.75
0.60
0.01
0.01
0.00
0.01
0.00
0.00
0.00
0.01
0.01
0.01
0.03
0.03
0.05
0.08
0.10
0.12
0.12
0.13
0.17
0.17
0.23
0.29
0.29
0.33
0.33
0.33
0.32
0.33
0.35
0.35
0.34
0.34
0.33
0.33
0.30
0.17
0.10
0.05
0.00
0.00
0.02
0.02
0.02
0.10
0.10
0.06
0.02
0.02
0.02
0.02
0.02
0.02
0.02
0.01
0.00
0.00
0.00
0.00
0.00
0.01
0.00
0.00
0.00
0.00
0.00
0.01
0.00
0.02
0.01
0.00
0.00
0.01
0.01
0.01
0.01
0.06
0.01
0.00
0.00
0.01
0.03
0.03
0.08
0.08
0.08
0.13
0.15
0.15
0.15
0.12
0.08
0.03
0.00
0.01
0.01
0.01
0.00
0.01
0.02
0.01
0.06
0.02
0.02
0.01
0.00
0.06
0.10
0.33
0.81
0.89
0.83
0.32
0.75
0.53
0.03
0.05
0.01
0.01
0.01
0.03
0.03
0.03
0.05
0.05
0.05
0.08
0.10
0.12
0.13
0.13
0.15
0.17
0.20
0.25
0.29
0.30
0.33
0.33
0.32
0.31
0.35
0.35
0.34
0.35
0.34
0.35
0.31
0.29
0.28
0.15
0.10
0.08
0.00
0.00
0.00
0.06
0.02
0.01
0.00
0.00
0.01
0.01
0.00
0.01
0.01
0.00
0.00
0.00
0.00
0.00
0.00
0.00
0.00
0.00
0.00
0.00
0.00
0.00
0.00
0.01
0.01
0.01
0.00
0.00
0.00
0.00
0.00
0.01
0.00
0.00
0.00
0.03
0.03
0.05
0.08
0.08
0.12
0.17
0.17
0.17
0.15
0.10
0.08
0.00
0.00
0.00
0.00
0.00
0.01
0.01
0.01
0.02
0.01
0.01
0.00
0.00
0.00
0.10
0.10
0.56
0.83
0.88
0.77
0.40
0.72
0.10
0.08
0.05
0.05
0.05
0.05
0.08
0.08
0.08
0.08
0.08
0.08
0.12
0.13
0.15
0.15
0.17
0.20
0.23
0.25
0.29
0.30
0.29
0.33
0.33
0.32
0.33
0.35
0.35
0.35
0.37
0.35
0.35
0.33
0.33
0.29
0.20
0.13
0.08
0.05
0.01
0.00
0.00
0.00
0.00
0.00
0.00
0.00
0.00
0.00
0.00
0.00
0.01
0.01
0.03
0.01
0.01
0.03
0.01
0.03
0.03
0.03
0.03
0.01
0.01
0.03
0.01
0.00
0.00
0.00
0.01
0.01
0.01
0.00
0.01
0.00
0.00
0.01
0.05
0.08
0.08
0.10
0.10
0.12
0.20
0.23
0.20
0.25
0.15
0.12
0.05
0.01
0.03
0.01
0.01
0.01
0.01
0.01
0.01
0.00
0.00
0.01
0.03
0.05
0.00
0.00
0.35
0.81
0.89
0.82
0.28
0.72
0.35
0.12
0.13
0.08
0.08
0.08
0.10
0.12
0.12
0.12
0.15
0.13
0.15
0.17
0.20
0.23
0.25
0.29
0.29
0.29
0.33
0.33
0.33
0.31
0.35
0.35
0.35
0.37
0.45
0.50
0.55
0.45
0.35
0.35
0.33
0.29
0.20
0.15
0.10
0.08
0.05
0.05
0.01
0.03
0.03
0.05
0.05
0.05
0.05
0.05
0.05
0.05
0.08
0.08
0.08
0.08
0.08
0.10
0.08
0.08
0.08
0.10
0.10
0.08
0.08
0.08
0.08
0.08
0.08
0.08
0.08
0.08
0.08
0.08
0.08
0.08
0.08
0.08
0.08
0.08
0.13
0.15
0.15
0.17
0.20
0.29
0.29
0.29
0.29
0.25
0.17
0.12
0.08
0.08
0.08
0.05
0.05
0.08
0.03
0.05
0.05
0.05
0.08
0.08
0.08
0.03
0.00
0.32
0.81
0.91
0.87
0.64
0.65
0.47
0.08
0.13
0.12
0.12
0.12
0.12
0.12
0.13
0.12
0.13
0.15
0.17
0.20
0.20
0.23
0.25
0.25
0.29
0.30
0.29
0.33
0.33
0.32
0.33
0.35
0.35
0.35
0.45
0.50
0.56
0.58
0.56
0.42
0.35
0.32
0.29
0.25
0.17
0.10
0.08
0.05
0.03
0.03
0.03
0.01
0.01
0.01
0.01
0.01
0.00
0.03
0.03
0.03
0.05
0.03
0.05
0.08
0.05
0.08
0.08
0.08
0.08
0.12
0.17
0.29
0.32
0.77
0.83
0.84
0.85
0.88
0.98
1.00
0.96
0.86
0.84
0.84
0.45
0.01
0.58
0.60
0.61
0.60
0.60
0.60
0.58
0.56
0.56
0.58
0.58
0.61
0.64
0.70
0.70
0.75
0.75
0.78
0.83
0.84
0.85
0.86
0.87
0.87
0.85
0.83
0.79
0.72
0.64
0.58
0.51
0.35
0.06
0.06
0.02
0.01
0.01
0.01
0.02
0.02
0.02
0.02
0.02
0.01
0.00
0.00
0.00
0.00
0.00
0.00
0.00
0.01
0.01
0.03
0.01
0.01
0.03
0.00
0.03
0.01
0.03
0.03
0.01
0.03
0.03
0.00
0.01
0.01
0.05
0.05
0.03
0.03
0.03
0.01
0.03
0.03
0.05
0.05
0.05
0.03
0.05
0.01
0.03
0.05
0.05
0.05
0.05
0.05
0.05
0.08
0.05
0.05
0.08
0.05
0.08
0.05
0.08
0.08
0.05
0.08
0.08
0.05
0.08
0.08
0.08
0.08
0.08
0.08
0.08
0.08
0.08
0.08
0.08
0.08
0.08
0.08
0.10
0.12
0.15
0.15
0.17
0.17
0.25
0.29
0.29
0.29
0.25
0.20
0.13
0.08
0.08
0.05
0.08
0.08
0.05
0.05
0.05
0.03
0.03
0.08
0.03
0.00
0.30
0.78
0.86
0.85
0.50
0.70
0.58
0.05
0.15
0.10
0.10
0.08
0.08
0.12
0.12
0.12
0.12
0.12
0.13
0.13
0.13
0.17
0.23
0.23
0.23
0.25
0.28
0.29
0.30
0.33
0.33
0.33
0.31
0.31
0.33
0.35
0.35
0.35
0.34
0.35
0.35
0.32
0.33
0.29
0.25
0.20
0.15
0.10
0.10
0.08
0.05
0.05
0.05
0.08
0.08
0.08
0.08
0.08
0.10
0.08
0.08
0.10
0.10
0.08
0.10
0.10
0.08
0.08
0.08
0.08
0.08
0.05
0.05
0.03
0.05
0.03
0.01
0.03
0.03
0.03
0.03
0.01
0.01
0.01
0.03
0.08
0.10
0.12
0.12
0.13
0.20
0.20
0.20
0.20
0.15
0.12
0.05
0.01
0.01
0.00
0.00
0.00
0.00
0.00
0.00
0.00
0.00
0.00
0.00
0.00
0.06
0.29
0.81
0.86
0.83
0.34
0.75
0.68
0.01
0.10
0.08
0.05
0.08
0.05
0.08
0.08
0.08
0.08
0.08
0.10
0.12
0.13
0.13
0.15
0.17
0.20
0.23
0.25
0.28
0.29
0.30
0.33
0.33
0.31
0.32
0.33
0.35
0.35
0.35
0.35
0.35
0.31
0.33
0.29
0.20
0.13
0.05
0.01
0.00
0.00
0.00
0.01
0.01
0.01
0.02
0.01
0.01
0.01
0.00
0.00
0.00
0.00
0.01
0.00
0.00
0.00
0.00
0.00
0.00
0.00
0.01
0.00
0.01
0.01
0.01
0.01
0.01
0.01
0.06
0.01
0.01
0.01
0.00
0.00
0.01
0.03
0.05
0.08
0.10
0.13
0.13
0.13
0.10
0.05
0.00
0.01
0.01
0.10
0.06
0.06
0.06
0.10
0.10
0.10
0.10
0.02
0.06
0.06
0.40
0.15
0.75
0.87
0.86
0.67
0.64
0.72
0.18
0.03
0.01
0.00
0.00
0.00
0.00
0.00
0.01
0.01
0.01
0.03
0.03
0.08
0.08
0.08
0.10
0.12
0.13
0.15
0.20
0.25
0.29
0.29
0.29
0.33
0.33
0.32
0.35
0.35
0.35
0.35
0.35
0.31
0.30
0.23
0.12
0.05
0.00
0.02
0.10
0.18
0.30
0.30
0.18
0.30
0.18
0.30
0.18
0.18
0.18
0.10
0.18
0.10
0.10
0.10
0.06
0.06
0.10
0.06
0.06
0.06
0.06
0.06
0.06
0.06
0.18
0.10
0.10
0.10
0.10
0.10
0.10
0.18
0.18
0.06
0.01
0.00
0.00
0.01
0.03
0.08
0.08
0.10
0.10
0.08
0.03
0.00
0.02
0.10
0.18
0.10
0.10
0.10
0.10
0.18
0.10
0.18
0.10
0.06
0.06
0.35
0.10
0.33
0.81
0.91
0.84
0.33
0.76
0.58
0.00
0.01
0.00
0.00
0.01
0.00
0.00
0.00
0.01
0.01
0.03
0.05
0.05
0.08
0.08
0.10
0.13
0.15
0.17
0.23
0.23
0.29
0.30
0.33
0.33
0.31
0.35
0.35
0.35
0.35
0.37
0.34
0.35
0.33
0.29
0.17
0.08
0.03
0.00
0.01
0.02
0.06
0.06
0.06
0.10
0.02
0.02
0.06
0.02
0.02
0.02
0.02
0.02
0.01
0.01
0.00
0.01
0.01
0.00
0.01
0.01
0.00
0.01
0.00
0.01
0.01
0.01
0.02
0.01
0.01
0.01
0.00
0.01
0.02
0.01
0.01
0.01
0.03
0.08
0.08
0.08
0.12
0.15
0.13
0.13
0.12
0.08
0.03
0.01
0.01
0.01
0.06
0.06
0.06
0.02
0.02
0.02
0.02
0.02
0.01
0.02
0.06
0.06
0.33
0.80
0.89
0.83
0.35
0.75
0.58
0.00
0.05
0.01
0.01
0.01
0.00
0.01
0.03
0.05
0.05
0.08
0.08
0.10
0.08
0.10
0.13
0.15
0.20
0.20
0.23
0.29
0.29
0.29
0.33
0.32
0.32
0.35
0.35
0.35
0.34
0.35
0.34
0.35
0.33
0.29
0.17
0.12
0.03
0.00
0.00
0.01
0.01
0.02
0.02
0.02
0.02
0.02
0.02
0.01
0.01
0.01
0.02
0.00
0.01
0.01
0.01
0.00
0.00
0.00
0.00
0.00
0.00
0.01
0.00
0.00
0.00
0.00
0.00
0.01
0.01
0.01
0.00
0.00
0.01
0.01
0.01
0.00
0.03
0.01
0.05
0.08
0.10
0.15
0.15
0.13
0.15
0.08
0.08
0.01
0.00
0.00
0.01
0.01
0.01
0.06
0.02
0.01
0.01
0.01
0.01
0.01
0.00
0.06
0.06
0.30
0.81
0.86
0.85
0.45
0.72
0.65
0.01
0.08
0.05
0.03
0.03
0.03
0.05
0.05
0.05
0.08
0.08
0.10
0.10
0.12
0.12
0.13
0.15
0.20
0.23
0.28
0.29
0.30
0.33
0.33
0.33
0.32
0.35
0.35
0.35
0.37
0.37
0.35
0.35
0.33
0.29
0.23
0.12
0.05
0.03
0.00
0.00
0.00
0.01
0.00
0.00
0.00
0.00
0.00
0.00
0.00
0.00
0.00
0.00
0.01
0.00
0.01
0.01
0.03
0.01
0.01
0.01
0.00
0.00
0.00
0.00
0.00
0.00
0.00
0.00
0.00
0.00
0.00
0.00
0.00
0.01
0.03
0.05
0.08
0.08
0.08
0.13
0.20
0.20
0.17
0.17
0.12
0.08
0.01
0.00
0.00
0.00
0.00
0.00
0.00
0.01
0.01
0.00
0.00
0.00
0.00
0.00
0.02
0.03
0.35
0.84
0.91
0.81
0.12
0.75
0.51
0.08
0.08
0.05
0.05
0.08
0.08
0.08
0.08
0.08
0.08
0.12
0.12
0.13
0.15
0.17
0.20
0.25
0.23
0.29
0.29
0.29
0.33
0.33
0.32
0.33
0.35
0.34
0.42
0.42
0.50
0.45
0.42
0.35
0.32
0.30
0.25
0.13
0.08
0.05
0.03
0.00
0.00
0.00
0.00
0.00
0.01
0.00
0.01
0.00
0.01
0.01
0.03
0.03
0.03
0.05
0.05
0.05
0.03
0.08
0.08
0.05
0.08
0.05
0.05
0.05
0.03
0.05
0.05
0.03
0.03
0.03
0.05
0.03
0.03
0.05
0.05
0.05
0.05
0.08
0.10
0.12
0.13
0.13
0.15
0.23
0.25
0.28
0.25
0.25
0.17
0.13
0.08
0.08
0.05
0.03
0.05
0.03
0.03
0.03
0.05
0.03
0.05
0.05
0.08
0.03
0.00
0.33
0.80
0.91
0.86
0.66
0.64
0.56
0.08
0.13
0.12
0.10
0.10
0.10
0.12
0.12
0.12
0.13
0.15
0.17
0.17
0.20
0.23
0.25
0.25
0.29
0.30
0.29
0.33
0.33
0.32
0.31
0.35
0.34
0.42
0.50
0.55
0.56
0.58
0.55
0.37
0.35
0.33
0.29
0.23
0.12
0.08
0.03
0.01
0.01
0.01
0.01
0.00
0.01
0.01
0.00
0.00
0.01
0.03
0.01
0.01
0.03
0.01
0.03
0.03
0.03
0.05
0.03
0.05
0.03
0.03
0.03
0.01
0.03
0.03
0.01
0.01
0.00
0.01
0.01
0.00
0.00
0.00
0.00
0.01
0.00
0.01
0.01
0.00
0.03
0.08
0.08
0.10
0.10
0.13
0.20
0.20
0.20
0.20
0.15
0.13
0.08
0.01
0.01
0.00
0.00
0.00
0.00
0.00
0.00
0.00
0.00
0.00
0.00
0.01
0.06
0.08
0.56
0.83
0.96
0.81
0.01
0.70
0.06
0.08
0.05
0.05
0.01
0.01
0.03
0.08
0.08
0.08
0.08
0.10
0.10
0.10
0.13
0.15
0.17
0.17
0.23
0.28
0.28
0.29
0.29
0.33
0.32
0.31
0.35
0.35
0.34
0.37
0.42
0.37
0.35
0.33
0.33
0.29
0.13
0.08
0.03
0.01
0.00
0.01
0.02
0.01
0.06
0.02
0.01
0.01
0.01
0.01
0.01
0.00
0.01
0.00
0.00
0.00
0.00
0.00
0.00
0.00
0.00
0.00
0.00
0.00
0.00
0.00
0.00
0.00
0.00
0.01
0.00
0.00
0.00
0.00
0.00
0.00
0.00
0.01
0.00
0.00
0.00
0.00
0.00
0.00
0.03
0.03
0.08
0.08
0.10
0.15
0.17
0.17
0.17
0.15
0.10
0.08
0.01
0.01
0.00
0.00
0.00
0.01
0.01
0.00
0.00
0.00
0.00
0.00
0.00
0.06
0.00
0.32
0.83
0.94
0.83
0.23
0.75
0.46
0.08
0.08
0.05
0.03
0.03
0.05
0.03
0.05
0.08
0.08
0.10
0.10
0.10
0.13
0.12
0.13
0.17
0.20
0.25
0.25
0.28
0.30
0.29
0.33
0.32
0.32
0.35
0.35
0.34
0.37
0.37
0.35
0.35
0.31
0.33
0.28
0.13
0.08
0.03
0.00
0.00
0.00
0.00
0.00
0.00
0.00
0.01
0.01
0.00
0.00
0.00
0.00
0.00
0.00
0.00
0.00
0.00
0.01
0.01
0.01
0.00
0.00
0.00
0.00
0.00
0.00
0.00
0.00
0.00
0.00
0.00
0.01
0.00
0.00
0.00
0.00
0.00
0.00
0.00
0.01
0.00
0.03
0.05
0.08
0.08
0.08
0.10
0.15
0.17
0.17
0.17
0.08
0.08
0.00
0.00
0.01
0.00
0.00
0.00
0.01
0.01
0.00
0.02
0.01
0.00
0.01
0.01
0.02
0.29
0.81
0.86
0.84
0.37
0.72
0.64
0.00
0.08
0.05
0.01
0.01
0.01
0.03
0.05
0.05
0.08
0.08
0.08
0.08
0.08
0.12
0.12
0.13
0.15
0.17
0.25
0.25
0.28
0.30
0.33
0.33
0.32
0.32
0.33
0.35
0.35
0.34
0.35
0.35
0.32
0.33
0.29
0.15
0.08
0.03
0.00
0.00
0.02
0.02
0.02
0.06
0.02
0.02
0.02
0.01
0.02
0.02
0.01
0.02
0.01
0.01
0.01
0.01
0.00
0.00
0.01
0.01
0.01
0.00
0.01
0.01
0.02
0.02
0.06
0.06
0.02
0.02
0.02
0.06
0.06
0.02
0.10
0.06
0.06
0.06
0.02
0.01
0.00
0.01
0.00
0.01
0.03
0.10
0.12
0.12
0.10
0.10
0.03
0.00
0.01
0.02
0.06
0.10
0.10
0.06
0.18
0.10
0.10
0.06
0.06
0.06
0.06
0.10
0.35
0.29
0.81
0.88
0.83
0.35
0.76
0.64
0.06
0.00
0.00
0.00
0.00
0.00
0.00
0.00
0.00
0.00
0.01
0.03
0.05
0.08
0.08
0.08
0.10
0.10
0.12
0.15
0.17
0.23
0.25
0.29
0.29
0.33
0.33
0.31
0.32
0.35
0.35
0.35
0.35
0.32
0.33
0.25
0.13
0.08
0.00
0.02
0.06
0.18
0.18
0.18
0.18
0.18
0.18
0.18
0.18
0.18
0.10
0.10
0.06
0.10
0.06
0.06
0.06
0.10
0.02
0.02
0.02
0.02
0.06
0.02
0.10
0.10
0.06
0.06
0.06
0.10
0.06
0.10
0.10
0.18
0.10
0.06
0.06
0.06
0.06
0.06
0.10
0.06
0.01
0.00
0.01
0.03
0.03
0.08
0.12
0.12
0.12
0.12
0.08
0.03
0.01
0.01
0.06
0.10
0.10
0.06
0.06
0.10
0.10
0.06
0.18
0.06
0.06
0.06
0.30
0.17
0.75
0.86
0.88
0.75
0.54
0.68
0.06
0.03
0.00
0.00
0.00
0.00
0.00
0.01
0.03
0.03
0.03
0.08
0.05
0.08
0.10
0.12
0.15
0.15
0.17
0.23
0.23
0.29
0.29
0.33
0.33
0.32
0.32
0.35
0.35
0.35
0.35
0.37
0.35
0.31
0.33
0.28
0.13
0.08
0.03
0.00
0.00
0.02
0.02
0.01
0.06
0.02
0.02
0.02
0.01
0.01
0.01
0.00
0.01
0.00
0.00
0.00
0.00
0.00
0.00
0.00
0.01
0.00
0.00
0.00
0.00
0.00
0.01
0.01
0.02
0.01
0.01
0.01
0.01
0.01
0.01
0.01
0.02
0.01
0.01
0.00
0.00
0.00
0.00
0.01
0.03
0.03
0.08
0.08
0.10
0.15
0.15
0.15
0.15
0.08
0.08
0.00
0.00
0.00
0.02
0.02
0.01
0.02
0.02
0.02
0.02
0.01
0.01
0.00
0.00
0.10
0.06
0.33
0.83
0.91
0.83
0.35
0.73
0.58
0.00
0.08
0.03
0.03
0.01
0.03
0.03
0.01
0.05
0.05
0.08
0.10
0.08
0.10
0.13
0.12
0.15
0.17
0.23
0.28
0.28
0.29
0.29
0.33
0.33
0.31
0.33
0.35
0.35
0.35
0.34
0.35
0.32
0.33
0.29
0.20
0.10
0.05
0.00
0.00
0.01
0.01
0.01
0.02
0.01
0.01
0.02
0.02
0.01
0.00
0.00
0.01
0.00
0.00
0.01
0.00
0.00
0.00
0.00
0.00
0.00
0.00
0.01
0.00
0.00
0.00
0.00
0.01
0.01
0.01
0.02
0.02
0.01
0.01
0.01
0.01
0.01
0.01
0.02
0.01
0.01
0.03
0.05
0.08
0.08
0.12
0.15
0.15
0.13
0.15
0.10
0.05
0.00
0.00
0.01
0.02
0.01
0.01
0.02
0.01
0.01
0.01
0.01
0.02
0.00
0.00
0.18
0.13
0.73
0.85
0.86
0.67
0.64
0.68
0.02
0.08
0.05
0.03
0.00
0.00
0.03
0.05
0.05
0.05
0.08
0.08
0.08
0.08
0.10
0.13
0.13
0.17
0.20
0.23
0.25
0.29
0.30
0.33
0.33
0.32
0.32
0.33
0.35
0.35
0.34
0.35
0.35
0.32
0.29
0.28
0.15
0.08
0.05
0.01
0.00
0.00
0.01
0.00
0.02
0.00
0.00
0.00
0.00
0.00
0.00
0.00
0.00
0.00
0.01
0.01
0.01
0.00
0.01
0.01
0.00
0.00
0.01
0.01
0.00
0.00
0.00
0.00
0.00
0.00
0.00
0.00
0.00
0.00
0.00
0.00
0.00
0.00
0.00
0.01
0.05
0.08
0.08
0.08
0.12
0.15
0.20
0.17
0.20
0.15
0.10
0.03
0.01
0.00
0.00
0.00
0.00
0.00
0.01
0.00
0.00
0.00
0.00
0.01
0.01
0.06
0.20
0.73
0.86
0.86
0.67
0.64
0.70
0.01
0.12
0.10
0.08
0.05
0.08
0.08
0.08
0.10
0.10
0.12
0.12
0.13
0.15
0.17
0.20
0.23
0.23
0.28
0.28
0.29
0.33
0.33
0.33
0.31
0.33
0.35
0.35
0.35
0.37
0.42
0.37
0.34
0.33
0.33
0.29
0.23
0.15
0.10
0.08
0.03
0.01
0.01
0.01
0.00
0.01
0.03
0.03
0.03
0.03
0.03
0.03
0.05
0.05
0.08
0.08
0.08
0.08
0.08
0.05
0.05
0.08
0.05
0.08
0.05
0.05
0.05
0.03
0.03
0.03
0.05
0.03
0.05
0.05
0.05
0.05
0.03
0.05
0.08
0.10
0.12
0.12
0.13
0.15
0.20
0.25
0.28
0.25
0.25
0.15
0.12
0.08
0.05
0.03
0.03
0.03
0.03
0.03
0.03
0.03
0.01
0.03
0.05
0.05
0.03
0.01
0.33
0.81
0.91
0.86
0.62
0.68
0.58
0.08
0.12
0.08
0.08
0.08
0.08
0.08
0.10
0.10
0.12
0.12
0.12
0.15
0.17
0.17
0.20
0.23
0.28
0.28
0.29
0.29
0.33
0.33
0.32
0.32
0.35
0.35
0.34
0.42
0.42
0.45
0.42
0.35
0.32
0.33
0.28
0.17
0.10
0.08
0.03
0.00
0.00
0.00
0.00
0.00
0.00
0.00
0.00
0.00
0.00
0.00
0.00
0.00
0.01
0.01
0.01
0.01
0.03
0.01
0.00
0.01
0.03
0.01
0.00
0.00
0.00
0.00
0.00
0.00
0.00
0.00
0.00
0.00
0.00
0.00
0.00
0.00
0.00
0.00
0.01
0.03
0.08
0.08
0.08
0.10
0.15
0.20
0.17
0.15
0.13
0.08
0.03
0.00
0.00
0.01
0.00
0.01
0.01
0.01
0.02
0.02
0.02
0.01
0.00
0.01
0.02
0.10
0.29
0.79
0.88
0.86
0.70
0.61
0.65
0.01
0.05
0.03
0.01
0.01
0.01
0.03
0.03
0.03
0.03
0.08
0.08
0.08
0.10
0.10
0.13
0.15
0.15
0.20
0.23
0.28
0.29
0.30
0.33
0.33
0.33
0.32
0.35
0.35
0.35
0.35
0.35
0.35
0.32
0.33
0.28
0.15
0.08
0.03
0.00
0.00
0.01
0.01
0.01
0.00
0.01
0.01
0.01
0.02
0.01
0.00
0.00
0.00
0.00
0.00
0.00
0.00
0.00
0.00
0.00
0.01
0.00
0.00
0.00
0.01
0.00
0.00
0.00
0.00
0.00
0.00
0.00
0.01
0.01
0.00
0.00
0.01
0.00
0.00
0.00
0.01
0.03
0.05
0.08
0.08
0.10
0.15
0.17
0.17
0.13
0.13
0.08
0.01
0.01
0.00
0.01
0.01
0.02
0.01
0.01
0.01
0.01
0.01
0.01
0.00
0.01
0.02
0.06
0.33
0.81
0.88
0.85
0.50
0.70
0.58
0.01
0.08
0.03
0.01
0.03
0.01
0.03
0.05
0.08
0.08
0.08
0.08
0.10
0.10
0.13
0.15
0.17
0.23
0.23
0.28
0.29
0.29
0.29
0.33
0.31
0.33
0.35
0.35
0.35
0.34
0.34
0.35
0.35
0.31
0.33
0.28
0.17
0.08
0.03
0.00
0.00
0.00
0.00
0.01
0.00
0.01
0.01
0.00
0.00
0.00
0.00
0.00
0.00
0.00
0.00
0.01
0.01
0.01
0.01
0.01
0.01
0.00
0.00
0.00
0.00
0.00
0.00
0.00
0.00
0.01
0.00
0.00
0.00
0.00
0.00
0.00
0.00
0.00
0.00
0.00
0.01
0.05
0.08
0.08
0.08
0.08
0.13
0.17
0.17
0.15
0.13
0.08
0.05
0.00
0.01
0.01
0.01
0.02
0.02
0.02
0.02
0.06
0.06
0.02
0.01
0.01
0.06
0.18
0.28
0.77
0.86
0.85
0.55
0.70
0.62
0.01
0.03
0.00
0.00
0.00
0.01
0.01
0.01
0.01
0.03
0.01
0.03
0.05
0.08
0.10
0.08
0.10
0.13
0.13
0.15
0.20
0.25
0.29
0.29
0.29
0.33
0.33
0.32
0.32
0.33
0.35
0.35
0.32
0.33
0.29
0.17
0.12
0.05
0.00
0.01
0.06
0.06
0.10
0.18
0.10
0.10
0.10
0.10
0.10
0.06
0.10
0.10
0.10
0.02
0.06
0.02
0.02
0.02
0.02
0.02
0.02
0.00
0.00
0.03
0.12
0.20
0.32
0.74
0.81
0.83
0.86
0.91
0.97
0.99
0.94
0.83
0.82
0.81
0.29
0.61
0.69
0.68
0.69
0.69
0.68
0.64
0.64
0.65
0.65
0.69
0.72
0.75
0.77
0.81
0.83
0.84
0.85
0.86
0.88
0.89
0.89
0.90
0.90
0.90
0.89
0.88
0.86
0.82
0.75
0.69
0.61
0.58
0.51
0.40
0.40
0.35
0.35
0.30
0.30
0.40
0.35
0.35
0.40
0.35
0.30
0.18
0.18
0.18
0.18
0.18
0.18
0.18
0.10
0.10
0.10
0.10
0.06
0.10
0.10
0.10
0.06
0.06
0.10
0.06
0.10
0.06
0.06
0.10
0.10
0.06
0.06
0.02
0.06
0.06
0.02
0.06
0.02
0.06
0.02
0.02
0.02
0.02
0.02
0.02
0.02
0.02
0.01
0.00
0.02
0.01
0.01
0.02
0.01
0.01
0.01
0.00
0.01
0.00
0.01
0.01
0.00
0.00
0.00
0.00
0.00
0.00
0.00
0.00
0.00
0.00
0.00
0.00
0.00
0.00
0.00
0.01
0.05
0.08
0.08
0.10
0.10
0.20
0.20
0.17
0.20
0.15
0.13
0.03
0.01
0.01
0.01
0.00
0.00
0.00
0.00
0.00
0.00
0.00
0.00
0.01
0.06
0.29
0.81
0.86
0.83
0.35
0.73
0.62
0.00
0.08
0.05
0.03
0.01
0.03
0.01
0.03
0.05
0.05
0.08
0.08
0.08
0.10
0.08
0.12
0.13
0.15
0.17
0.20
0.23
0.28
0.29
0.29
0.29
0.33
0.33
0.32
0.31
0.31
0.32
0.33
0.32
0.31
0.33
0.33
0.29
0.20
0.12
0.08
0.05
0.05
0.03
0.01
0.01
0.03
0.01
0.01
0.03
0.05
0.03
0.03
0.03
0.05
0.03
0.05
0.05
0.08
0.08
0.05
0.03
0.05
0.03
0.01
0.01
0.01
0.01
0.01
0.00
0.00
0.00
0.00
0.00
0.00
0.00
0.00
0.00
0.00
0.01
0.00
0.03
0.05
0.08
0.08
0.08
0.13
0.13
0.17
0.13
0.17
0.12
0.08
0.01
0.00
0.01
0.01
0.01
0.01
0.00
0.01
0.02
0.01
0.02
0.02
0.00
0.00
0.30
0.15
0.72
0.85
0.88
0.75
0.54
0.70
0.10
0.08
0.03
0.01
0.01
0.00
0.01
0.03
0.03
0.05
0.05
0.08
0.08
0.08
0.10
0.12
0.13
0.17
0.17
0.20
0.25
0.25
0.29
0.29
0.33
0.33
0.32
0.32
0.35
0.35
0.35
0.35
0.35
0.32
0.33
0.28
0.17
0.08
0.03
0.00
0.01
0.02
0.06
0.06
0.06
0.10
0.06
0.02
0.06
0.02
0.06
0.02
0.02
0.02
0.01
0.01
0.01
0.01
0.01
0.01
0.01
0.02
0.02
0.01
0.02
0.02
0.02
0.02
0.06
0.06
0.02
0.02
0.02
0.02
0.02
0.02
0.06
0.02
0.00
0.01
0.03
0.05
0.03
0.08
0.12
0.13
0.12
0.13
0.05
0.03
0.01
0.01
0.06
0.06
0.02
0.02
0.02
0.06
0.06
0.02
0.10
0.02
0.02
0.02
0.35
0.13
0.73
0.86
0.88
0.74
0.56
0.69
0.06
0.03
0.01
0.00
0.00
0.00
0.00
0.01
0.01
0.03
0.03
0.05
0.05
0.08
0.10
0.10
0.12
0.15
0.17
0.20
0.20
0.25
0.29
0.29
0.33
0.33
0.31
0.33
0.35
0.35
0.35
0.35
0.35
0.32
0.33
0.28
0.13
0.08
0.03
0.00
0.00
0.02
0.06
0.02
0.10
0.06
0.02
0.02
0.02
0.02
0.02
0.01
0.02
0.01
0.00
0.00
0.00
0.00
0.00
0.00
0.00
0.00
0.00
0.00
0.00
0.01
0.01
0.01
0.02
0.02
0.01
0.00
0.01
0.01
0.01
0.01
0.02
0.01
0.01
0.03
0.05
0.05
0.08
0.08
0.13
0.13
0.13
0.13
0.08
0.03
0.00
0.00
0.01
0.06
0.02
0.02
0.02
0.01
0.02
0.02
0.02
0.02
0.01
0.00
0.18
0.12
0.62
0.83
0.91
0.76
0.46
0.70
0.06
0.08
0.05
0.03
0.01
0.01
0.03
0.03
0.05
0.08
0.08
0.10
0.08
0.10
0.12
0.13
0.17
0.20
0.20
0.25
0.28
0.29
0.29
0.33
0.32
0.31
0.33
0.35
0.35
0.34
0.35
0.34
0.35
0.31
0.29
0.28
0.15
0.08
0.05
0.03
0.01
0.00
0.00
0.00
0.01
0.00
0.00
0.00
0.00
0.00
0.00
0.01
0.00
0.00
0.01
0.01
0.03
0.01
0.03
0.03
0.03
0.00
0.01
0.01
0.01
0.01
0.00
0.01
0.00
0.00
0.00
0.01
0.00
0.01
0.01
0.01
0.03
0.05
0.08
0.10
0.10
0.15
0.17
0.23
0.15
0.13
0.08
0.05
0.00
0.01
0.00
0.00
0.00
0.01
0.00
0.00
0.00
0.00
0.00
0.00
0.00
0.00
0.10
0.23
0.75
0.85
0.86
0.71
0.61
0.70
0.01
0.10
0.08
0.05
0.03
0.05
0.05
0.08
0.08
0.08
0.10
0.10
0.10
0.13
0.12
0.15
0.17
0.20
0.25
0.28
0.29
0.30
0.29
0.33
0.33
0.32
0.33
0.35
0.35
0.35
0.35
0.35
0.33
0.33
0.29
0.25
0.12
0.08
0.01
0.00
0.00
0.01
0.01
0.01
0.01
0.02
0.01
0.01
0.00
0.00
0.01
0.00
0.00
0.00
0.00
0.00
0.00
0.00
0.00
0.01
0.00
0.00
0.00
0.01
0.00
0.00
0.01
0.00
0.01
0.01
0.01
0.02
0.01
0.01
0.02
0.00
0.00
0.03
0.03
0.05
0.08
0.12
0.13
0.15
0.12
0.12
0.05
0.00
0.00
0.01
0.02
0.02
0.02
0.02
0.06
0.06
0.02
0.02
0.02
0.01
0.01
0.10
0.02
0.33
0.83
0.89
0.83
0.20
0.76
0.58
0.01
0.03
0.01
0.01
0.01
0.01
0.01
0.05
0.03
0.03
0.08
0.08
0.10
0.10
0.12
0.13
0.12
0.15
0.20
0.25
0.29
0.29
0.29
0.33
0.33
0.32
0.32
0.35
0.35
0.35
0.35
0.35
0.32
0.33
0.29
0.20
0.10
0.05
0.00
0.01
0.01
0.06
0.02
0.02
0.02
0.02
0.02
0.02
0.02
0.01
0.01
0.01
0.00
0.00
0.00
0.00
0.00
0.00
0.00
0.00
0.00
0.00
0.00
0.00
0.00
0.01
0.00
0.01
0.01
0.01
0.01
0.01
0.01
0.02
0.01
0.01
0.01
0.00
0.00
0.03
0.05
0.05
0.08
0.08
0.13
0.17
0.13
0.15
0.10
0.05
0.00
0.00
0.01
0.01
0.01
0.01
0.02
0.02
0.02
0.01
0.01
0.01
0.00
0.00
0.10
0.00
0.37
0.84
0.96
0.81
0.13
0.75
0.40
0.05
0.05
0.03
0.03
0.03
0.03
0.05
0.01
0.05
0.08
0.08
0.10
0.10
0.12
0.13
0.12
0.15
0.20
0.23
0.28
0.29
0.30
0.33
0.33
0.32
0.32
0.35
0.35
0.35
0.35
0.37
0.35
0.33
0.32
0.30
0.23
0.13
0.08
0.01
0.00
0.02
0.01
0.02
0.06
0.02
0.02
0.02
0.01
0.02
0.02
0.01
0.01
0.00
0.01
0.00
0.00
0.00
0.00
0.00
0.00
0.00
0.00
0.00
0.00
0.02
0.01
0.01
0.01
0.01
0.02
0.01
0.01
0.02
0.01
0.01
0.02
0.01
0.01
0.01
0.01
0.00
0.01
0.05
0.05
0.08
0.08
0.13
0.15
0.13
0.13
0.12
0.05
0.03
0.00
0.01
0.02
0.06
0.02
0.02
0.02
0.02
0.02
0.02
0.02
0.01
0.01
0.00
0.18
0.17
0.75
0.86
0.92
0.78
0.35
0.70
0.18
0.03
0.03
0.01
0.00
0.00
0.01
0.03
0.03
0.03
0.05
0.08
0.08
0.08
0.10
0.10
0.12
0.13
0.15
0.20
0.23
0.25
0.29
0.29
0.33
0.33
0.31
0.32
0.35
0.35
0.35
0.34
0.35
0.31
0.30
0.25
0.12
0.05
0.00
0.01
0.02
0.06
0.18
0.10
0.18
0.18
0.10
0.10
0.10
0.10
0.10
0.10
0.10
0.10
0.06
0.02
0.02
0.06
0.02
0.06
0.10
0.10
0.10
0.06
0.10
0.10
0.10
0.10
0.18
0.18
0.18
0.10
0.18
0.18
0.18
0.10
0.18
0.30
0.18
0.10
0.18
0.10
0.02
0.00
0.00
0.00
0.00
0.05
0.10
0.08
0.08
0.08
0.01
0.02
0.10
0.18
0.18
0.30
0.30
0.30
0.35
0.35
0.30
0.30
0.30
0.30
0.30
0.18
0.35
0.46
0.23
0.77
0.86
0.85
0.55
0.70
0.68
0.18
0.01
0.02
0.06
0.06
0.06
0.02
0.02
0.02
0.01
0.00
0.00
0.01
0.01
0.03
0.05
0.05
0.08
0.10
0.12
0.15
0.17
0.23
0.28
0.29
0.29
0.33
0.33
0.31
0.32
0.33
0.33
0.32
0.33
0.29
0.17
0.10
0.01
0.01
0.06
0.18
0.18
0.18
0.30
0.30
0.30
0.18
0.30
0.35
0.30
0.18
0.18
0.18
0.10
0.10
0.06
0.10
0.06
0.06
0.10
0.06
0.10
0.10
0.10
0.10
0.10
0.10
0.10
0.10
0.18
0.10
0.30
0.18
0.10
0.10
0.10
0.18
0.10
0.06
0.18
0.06
0.02
0.00
0.00
0.00
0.00
0.03
0.10
0.08
0.10
0.12
0.08
0.00
0.02
0.02
0.10
0.10
0.10
0.10
0.06
0.10
0.10
0.10
0.10
0.06
0.06
0.02
0.06
0.35
0.23
0.74
0.85
0.86
0.62
0.68
0.70
0.10
0.03
0.01
0.00
0.01
0.00
0.00
0.00
0.01
0.03
0.05
0.05
0.05
0.08
0.08
0.10
0.12
0.13
0.15
0.17
0.23
0.28
0.29
0.30
0.33
0.33
0.31
0.31
0.33
0.35
0.35
0.35
0.33
0.33
0.29
0.23
0.12
0.08
0.00
0.00
0.02
0.02
0.02
0.06
0.10
0.06
0.02
0.02
0.06
0.02
0.01
0.02
0.02
0.01
0.01
0.01
0.01
0.01
0.00
0.00
0.01
0.01
0.01
0.01
0.01
0.02
0.01
0.02
0.06
0.02
0.02
0.02
0.02
0.02
0.02
0.02
0.06
0.02
0.02
0.02
0.01
0.00
0.00
0.01
0.03
0.03
0.05
0.12
0.15
0.12
0.12
0.12
0.03
0.01
0.01
0.01
0.02
0.02
0.06
0.02
0.10
0.10
0.02
0.06
0.01
0.02
0.02
0.01
0.35
0.17
0.75
0.87
0.86
0.66
0.64
0.65
0.02
0.05
0.03
0.00
0.01
0.01
0.01
0.03
0.01
0.05
0.05
0.08
0.08
0.08
0.10
0.12
0.13
0.15
0.20
0.23
0.25
0.29
0.30
0.29
0.33
0.32
0.32
0.35
0.35
0.35
0.35
0.33
0.31
0.33
0.28
0.15
0.08
0.03
0.00
0.02
0.02
0.02
0.02
0.02
0.06
0.02
0.02
0.06
0.02
0.01
0.01
0.01
0.01
0.00
0.00
0.00
0.00
0.00
0.00
0.00
0.00
0.00
0.00
0.00
0.01
0.00
0.00
0.01
0.01
0.01
0.01
0.02
0.01
0.01
0.01
0.00
0.01
0.01
0.00
0.01
0.01
0.00
0.00
0.03
0.05
0.08
0.08
0.08
0.15
0.15
0.13
0.15
0.10
0.05
0.00
0.02
0.01
0.01
0.01
0.01
0.02
0.02
0.01
0.02
0.01
0.01
0.00
0.00
0.02
0.02
0.33
0.81
0.89
0.86
0.62
0.68
0.61
0.00
0.05
0.03
0.01
0.01
0.03
0.03
0.05
0.05
0.05
0.05
0.08
0.10
0.12
0.13
0.15
0.15
0.20
0.20
0.25
0.29
0.30
0.33
0.33
0.32
0.32
0.33
0.35
0.35
0.37
0.42
0.37
0.35
0.32
0.33
0.25
0.17
0.10
0.03
0.01
0.00
0.01
0.01
0.06
0.02
0.01
0.01
0.01
0.02
0.01
0.00
0.01
0.01
0.00
0.00
0.00
0.00
0.00
0.00
0.00
0.00
0.00
0.00
0.01
0.00
0.00
0.00
0.01
0.00
0.00
0.00
0.00
0.00
0.00
0.00
0.01
0.01
0.01
0.00
0.00
0.00
0.00
0.00
0.00
0.03
0.08
0.08
0.10
0.10
0.15
0.20
0.17
0.20
0.17
0.10
0.08
0.01
0.01
0.00
0.01
0.00
0.00
0.00
0.00
0.00
0.00
0.00
0.00
0.01
0.00
0.06
0.30
0.81
0.89
0.86
0.58
0.69
0.54
0.05
0.08
0.05
0.05
0.03
0.05
0.08
0.08
0.10
0.08
0.10
0.12
0.12
0.13
0.15
0.17
0.20
0.23
0.25
0.28
0.29
0.29
0.33
0.33
0.32
0.33
0.35
0.35
0.37
0.37
0.45
0.45
0.37
0.34
0.32
0.33
0.29
0.15
0.10
0.08
0.03
0.03
0.00
0.00
0.00
0.00
0.00
0.00
0.00
0.01
0.00
0.00
0.01
0.00
0.01
0.01
0.03
0.03
0.03
0.03
0.03
0.01
0.03
0.03
0.01
0.03
0.01
0.01
0.01
0.00
0.00
0.00
0.01
0.01
0.00
0.00
0.01
0.00
0.01
0.00
0.01
0.01
0.01
0.03
0.08
0.08
0.10
0.10
0.13
0.20
0.20
0.20
0.17
0.12
0.10
0.03
0.03
0.00
0.00
0.00
0.01
0.00
0.00
0.00
0.00
0.00
0.00
0.00
0.00
0.02
0.01
0.35
0.83
0.91
0.83
0.33
0.72
0.51
0.05
0.08
0.05
0.03
0.03
0.05
0.03
0.05
0.08
0.08
0.08
0.08
0.10
0.12
0.12
0.13
0.17
0.20
0.23
0.25
0.29
0.30
0.30
0.33
0.33
0.32
0.35
0.35
0.34
0.35
0.34
0.34
0.35
0.32
0.29
0.23
0.13
0.08
0.00
0.00
0.00
0.01
0.00
0.01
0.01
0.01
0.02
0.01
0.00
0.00
0.00
0.00
0.00
0.00
0.00
0.00
0.00
0.00
0.00
0.00
0.00
0.00
0.01
0.00
0.00
0.00
0.00
0.01
0.00
0.00
0.02
0.02
0.01
0.00
0.00
0.01
0.00
0.00
0.02
0.01
0.00
0.00
0.03
0.03
0.08
0.08
0.08
0.12
0.17
0.17
0.17
0.13
0.10
0.08
0.00
0.00
0.00
0.00
0.01
0.01
0.02
0.01
0.01
0.02
0.01
0.00
0.00
0.00
0.01
0.06
0.29
0.81
0.86
0.83
0.35
0.72
0.64
0.01
0.08
0.05
0.03
0.03
0.05
0.08
0.03
0.05
0.08
0.08
0.08
0.10
0.12
0.13
0.13
0.13
0.17
0.20
0.23
0.28
0.29
0.29
0.29
0.33
0.33
0.31
0.32
0.35
0.35
0.34
0.34
0.35
0.35
0.33
0.29
0.25
0.13
0.08
0.03
0.01
0.00
0.01
0.01
0.00
0.00
0.00
0.00
0.00
0.00
0.00
0.00
0.00
0.00
0.01
0.01
0.01
0.03
0.01
0.01
0.01
0.01
0.01
0.00
0.00
0.00
0.00
0.00
0.00
0.00
0.00
0.00
0.00
0.01
0.00
0.00
0.00
0.00
0.00
0.00
0.03
0.03
0.05
0.08
0.08
0.12
0.17
0.17
0.15
0.15
0.10
0.08
0.01
0.00
0.00
0.01
0.00
0.01
0.02
0.01
0.00
0.00
0.00
0.00
0.00
0.00
0.06
0.00
0.33
0.83
0.89
0.82
0.28
0.76
0.58
0.05
0.08
0.05
0.03
0.03
0.05
0.05
0.05
0.08
0.08
0.08
0.10
0.10
0.12
0.12
0.13
0.17
0.23
0.25
0.25
0.29
0.30
0.30
0.33
0.32
0.32
0.35
0.35
0.35
0.34
0.35
0.35
0.33
0.33
0.30
0.20
0.12
0.08
0.00
0.00
0.01
0.01
0.01
0.02
0.02
0.01
0.06
0.01
0.01
0.01
0.00
0.00
0.00
0.00
0.00
0.00
0.00
0.00
0.00
0.00
0.00
0.00
0.00
0.00
0.00
0.00
0.00
0.00
0.00
0.00
0.00
0.02
0.01
0.01
0.00
0.00
0.01
0.01
0.00
0.01
0.01
0.01
0.00
0.03
0.03
0.05
0.08
0.05
0.12
0.15
0.15
0.15
0.10
0.08
0.01
0.01
0.02
0.02
0.06
0.02
0.02
0.06
0.06
0.10
0.06
0.02
0.02
0.01
0.06
0.18
0.29
0.78
0.86
0.86
0.71
0.61
0.64
0.01
0.01
0.00
0.00
0.00
0.00
0.00
0.00
0.01
0.00
0.01
0.03
0.05
0.08
0.08
0.08
0.12
0.12
0.13
0.17
0.23
0.28
0.29
0.29
0.33
0.33
0.31
0.35
0.35
0.35
0.35
0.35
0.32
0.30
0.23
0.12
0.05
0.00
0.02
0.10
0.10
0.30
0.30
0.30
0.18
0.18
0.18
0.30
0.18
0.30
0.30
0.18
0.10
0.18
0.10
0.10
0.06
0.06
0.10
0.10
0.06
0.06
0.06
0.10
0.10
0.10
0.18
0.10
0.10
0.10
0.10
0.18
0.18
0.10
0.30
0.18
0.18
0.10
0.10
0.18
0.18
0.18
0.18
0.02
0.01
0.00
0.01
0.01
0.01
0.08
0.08
0.08
0.10
0.05
0.03
0.02
0.10
0.10
0.30
0.18
0.18
0.18
0.18
0.30
0.30
0.18
0.30
0.18
0.06
0.40
0.06
0.33
0.82
0.91
0.81
0.13
0.78
0.53
0.00
0.00
0.01
0.02
0.02
0.01
0.00
0.00
0.00
0.00
0.01
0.00
0.03
0.05
0.08
0.10
0.10
0.13
0.15
0.15
0.23
0.25
0.29
0.29
0.33
0.33
0.31
0.32
0.35
0.35
0.35
0.35
0.32
0.33
0.29
0.17
0.08
0.03
0.00
0.02
0.06
0.10
0.18
0.10
0.18
0.10
0.10
0.18
0.10
0.10
0.06
0.06
0.10
0.10
0.02
0.02
0.02
0.02
0.02
0.01
0.06
0.06
0.02
0.02
0.02
0.06
0.06
0.06
0.10
0.06
0.06
0.06
0.02
0.06
0.06
0.06
0.10
0.06
0.06
0.06
0.02
0.06
0.02
0.00
0.00
0.01
0.03
0.03
0.10
0.12
0.12
0.12
0.10
0.05
0.01
0.01
0.02
0.06
0.06
0.10
0.10
0.10
0.06
0.06
0.10
0.06
0.02
0.06
0.06
0.35
0.15
0.69
0.83
0.91
0.78
0.35
0.75
0.46
0.01
0.01
0.00
0.00
0.00
0.00
0.00
0.01
0.01
0.01
0.03
0.08
0.08
0.08
0.08
0.12
0.13
0.13
0.17
0.20
0.25
0.28
0.29
0.29
0.33
0.33
0.31
0.33
0.35
0.35
0.35
0.35
0.32
0.33
0.28
0.15
0.10
0.01
0.00
0.02
0.06
0.06
0.06
0.06
0.06
0.06
0.10
0.06
0.02
0.02
0.06
0.02
0.02
0.02
0.01
0.01
0.00
0.00
0.01
0.00
0.01
0.02
0.02
0.02
0.01
0.01
0.01
0.02
0.02
0.06
0.06
0.06
0.02
0.02
0.06
0.02
0.02
0.06
0.02
0.01
0.00
0.01
0.03
0.05
0.08
0.10
0.12
0.13
0.13
0.13
0.08
0.01
0.00
0.02
0.02
0.02
0.01
0.02
0.02
0.02
0.02
0.06
0.02
0.02
0.01
0.01
0.18
0.05
0.50
0.83
0.86
0.77
0.18
0.75
0.47
0.03
0.05
0.01
0.00
0.01
0.01
0.01
0.03
0.03
0.05
0.05
0.08
0.08
0.10
0.10
0.13
0.13
0.15
0.17
0.17
0.25
0.29
0.30
0.33
0.33
0.32
0.31
0.32
0.35
0.35
0.35
0.35
0.33
0.33
0.29
0.20
0.12
0.08
0.01
0.00
0.01
0.01
0.02
0.02
0.02
0.01
0.01
0.00
0.01
0.00
0.01
0.01
0.00
0.00
0.00
0.00
0.00
0.00
0.00
0.00
0.00
0.00
0.00
0.00
0.00
0.00
0.01
0.02
0.01
0.00
0.01
0.00
0.01
0.00
0.02
0.01
0.01
0.00
0.01
0.03
0.05
0.08
0.05
0.10
0.15
0.17
0.15
0.15
0.10
0.08
0.00
0.00
0.00
0.01
0.01
0.01
0.02
0.01
0.02
0.02
0.01
0.01
0.01
0.00
0.02
0.18
0.29
0.81
0.86
0.85
0.55
0.70
0.65
0.00
0.08
0.03
0.03
0.01
0.03
0.05
0.05
0.05
0.08
0.08
0.08
0.10
0.12
0.13
0.13
0.15
0.15
0.17
0.23
0.28
0.29
0.29
0.29
0.33
0.32
0.31
0.33
0.35
0.35
0.35
0.34
0.35
0.32
0.33
0.29
0.20
0.12
0.08
0.01
0.00
0.00
0.02
0.01
0.00
0.00
0.00
0.00
0.00
0.00
0.00
0.00
0.00
0.00
0.01
0.01
0.01
0.01
0.00
0.01
0.01
0.01
0.01
0.01
0.01
0.00
0.00
0.00
0.00
0.00
0.00
0.00
0.00
0.00
0.00
0.00
0.00
0.01
0.03
0.08
0.08
0.08
0.08
0.13
0.20
0.20
0.17
0.17
0.13
0.08
0.01
0.01
0.00
0.01
0.00
0.00
0.00
0.00
0.00
0.00
0.00
0.01
0.01
0.01
0.02
0.08
0.55
0.83
0.96
0.82
0.15
0.70
0.10
0.08
0.08
0.08
0.08
0.08
0.08
0.08
0.10
0.08
0.10
0.12
0.15
0.15
0.15
0.17
0.20
0.20
0.25
0.29
0.30
0.33
0.33
0.33
0.32
0.32
0.35
0.35
0.42
0.50
0.50
0.55
0.45
0.34
0.32
0.33
0.28
0.17
0.10
0.05
0.03
0.00
0.00
0.00
0.00
0.00
0.00
0.00
0.00
0.01
0.00
0.00
0.01
0.01
0.01
0.01
0.03
0.00
0.01
0.01
0.03
0.03
0.01
0.01
0.01
0.00
0.00
0.00
0.00
0.01
0.00
0.00
0.00
0.00
0.00
0.00
0.00
0.01
0.00
0.00
0.05
0.05
0.08
0.08
0.10
0.15
0.17
0.20
0.17
0.15
0.12
0.08
0.03
0.01
0.00
0.00
0.00
0.01
0.01
0.00
0.00
0.00
0.00
0.00
0.00
0.00
0.01
0.10
0.20
0.74
0.86
0.94
0.77
0.30
0.70
0.10
0.08
0.05
0.03
0.01
0.01
0.03
0.01
0.05
0.05
0.08
0.08
0.08
0.10
0.12
0.10
0.13
0.17
0.20
0.23
0.25
0.28
0.29
0.30
0.33
0.33
0.32
0.35
0.35
0.34
0.37
0.34
0.34
0.33
0.33
0.29
0.20
0.12
0.05
0.00
0.00
0.01
0.02
0.01
0.02
0.02
0.02
0.06
0.02
0.02
0.02
0.01
0.01
0.01
0.00
0.01
0.00
0.00
0.00
0.00
0.00
0.00
0.00
0.01
0.01
0.01
0.01
0.00
0.01
0.02
0.02
0.06
0.02
0.01
0.02
0.01
0.01
0.01
0.01
0.02
0.00
0.01
0.03
0.08
0.08
0.10
0.13
0.13
0.13
0.13
0.08
0.05
0.00
0.01
0.02
0.02
0.02
0.02
0.06
0.06
0.06
0.02
0.06
0.02
0.02
0.00
0.18
0.01
0.35
0.84
0.89
0.81
0.13
0.75
0.51
0.03
0.08
0.03
0.01
0.00
0.03
0.03
0.03
0.05
0.05
0.08
0.08
0.08
0.10
0.12
0.13
0.15
0.17
0.20
0.25
0.25
0.29
0.29
0.33
0.33
0.32
0.32
0.35
0.35
0.34
0.35
0.34
0.35
0.32
0.29
0.25
0.13
0.08
0.05
0.00
0.00
0.00
0.00
0.01
0.02
0.01
0.00
0.00
0.00
0.00
0.00
0.00
0.00
0.00
0.01
0.01
0.00
0.00
0.01
0.00
0.00
0.00
0.00
0.00
0.00
0.00
0.00
0.00
0.00
0.00
0.00
0.00
0.00
0.00
0.00
0.00
0.00
0.00
0.00
0.03
0.05
0.08
0.08
0.08
0.12
0.17
0.17
0.15
0.15
0.10
0.08
0.00
0.00
0.00
0.00
0.01
0.02
0.01
0.00
0.02
0.02
0.00
0.00
0.00
0.00
0.18
0.17
0.72
0.85
0.85
0.56
0.68
0.69
0.02
0.08
0.05
0.05
0.03
0.05
0.05
0.05
0.05
0.08
0.08
0.08
0.10
0.12
0.12
0.13
0.15
0.20
0.20
0.23
0.29
0.29
0.30
0.33
0.33
0.32
0.31
0.33
0.35
0.35
0.34
0.35
0.34
0.35
0.33
0.29
0.23
0.13
0.08
0.03
0.00
0.00
0.01
0.01
0.01
0.01
0.01
0.01
0.01
0.00
0.01
0.01
0.00
0.00
0.00
0.00
0.00
0.00
0.00
0.00
0.00
0.01
0.00
0.00
0.00
0.00
0.00
0.01
0.00
0.01
0.01
0.00
0.01
0.01
0.00
0.02
0.01
0.00
0.01
0.03
0.05
0.05
0.08
0.12
0.13
0.13
0.13
0.08
0.05
0.00
0.02
0.02
0.06
0.06
0.06
0.02
0.10
0.10
0.06
0.10
0.06
0.02
0.02
0.35
0.00
0.34
0.84
0.89
0.79
0.06
0.77
0.51
0.01
0.01
0.01
0.01
0.00
0.00
0.01
0.01
0.01
0.05
0.03
0.05
0.05
0.10
0.08
0.12
0.12
0.15
0.15
0.20
0.25
0.28
0.30
0.29
0.33
0.33
0.31
0.33
0.35
0.35
0.35
0.35
0.31
0.33
0.25
0.13
0.08
0.01
0.01
0.02
0.10
0.10
0.30
0.18
0.10
0.10
0.06
0.10
0.10
0.06
0.10
0.10
0.06
0.02
0.02
0.02
0.02
0.01
0.02
0.02
0.02
0.02
0.02
0.02
0.06
0.02
0.10
0.06
0.06
0.06
0.06
0.02
0.06
0.06
0.06
0.06
0.06
0.01
0.00
0.00
0.01
0.03
0.03
0.08
0.10
0.10
0.12
0.08
0.01
0.01
0.10
0.10
0.10
0.10
0.10
0.18
0.18
0.10
0.18
0.10
0.06
0.02
0.02
0.30
0.10
0.33
0.82
0.92
0.83
0.29
0.76
0.53
0.00
0.01
0.02
0.01
0.00
0.00
0.01
0.00
0.00
0.01
0.01
0.05
0.08
0.08
0.10
0.10
0.12
0.15
0.15
0.20
0.25
0.29
0.30
0.33
0.33
0.31
0.32
0.35
0.34
0.37
0.37
0.34
0.33
0.33
0.28
0.17
0.10
0.03
0.00
0.02
0.06
0.06
0.18
0.10
0.10
0.06
0.06
0.10
0.06
0.06
0.06
0.06
0.02
0.02
0.01
0.01
0.01
0.01
0.01
0.02
0.01
0.01
0.01
0.01
0.01
0.02
0.02
0.02
0.01
0.02
0.02
0.01
0.02
0.02
0.02
0.02
0.02
0.01
0.00
0.03
0.03
0.05
0.05
0.08
0.12
0.13
0.12
0.13
0.08
0.03
0.00
0.02
0.02
0.02
0.06
0.06
0.06
0.06
0.06
0.10
0.02
0.02
0.02
0.01
0.30
0.01
0.50
0.83
0.94
0.81
0.00
0.73
0.46
0.01
0.03
0.00
0.00
0.00
0.00
0.00
0.01
0.01
0.03
0.03
0.05
0.08
0.08
0.10
0.12
0.12
0.15
0.17
0.20
0.25
0.29
0.30
0.33
0.33
0.32
0.32
0.35
0.34
0.35
0.34
0.35
0.31
0.30
0.25
0.13
0.08
0.01
0.00
0.02
0.06
0.10
0.10
0.10
0.06
0.06
0.06
0.06
0.06
0.06
0.10
0.06
0.02
0.01
0.02
0.02
0.01
0.02
0.01
0.02
0.02
0.02
0.02
0.02
0.02
0.10
0.06
0.02
0.02
0.02
0.06
0.02
0.02
0.06
0.06
0.02
0.00
0.00
0.03
0.01
0.05
0.10
0.10
0.12
0.12
0.10
0.03
0.00
0.01
0.10
0.10
0.06
0.06
0.06
0.06
0.06
0.06
0.10
0.10
0.02
0.01
0.06
0.18
0.28
0.78
0.86
0.83
0.35
0.73
0.62
0.00
0.03
0.01
0.00
0.00
0.00
0.01
0.01
0.01
0.01
0.05
0.03
0.05
0.08
0.10
0.12
0.12
0.15
0.17
0.17
0.23
0.28
0.29
0.33
0.33
0.33
0.32
0.32
0.35
0.35
0.34
0.35
0.35
0.32
0.30
0.23
0.12
0.08
0.03
0.00
0.00
0.06
0.06
0.02
0.06
0.02
0.02
0.02
0.01
0.02
0.01
0.01
0.02
0.01
0.01
0.01
0.00
0.00
0.00
0.00
0.00
0.00
0.00
0.01
0.00
0.01
0.01
0.01
0.02
0.01
0.02
0.01
0.01
0.01
0.02
0.01
0.00
0.01
0.05
0.08
0.08
0.12
0.13
0.12
0.12
0.10
0.08
0.03
0.00
0.02
0.02
0.10
0.06
0.06
0.02
0.02
0.02
0.06
0.02
0.02
0.01
0.10
0.02
0.33
0.81
0.86
0.83
0.33
0.77
0.64
0.00
0.08
0.03
0.01
0.03
0.01
0.03
0.05
0.05
0.08
0.08
0.08
0.08
0.08
0.12
0.13
0.15
0.17
0.20
0.23
0.28
0.29
0.29
0.33
0.33
0.31
0.32
0.35
0.35
0.35
0.34
0.34
0.35
0.32
0.29
0.25
0.15
0.08
0.01
0.00
0.00
0.00
0.01
0.01
0.00
0.01
0.01
0.01
0.00
0.00
0.00
0.00
0.00
0.00
0.00
0.01
0.01
0.01
0.01
0.00
0.01
0.00
0.00
0.01
0.01
0.01
0.00
0.00
0.00
0.00
0.00
0.00
0.01
0.01
0.00
0.01
0.05
0.03
0.08
0.10
0.10
0.15
0.17
0.17
0.17
0.15
0.12
0.08
0.01
0.00
0.00
0.00
0.00
0.00
0.01
0.00
0.00
0.00
0.00
0.00
0.00
0.01
0.06
0.01
0.35
0.81
0.91
0.85
0.50
0.70
0.60
0.03
0.10
0.08
0.08
0.05
0.05
0.08
0.08
0.08
0.08
0.10
0.13
0.12
0.13
0.15
0.15
0.20
0.23
0.28
0.29
0.29
0.29
0.33
0.33
0.32
0.35
0.34
0.37
0.42
0.50
0.55
0.42
0.35
0.32
0.30
0.23
0.12
0.08
0.03
0.00
0.00
0.00
0.00
0.01
0.00
0.00
0.01
0.01
0.00
0.00
0.00
0.00
0.00
0.00
0.00
0.00
0.01
0.01
0.01
0.00
0.00
0.00
0.00
0.00
0.00
0.00
0.00
0.00
0.00
0.00
0.01
0.00
0.00
0.00
0.00
0.00
0.01
0.05
0.03
0.08
0.08
0.12
0.15
0.17
0.15
0.15
0.10
0.08
0.01
0.00
0.00
0.01
0.01
0.01
0.06
0.02
0.01
0.01
0.01
0.01
0.01
0.00
0.30
0.05
0.56
0.83
0.96
0.81
0.01
0.72
0.35
0.05
0.05
0.01
0.01
0.01
0.01
0.03
0.01
0.05
0.05
0.08
0.08
0.10
0.10
0.12
0.13
0.15
0.17
0.20
0.25
0.28
0.30
0.33
0.33
0.33
0.32
0.35
0.35
0.35
0.37
0.42
0.37
0.35
0.32
0.30
0.23
0.13
0.05
0.01
0.00
0.02
0.02
0.02
0.02
0.02
0.02
0.02
0.02
0.02
0.02
0.01
0.01
0.00
0.01
0.00
0.00
0.01
0.00
0.00
0.00
0.00
0.00
0.00
0.01
0.00
0.00
0.00
0.01
0.01
0.00
0.01
0.01
0.01
0.00
0.00
0.00
0.00
0.01
0.05
0.03
0.08
0.08
0.10
0.13
0.17
0.13
0.15
0.08
0.05
0.00
0.00
0.00
0.01
0.01
0.01
0.02
0.02
0.01
0.01
0.01
0.01
0.00
0.00
0.10
0.00
0.35
0.84
0.94
0.82
0.15
0.73
0.46
0.05
0.08
0.05
0.03
0.03
0.03
0.05
0.03
0.05
0.08
0.08
0.12
0.10
0.10
0.13
0.13
0.15
0.17
0.25
0.29
0.29
0.29
0.33
0.33
0.33
0.32
0.35
0.35
0.35
0.37
0.42
0.37
0.35
0.31
0.33
0.28
0.17
0.08
0.05
0.01
0.00
0.00
0.00
0.01
0.00
0.01
0.01
0.01
0.01
0.00
0.00
0.00
0.00
0.00
0.00
0.00
0.00
0.00
0.01
0.00
0.00
0.00
0.01
0.00
0.00
0.00
0.00
0.00
0.00
0.00
0.00
0.01
0.01
0.00
0.00
0.00
0.01
0.05
0.05
0.08
0.08
0.10
0.17
0.20
0.15
0.17
0.12
0.08
0.01
0.00
0.00
0.00
0.01
0.01
0.01
0.02
0.02
0.01
0.01
0.00
0.00
0.00
0.10
0.00
0.32
0.82
0.89
0.83
0.33
0.75
0.60
0.01
0.08
0.05
0.03
0.03
0.05
0.05
0.05
0.08
0.08
0.08
0.10
0.10
0.12
0.13
0.13
0.15
0.15
0.20
0.25
0.28
0.29
0.29
0.33
0.33
0.32
0.32
0.35
0.35
0.35
0.34
0.34
0.35
0.32
0.29
0.28
0.15
0.10
0.01
0.00
0.00
0.02
0.02
0.02
0.02
0.02
0.02
0.02
0.02
0.02
0.01
0.00
0.00
0.01
0.00
0.00
0.01
0.01
0.00
0.00
0.00
0.00
0.00
0.00
0.02
0.02
0.01
0.01
0.01
0.02
0.02
0.02
0.06
0.02
0.02
0.01
0.00
0.00
0.01
0.05
0.03
0.05
0.12
0.13
0.13
0.12
0.10
0.08
0.00
0.02
0.02
0.06
0.06
0.06
0.10
0.10
0.10
0.18
0.06
0.06
0.02
0.06
0.06
0.35
0.08
0.58
0.84
0.88
0.75
0.54
0.75
0.46
0.03
0.00
0.00
0.00
0.00
0.00
0.00
0.00
0.01
0.01
0.03
0.05
0.08
0.08
0.08
0.10
0.10
0.12
0.15
0.20
0.25
0.28
0.30
0.29
0.33
0.33
0.32
0.33
0.35
0.35
0.35
0.33
0.33
0.29
0.17
0.10
0.03
0.01
0.02
0.06
0.18
0.18
0.18
0.18
0.10
0.10
0.10
0.10
0.18
0.10
0.06
0.06
0.02
0.06
0.06
0.06
0.06
0.06
0.06
0.02
0.02
0.06
0.06
0.02
0.10
0.10
0.10
0.06
0.06
0.10
0.10
0.10
0.18
0.10
0.10
0.10
0.10
0.10
0.10
0.06
0.02
0.00
0.00
0.01
0.01
0.08
0.08
0.10
0.08
0.08
0.03
0.01
0.06
0.06
0.10
0.18
0.18
0.30
0.30
0.30
0.18
0.18
0.18
0.18
0.10
0.18
0.30
0.35
0.29
0.81
0.87
0.85
0.56
0.70
0.64
0.02
0.00
0.00
0.01
0.00
0.01
0.01
0.00
0.00
0.01
0.03
0.03
0.05
0.08
0.08
0.08
0.10
0.12
0.15
0.17
0.23
0.25
0.28
0.30
0.33
0.33
0.32
0.33
0.35
0.34
0.34
0.35
0.35
0.33
0.29
0.17
0.10
0.03
0.01
0.02
0.02
0.10
0.10
0.18
0.10
0.10
0.18
0.10
0.06
0.06
0.06
0.06
0.02
0.06
0.02
0.02
0.01
0.01
0.01
0.02
0.01
0.06
0.02
0.02
0.02
0.02
0.06
0.02
0.02
0.10
0.06
0.06
0.02
0.06
0.06
0.02
0.06
0.06
0.06
0.02
0.02
0.02
0.01
0.02
0.02
0.02
0.00
0.03
0.03
0.08
0.08
0.08
0.15
0.15
0.10
0.10
0.08
0.03
0.00
0.01
0.02
0.02
0.02
0.02
0.02
0.02
0.02
0.06
0.02
0.01
0.01
0.01
0.06
0.01
0.32
0.82
0.91
0.84
0.32
0.75
0.56
0.01
0.05
0.01
0.00
0.00
0.00
0.01
0.03
0.03
0.05
0.05
0.05
0.08
0.08
0.10
0.12
0.13
0.15
0.17
0.23
0.23
0.28
0.29
0.33
0.33
0.33
0.31
0.35
0.35
0.35
0.34
0.34
0.35
0.32
0.29
0.23
0.12
0.05
0.01
0.00
0.01
0.02
0.02
0.02
0.10
0.06
0.02
0.02
0.01
0.02
0.02
0.01
0.02
0.02
0.01
0.00
0.00
0.01
0.01
0.01
0.02
0.02
0.01
0.02
0.02
0.02
0.02
0.02
0.06
0.06
0.02
0.02
0.02
0.02
0.02
0.06
0.02
0.06
0.02
0.01
0.02
0.02
0.01
0.00
0.00
0.01
0.03
0.08
0.05
0.12
0.15
0.13
0.10
0.05
0.01
0.00
0.01
0.02
0.02
0.02
0.02
0.06
0.06
0.02
0.06
0.02
0.02
0.02
0.01
0.02
0.10
0.06
0.33
0.83
0.91
0.81
0.13
0.75
0.51
0.03
0.03
0.01
0.01
0.00
0.01
0.01
0.03
0.05
0.05
0.08
0.08
0.08
0.10
0.08
0.13
0.15
0.15
0.20
0.23
0.25
0.29
0.29
0.33
0.33
0.32
0.32
0.33
0.35
0.35
0.35
0.35
0.35
0.33
0.30
0.25
0.13
0.08
0.00
0.00
0.00
0.01
0.02
0.02
0.02
0.02
0.06
0.02
0.02
0.01
0.00
0.00
0.00
0.00
0.01
0.00
0.00
0.00
0.00
0.00
0.00
0.00
0.01
0.00
0.00
0.00
0.00
0.00
0.01
0.01
0.02
0.01
0.00
0.01
0.01
0.00
0.00
0.00
0.01
0.03
0.05
0.08
0.08
0.13
0.15
0.15
0.15
0.15
0.10
0.05
0.00
0.00
0.00
0.02
0.01
0.01
0.01
0.01
0.01
0.02
0.01
0.01
0.00
0.00
0.02
0.00
0.32
0.83
0.89
0.83
0.23
0.75
0.58
0.05
0.08
0.08
0.05
0.03
0.03
0.08
0.08
0.08
0.08
0.10
0.10
0.12
0.10
0.13
0.17
0.17
0.23
0.25
0.28
0.29
0.29
0.33
0.33
0.33
0.32
0.33
0.35
0.35
0.34
0.35
0.34
0.35
0.31
0.33
0.29
0.20
0.10
0.08
0.03
0.01
0.00
0.00
0.00
0.00
0.00
0.01
0.01
0.01
0.01
0.01
0.03
0.03
0.01
0.03
0.05
0.03
0.05
0.05
0.05
0.03
0.03
0.03
0.03
0.03
0.03
0.03
0.01
0.01
0.01
0.01
0.03
0.01
0.01
0.03
0.01
0.01
0.01
0.03
0.03
0.03
0.08
0.08
0.12
0.12
0.12
0.17
0.23
0.25
0.23
0.23
0.17
0.12
0.05
0.05
0.03
0.01
0.01
0.01
0.01
0.01
0.00
0.00
0.03
0.01
0.05
0.05
0.00
0.03
0.35
0.84
0.95
0.84
0.33
0.72
0.40
0.10
0.12
0.08
0.08
0.08
0.08
0.10
0.10
0.10
0.10
0.13
0.15
0.17
0.17
0.20
0.23
0.25
0.28
0.29
0.30
0.29
0.33
0.33
0.32
0.32
0.35
0.35
0.35
0.37
0.45
0.45
0.42
0.34
0.32
0.33
0.29
0.20
0.12
0.08
0.05
0.01
0.01
0.01
0.01
0.01
0.00
0.00
0.01
0.00
0.01
0.01
0.03
0.03
0.03
0.03
0.05
0.03
0.03
0.05
0.05
0.05
0.03
0.03
0.03
0.00
0.01
0.01
0.01
0.01
0.01
0.01
0.01
0.00
0.00
0.01
0.00
0.01
0.01
0.01
0.01
0.01
0.05
0.08
0.10
0.12
0.12
0.17
0.20
0.20
0.20
0.17
0.12
0.08
0.03
0.00
0.00
0.00
0.00
0.00
0.00
0.00
0.00
0.00
0.00
0.00
0.00
0.00
0.10
0.12
0.66
0.83
0.94
0.78
0.10
0.70
0.18
0.08
0.08
0.05
0.03
0.05
0.03
0.05
0.05
0.08
0.08
0.08
0.08
0.10
0.10
0.12
0.13
0.17
0.23
0.23
0.25
0.29
0.29
0.29
0.33
0.33
0.31
0.33
0.35
0.34
0.35
0.35
0.34
0.35
0.33
0.29
0.23
0.12
0.05
0.03
0.01
0.00
0.00
0.01
0.01
0.01
0.02
0.01
0.01
0.00
0.00
0.00
0.00
0.00
0.00
0.00
0.00
0.00
0.01
0.01
0.00
0.00
0.00
0.00
0.00
0.00
0.00
0.00
0.00
0.01
0.01
0.00
0.00
0.00
0.00
0.00
0.00
0.01
0.01
0.00
0.03
0.05
0.08
0.08
0.08
0.10
0.13
0.17
0.17
0.17
0.10
0.08
0.01
0.00
0.01
0.00
0.00
0.00
0.01
0.01
0.01
0.01
0.01
0.00
0.00
0.00
0.10
0.03
0.35
0.83
0.94
0.81
0.00
0.70
0.18
0.05
0.05
0.01
0.01
0.03
0.03
0.05
0.05
0.08
0.08
0.08
0.08
0.10
0.12
0.13
0.15
0.20
0.23
0.20
0.25
0.29
0.30
0.33
0.33
0.33
0.32
0.33
0.35
0.35
0.34
0.34
0.35
0.33
0.33
0.29
0.23
0.12
0.08
0.05
0.01
0.00
0.00
0.00
0.00
0.00
0.00
0.00
0.00
0.00
0.00
0.01
0.00
0.01
0.01
0.01
0.03
0.01
0.03
0.01
0.00
0.01
0.01
0.00
0.01
0.00
0.00
0.00
0.00
0.00
0.00
0.00
0.00
0.00
0.00
0.00
0.00
0.00
0.00
0.01
0.05
0.05
0.08
0.08
0.08
0.15
0.20
0.20
0.17
0.15
0.10
0.03
0.00
0.00
0.00
0.00
0.00
0.00
0.00
0.02
0.01
0.01
0.00
0.00
0.00
0.02
0.01
0.33
0.82
0.91
0.84
0.30
0.75
0.46
0.08
0.05
0.03
0.01
0.03
0.03
0.05
0.03
0.08
0.08
0.08
0.08
0.10
0.12
0.13
0.13
0.15
0.15
0.17
0.25
0.28
0.29
0.30
0.33
0.33
0.33
0.31
0.33
0.35
0.35
0.35
0.35
0.35
0.33
0.30
0.25
0.17
0.08
0.05
0.01
0.00
0.00
0.01
0.00
0.01
0.01
0.00
0.00
0.00
0.00
0.01
0.00
0.00
0.00
0.00
0.00
0.01
0.00
0.00
0.00
0.00
0.00
0.00
0.00
0.00
0.00
0.01
0.00
0.01
0.01
0.01
0.01
0.01
0.00
0.02
0.01
0.00
0.00
0.01
0.01
0.05
0.08
0.08
0.13
0.13
0.13
0.15
0.08
0.05
0.00
0.02
0.02
0.06
0.06
0.02
0.06
0.06
0.06
0.10
0.10
0.06
0.06
0.06
0.40
0.12
0.70
0.83
0.86
0.62
0.68
0.72
0.30
0.01
0.00
0.01
0.00
0.00
0.00
0.00
0.00
0.00
0.01
0.01
0.03
0.05
0.08
0.08
0.08
0.12
0.12
0.12
0.15
0.23
0.25
0.29
0.29
0.33
0.33
0.33
0.32
0.32
0.31
0.31
0.33
0.33
0.25
0.15
0.08
0.03
0.00
0.01
0.06
0.06
0.10
0.18
0.10
0.10
0.06
0.10
0.06
0.02
0.10
0.06
0.02
0.01
0.01
0.01
0.01
0.00
0.00
0.01
0.08
0.17
0.31
0.73
0.81
0.83
0.84
0.86
0.97
0.97
0.86
0.83
0.83
0.78
0.10
0.61
0.64
0.64
0.64
0.64
0.62
0.60
0.61
0.61
0.61
0.61
0.64
0.70
0.72
0.75
0.76
0.79
0.81
0.83
0.84
0.86
0.87
0.87
0.89
0.88
0.87
0.84
0.81
0.75
0.69
0.61
0.58
0.47
0.35
0.18
0.06
0.10
0.10
0.06
0.10
0.10
0.06
0.02
0.06
0.02
0.02
0.02
0.02
0.02
0.01
0.00
0.00
0.00
0.00
0.00
0.00
0.00
0.00
0.00
0.00
0.00
0.00
0.00
0.00
0.00
0.00
0.01
0.00
0.01
0.01
0.01
0.01
0.00
0.01
0.03
0.01
0.03
0.01
0.01
0.03
0.01
0.01
0.03
0.03
0.05
0.03
0.03
0.05
0.03
0.03
0.03
0.05
0.05
0.05
0.05
0.08
0.05
0.05
0.08
0.05
0.08
0.08
0.08
0.08
0.05
0.08
0.08
0.08
0.08
0.08
0.08
0.08
0.05
0.08
0.10
0.12
0.15
0.17
0.17
0.20
0.25
0.29
0.29
0.29
0.28
0.20
0.13
0.08
0.05
0.05
0.05
0.05
0.08
0.05
0.03
0.03
0.01
0.05
0.03
0.02
0.30
0.77
0.86
0.86
0.73
0.58
0.58
0.05
0.12
0.10
0.08
0.08
0.08
0.08
0.08
0.08
0.10
0.12
0.12
0.13
0.13
0.17
0.20
0.20
0.23
0.25
0.29
0.29
0.30
0.29
0.33
0.33
0.31
0.32
0.35
0.35
0.35
0.34
0.35
0.34
0.35
0.33
0.33
0.33
0.28
0.23
0.15
0.10
0.08
0.08
0.05
0.05
0.05
0.05
0.08
0.08
0.08
0.08
0.08
0.08
0.08
0.10
0.10
0.08
0.08
0.08
0.08
0.08
0.08
0.08
0.08
0.05
0.08
0.05
0.05
0.05
0.03
0.03
0.03
0.03
0.03
0.03
0.03
0.08
0.08
0.10
0.13
0.12
0.15
0.20
0.23
0.20
0.20
0.13
0.10
0.05
0.03
0.01
0.00
0.00
0.00
0.00
0.00
0.00
0.00
0.00
0.00
0.00
0.00
0.10
0.15
0.71
0.85
0.88
0.74
0.56
0.64
0.00
0.08
0.05
0.01
0.03
0.03
0.03
0.03
0.05
0.08
0.08
0.08
0.08
0.12
0.12
0.13
0.15
0.20
0.20
0.23
0.28
0.29
0.30
0.29
0.33
0.33
0.32
0.33
0.33
0.35
0.35
0.35
0.33
0.31
0.33
0.28
0.17
0.12
0.05
0.01
0.00
0.00
0.01
0.01
0.01
0.02
0.01
0.02
0.02
0.01
0.00
0.00
0.00
0.00
0.00
0.00
0.00
0.00
0.00
0.00
0.00
0.00
0.00
0.00
0.00
0.00
0.00
0.00
0.00
0.03
0.08
0.13
0.20
0.35
0.76
0.82
0.86
0.89
0.96
0.99
1.00
1.00
0.96
0.88
0.86
0.81
0.02
0.68
0.70
0.72
0.73
0.75
0.75
0.75
0.77
0.78
0.78
0.79
0.82
0.82
0.83
0.84
0.86
0.87
0.89
0.90
0.91
0.92
0.93
0.93
0.93
0.93
0.92
0.91
0.89
0.86
0.79
0.70
0.64
0.56
0.40
0.18
0.02
0.00
0.00
0.01
0.01
0.01
0.03
0.05
0.08
0.05
0.08
0.08
0.05
0.05
0.08
0.08
0.08
0.08
0.08
0.08
0.08
0.08
0.08
0.08
0.08
0.08
0.08
0.08
0.08
0.08
0.08
0.08
0.08
0.08
0.08
0.10
0.08
0.08
0.08
0.08
0.08
0.08
0.08
0.10
0.08
0.08
0.10
0.10
0.10
0.10
0.10
0.10
0.10
0.08
0.08
0.10
0.10
0.12
0.10
0.10
0.10
0.10
0.12
0.12
0.12
0.12
0.13
0.15
0.20
0.17
0.23
0.25
0.30
0.29
0.29
0.30
0.30
0.25
0.17
0.12
0.10
0.10
0.10
0.10
0.08
0.08
0.08
0.08
0.08
0.08
0.10
0.01
0.23
0.67
0.83
0.91
0.81
0.01
0.68
0.06
0.15
0.15
0.13
0.13
0.12
0.12
0.13
0.13
0.15
0.15
0.15
0.17
0.20
0.23
0.23
0.25
0.28
0.25
0.29
0.30
0.29
0.33
0.33
0.32
0.32
0.32
0.33
0.35
0.35
0.35
0.35
0.35
0.35
0.32
0.32
0.33
0.29
0.25
0.20
0.15
0.12
0.10
0.08
0.08
0.08
0.10
0.10
0.12
0.10
0.10
0.12
0.12
0.12
0.12
0.12
0.13
0.12
0.10
0.12
0.12
0.10
0.08
0.08
0.08
0.08
0.05
0.08
0.08
0.05
0.05
0.08
0.08
0.05
0.05
0.08
0.10
0.13
0.13
0.13
0.23
0.25
0.25
0.25
0.23
0.17
0.10
0.05
0.05
0.01
0.01
0.03
0.01
0.03
0.01
0.03
0.03
0.03
0.03
0.05
0.01
0.01
0.29
0.78
0.86
0.84
0.37
0.64
0.64
0.00
0.13
0.10
0.08
0.08
0.08
0.08
0.10
0.10
0.12
0.12
0.13
0.13
0.13
0.17
0.17
0.20
0.25
0.25
0.29
0.29
0.29
0.33
0.33
0.33
0.31
0.32
0.35
0.35
0.35
0.35
0.35
0.33
0.32
0.33
0.28
0.17
0.10
0.08
0.03
0.01
0.00
0.00
0.00
0.00
0.00
0.00
0.00
0.01
0.01
0.01
0.03
0.03
0.01
0.03
0.03
0.03
0.03
0.03
0.05
0.05
0.01
0.03
0.03
0.01
0.03
0.01
0.01
0.03
0.00
0.01
0.01
0.00
0.03
0.08
0.08
0.08
0.10
0.12
0.20
0.23
0.20
0.17
0.17
0.12
0.08
0.01
0.01
0.00
0.00
0.00
0.00
0.00
0.00
0.00
0.01
0.01
0.01
0.01
0.02
0.01
0.33
0.83
0.92
0.83
0.29
0.73
0.46
0.08
0.08
0.08
0.08
0.08
0.08
0.08
0.08
0.08
0.08
0.12
0.13
0.13
0.15
0.17
0.20
0.20
0.23
0.28
0.29
0.30
0.29
0.33
0.32
0.31
0.33
0.35
0.34
0.37
0.35
0.35
0.34
0.33
0.33
0.30
0.25
0.15
0.10
0.05
0.03
0.00
0.00
0.00
0.00
0.00
0.00
0.00
0.00
0.00
0.00
0.01
0.01
0.01
0.03
0.03
0.03
0.03
0.01
0.03
0.05
0.03
0.03
0.03
0.03
0.01
0.00
0.01
0.01
0.01
0.01
0.01
0.01
0.01
0.00
0.01
0.05
0.08
0.08
0.10
0.10
0.12
0.17
0.23
0.23
0.20
0.20
0.13
0.10
0.03
0.00
0.00
0.01
0.01
0.01
0.00
0.00
0.00
0.00
0.00
0.01
0.01
0.00
0.02
0.30
0.81
0.88
0.86
0.67
0.64
0.58
0.03
0.08
0.08
0.03
0.03
0.05
0.08
0.08
0.08
0.08
0.10
0.08
0.12
0.13
0.17
0.20
0.20
0.25
0.25
0.29
0.30
0.33
0.33
0.33
0.31
0.33
0.35
0.35
0.35
0.42
0.37
0.35
0.35
0.31
0.29
0.23
0.15
0.08
0.05
0.01
0.00
0.00
0.00
0.02
0.01
0.00
0.00
0.00
0.01
0.00
0.01
0.00
0.00
0.00
0.00
0.01
0.01
0.01
0.00
0.00
0.01
0.01
0.00
0.00
0.00
0.00
0.00
0.01
0.00
0.00
0.00
0.00
0.00
0.00
0.00
0.01
0.00
0.01
0.03
0.08
0.08
0.08
0.10
0.12
0.15
0.15
0.15
0.12
0.05
0.00
0.00
0.02
0.02
0.02
0.02
0.01
0.02
0.02
0.02
0.02
0.02
0.01
0.01
0.30
0.15
0.75
0.86
0.86
0.67
0.64
0.62
0.01
0.03
0.01
0.00
0.00
0.00
0.01
0.03
0.03
0.03
0.08
0.03
0.08
0.08
0.10
0.13
0.13
0.15
0.20
0.20
0.25
0.29
0.30
0.33
0.33
0.32
0.32
0.32
0.35
0.35
0.35
0.35
0.31
0.33
0.28
0.13
0.08
0.01
0.00
0.01
0.02
0.06
0.06
0.18
0.10
0.06
0.02
0.06
0.06
0.02
0.02
0.06
0.02
0.02
0.01
0.00
0.01
0.01
0.00
0.02
0.01
0.01
0.00
0.00
0.01
0.02
0.02
0.10
0.02
0.02
0.02
0.02
0.02
0.06
0.02
0.06
0.06
0.01
0.00
0.01
0.03
0.03
0.05
0.08
0.12
0.15
0.12
0.12
0.08
0.03
0.00
0.02
0.02
0.06
0.02
0.02
0.06
0.06
0.02
0.10
0.06
0.02
0.01
0.01
0.30
0.00
0.35
0.84
0.91
0.81
0.10
0.75
0.51
0.01
0.05
0.00
0.00
0.00
0.01
0.01
0.03
0.03
0.03
0.05
0.08
0.08
0.10
0.12
0.13
0.13
0.17
0.17
0.23
0.28
0.29
0.30
0.33
0.33
0.31
0.32
0.35
0.35
0.34
0.34
0.35
0.33
0.33
0.30
0.20
0.12
0.08
0.03
0.01
0.00
0.00
0.01
0.02
0.01
0.01
0.01
0.00
0.01
0.00
0.00
0.01
0.00
0.00
0.00
0.01
0.00
0.00
0.01
0.00
0.00
0.01
0.00
0.01
0.00
0.00
0.00
0.01
0.00
0.00
0.00
0.00
0.00
0.00
0.00
0.01
0.00
0.01
0.05
0.08
0.08
0.08
0.12
0.13
0.17
0.15
0.17
0.12
0.08
0.01
0.01
0.01
0.00
0.00
0.00
0.01
0.01
0.02
0.01
0.01
0.00
0.00
0.00
0.10
0.08
0.64
0.83
0.88
0.75
0.54
0.70
0.02
0.08
0.08
0.03
0.03
0.05
0.05
0.08
0.08
0.08
0.08
0.08
0.12
0.12
0.13
0.15
0.17
0.17
0.20
0.20
0.28
0.29
0.29
0.33
0.33
0.32
0.32
0.33
0.35
0.35
0.34
0.35
0.35
0.32
0.33
0.25
0.15
0.08
0.05
0.01
0.00
0.00
0.01
0.01
0.01
0.01
0.00
0.00
0.00
0.01
0.00
0.00
0.00
0.00
0.00
0.00
0.00
0.00
0.00
0.00
0.00
0.01
0.01
0.00
0.00
0.00
0.00
0.00
0.00
0.00
0.00
0.00
0.00
0.00
0.00
0.00
0.00
0.00
0.03
0.03
0.08
0.08
0.08
0.12
0.15
0.17
0.15
0.13
0.08
0.05
0.00
0.00
0.01
0.01
0.01
0.01
0.01
0.01
0.01
0.01
0.01
0.00
0.00
0.00
0.10
0.10
0.58
0.83
0.88
0.74
0.56
0.70
0.06
0.08
0.08
0.01
0.03
0.03
0.08
0.08
0.08
0.08
0.10
0.08
0.10
0.12
0.13
0.15
0.17
0.17
0.23
0.23
0.29
0.29
0.29
0.33
0.33
0.32
0.33
0.33
0.35
0.34
0.35
0.35
0.35
0.31
0.33
0.28
0.17
0.10
0.08
0.01
0.00
0.01
0.01
0.01
0.02
0.01
0.01
0.00
0.00
0.01
0.01
0.00
0.01
0.00
0.00
0.00
0.01
0.00
0.01
0.01
0.00
0.00
0.01
0.01
0.01
0.00
0.00
0.00
0.00
0.00
0.00
0.00
0.00
0.00
0.00
0.00
0.00
0.00
0.00
0.00
0.03
0.05
0.08
0.08
0.08
0.12
0.17
0.17
0.17
0.17
0.13
0.08
0.03
0.01
0.00
0.00
0.00
0.00
0.00
0.00
0.00
0.00
0.00
0.01
0.00
0.01
0.02
0.01
0.35
0.83
0.96
0.83
0.29
0.73
0.47
0.05
0.08
0.08
0.05
0.05
0.05
0.08
0.08
0.08
0.08
0.10
0.12
0.13
0.15
0.15
0.17
0.23
0.20
0.25
0.29
0.29
0.29
0.33
0.33
0.31
0.32
0.35
0.34
0.37
0.50
0.50
0.45
0.42
0.35
0.31
0.29
0.23
0.15
0.08
0.05
0.03
0.00
0.00
0.00
0.00
0.00
0.00
0.00
0.00
0.00
0.00
0.01
0.01
0.03
0.03
0.03
0.03
0.03
0.05
0.05
0.05
0.08
0.05
0.05
0.03
0.01
0.05
0.03
0.03
0.03
0.03
0.03
0.03
0.03
0.03
0.05
0.03
0.03
0.03
0.05
0.08
0.10
0.12
0.13
0.15
0.20
0.25
0.25
0.20
0.23
0.12
0.10
0.08
0.05
0.01
0.03
0.01
0.01
0.01
0.03
0.03
0.01
0.03
0.05
0.03
0.05
0.00
0.12
0.56
0.84
0.96
0.83
0.23
0.70
0.18
0.12
0.13
0.08
0.08
0.08
0.08
0.10
0.12
0.12
0.13
0.15
0.15
0.17
0.15
0.20
0.23
0.28
0.29
0.29
0.30
0.29
0.33
0.33
0.31
0.33
0.35
0.34
0.37
0.45
0.50
0.50
0.50
0.42
0.35
0.32
0.30
0.23
0.13
0.08
0.08
0.03
0.01
0.01
0.01
0.01
0.01
0.00
0.01
0.01
0.01
0.03
0.01
0.03
0.03
0.03
0.03
0.05
0.05
0.08
0.05
0.05
0.05
0.01
0.03
0.03
0.03
0.05
0.01
0.03
0.03
0.01
0.01
0.01
0.01
0.01
0.01
0.01
0.01
0.01
0.01
0.05
0.08
0.10
0.10
0.13
0.12
0.17
0.23
0.23
0.23
0.20
0.10
0.08
0.03
0.01
0.01
0.01
0.01
0.00
0.00
0.00
0.00
0.00
0.01
0.01
0.01
0.03
0.06
0.12
0.58
0.83
0.95
0.81
0.00
0.70
0.06
0.10
0.08
0.05
0.08
0.08
0.08
0.08
0.08
0.10
0.10
0.10
0.12
0.13
0.15
0.17
0.20
0.23
0.23
0.25
0.29
0.29
0.33
0.33
0.33
0.32
0.33
0.35
0.35
0.37
0.37
0.42
0.35
0.35
0.33
0.30
0.25
0.13
0.10
0.05
0.03
0.01
0.00
0.00
0.00
0.00
0.01
0.01
0.01
0.01
0.00
0.01
0.01
0.03
0.03
0.03
0.05
0.05
0.03
0.03
0.03
0.05
0.05
0.03
0.01
0.03
0.01
0.01
0.01
0.01
0.01
0.01
0.01
0.01
0.03
0.00
0.01
0.01
0.01
0.03
0.05
0.08
0.10
0.10
0.12
0.15
0.20
0.25
0.20
0.20
0.13
0.08
0.05
0.05
0.01
0.01
0.01
0.00
0.01
0.00
0.01
0.00
0.01
0.01
0.01
0.03
0.01
0.05
0.37
0.84
0.91
0.83
0.17
0.73
0.46
0.08
0.12
0.08
0.08
0.08
0.08
0.08
0.10
0.08
0.12
0.12
0.13
0.15
0.15
0.17
0.20
0.20
0.25
0.25
0.29
0.29
0.29
0.33
0.32
0.32
0.33
0.35
0.34
0.35
0.37
0.37
0.34
0.35
0.32
0.29
0.25
0.17
0.10
0.08
0.03
0.01
0.01
0.01
0.00
0.01
0.01
0.00
0.00
0.00
0.03
0.01
0.03
0.03
0.01
0.03
0.03
0.01
0.03
0.03
0.03
0.03
0.01
0.01
0.00
0.00
0.01
0.01
0.03
0.01
0.01
0.01
0.00
0.00
0.00
0.00
0.01
0.01
0.05
0.08
0.08
0.08
0.10
0.15
0.20
0.20
0.17
0.17
0.10
0.08
0.01
0.01
0.00
0.00
0.00
0.00
0.01
0.01
0.00
0.00
0.00
0.00
0.00
0.01
0.10
0.08
0.56
0.84
0.91
0.81
0.01
0.73
0.35
0.08
0.08
0.08
0.05
0.08
0.08
0.08
0.08
0.08
0.10
0.12
0.10
0.12
0.13
0.15
0.13
0.20
0.23
0.28
0.29
0.30
0.29
0.33
0.33
0.31
0.35
0.35
0.35
0.34
0.35
0.35
0.35
0.31
0.33
0.28
0.17
0.08
0.03
0.00
0.01
0.01
0.01
0.01
0.01
0.01
0.01
0.00
0.02
0.01
0.00
0.00
0.00
0.00
0.00
0.00
0.00
0.00
0.01
0.00
0.00
0.00
0.00
0.00
0.00
0.00
0.00
0.00
0.00
0.00
0.01
0.01
0.01
0.02
0.01
0.01
0.01
0.01
0.01
0.01
0.00
0.00
0.03
0.05
0.05
0.08
0.08
0.12
0.13
0.12
0.13
0.08
0.03
0.00
0.02
0.02
0.02
0.06
0.06
0.06
0.06
0.02
0.06
0.06
0.02
0.06
0.02
0.30
0.05
0.50
0.83
0.94
0.77
0.30
0.72
0.18
0.03
0.01
0.00
0.00
0.00
0.00
0.00
0.00
0.01
0.03
0.03
0.05
0.08
0.08
0.10
0.10
0.12
0.13
0.17
0.20
0.25
0.28
0.29
0.33
0.33
0.32
0.32
0.35
0.35
0.35
0.34
0.35
0.31
0.33
0.23
0.12
0.03
0.00
0.02
0.06
0.10
0.18
0.18
0.18
0.30
0.10
0.18
0.10
0.06
0.10
0.10
0.06
0.10
0.06
0.06
0.02
