0.01
0.01
0.00
0.01
0.04
0.04
0.04
0.06
0.07
0.09
0.11
0.12
0.13
0.13
0.12
0.13
0.14
0.12
0.13
0.12
0.09
0.04
0.04
0.01
0.00
0.01
0.01
0.01
0.01
0.01
0.01
0.00
0.00
0.00
0.01
0.00
0.01
0.00
0.00
0.01
0.01
0.00
0.01
0.01
0.01
0.01
0.01
0.01
0.00
0.00
0.00
0.00
0.00
0.00
0.01
0.00
0.00
0.00
0.01
0.00
0.01
0.01
0.01
0.01
0.01
0.01
0.01
0.01
0.01
0.01
0.01
0.01
0.01
0.01
0.01
0.01
0.01
0.09
0.09
0.14
0.06
0.01
0.01
0.05
0.07
0.07
0.08
0.07
0.10
0.05
0.10
0.04
0.13
0.65
0.54
0.63
0.53
0.54
0.47
0.10
0.04
0.05
0.05
0.01
0.01
0.01
0.01
0.00
0.00
0.00
0.01
0.04
0.04
0.06
0.06
0.04
0.07
0.07
0.07
0.04
0.01
0.01
0.01
0.01
0.01
0.01
0.04
0.04
0.05
0.07
0.04
0.01
0.01
0.01
0.01
0.00
0.00
0.00
0.01
0.00
0.01
0.01
0.00
0.00
0.00
0.00
0.00
0.00
0.00
0.00
0.00
0.01
0.00
0.00
0.00
0.01
0.00
0.00
0.00
0.00
0.00
0.01
0.01
0.01
0.01
0.01
0.01
0.01
0.01
0.01
0.01
0.01
0.01
0.01
0.01
0.01
0.01
0.01
0.01
0.01
0.04
0.01
0.13
0.01
0.01
0.05
0.13
0.13
0.13
0.12
0.10
0.13
0.10
0.19
0.04
0.07
0.65
0.51
0.54
0.53
0.54
0.51
0.23
0.15
0.12
0.10
0.04
0.04
0.01
0.01
0.01
0.05
0.05
0.01
0.01
0.01
0.01
0.01
0.05
0.04
0.07
0.08
0.13
0.20
0.25
0.25
0.28
0.28
0.27
0.28
0.28
0.27
0.23
0.19
0.10
0.07
0.07
0.07
0.04
0.01
0.04
0.01
0.05
0.01
0.04
0.01
0.01
0.01
0.01
0.01
0.04
0.01
0.01
0.01
0.01
0.01
0.04
0.04
0.05
0.01
0.01
0.05
0.05
0.01
0.04
0.01
0.04
0.01
0.05
0.01
0.01
0.04
0.01
0.01
0.01
0.00
0.00
0.01
0.00
0.12
0.11
0.06
0.00
0.05
0.08
0.10
0.07
0.07
0.12
0.10
0.12
0.15
0.04
0.47
0.01
0.54
0.54
0.54
0.53
0.38
0.08
0.07
0.04
0.01
0.01
0.01
0.01
0.00
0.01
0.01
0.00
0.00
0.00
0.00
0.00
0.00
0.01
0.00
0.01
0.01
0.01
0.01
0.01
0.01
0.07
0.04
0.04
0.01
0.01
0.01
0.01
0.01
0.00
0.00
0.00
0.00
0.00
0.01
0.01
0.01
0.01
0.00
0.00
0.00
0.01
0.01
0.01
0.01
0.01
0.01
0.01
0.04
0.04
0.04
0.04
0.04
0.01
0.04
0.01
0.04
0.04
0.04
0.01
0.01
0.04
0.04
0.04
0.04
0.01
0.01
0.04
0.04
0.04
0.06
0.08
0.11
0.12
0.13
0.24
0.18
0.13
0.11
0.01
0.00
0.01
0.00
0.00
0.01
0.01
0.01
0.01
0.18
0.44
0.33
0.57
0.66
0.55
0.54
0.41
0.01
0.01
0.00
0.01
0.04
0.04
0.08
0.06
0.11
0.08
0.12
0.13
0.13
0.13
0.16
0.18
0.23
0.23
0.21
0.23
0.18
0.18
0.16
0.13
0.12
0.11
0.07
0.06
0.04
0.01
0.01
0.01
0.01
0.04
0.04
0.06
0.04
0.06
0.04
0.04
0.04
0.04
0.04
0.04
0.04
0.01
0.07
0.06
0.06
0.06
0.07
0.07
0.07
0.07
0.07
0.09
0.07
0.08
0.07
0.07
0.07
0.07
0.07
0.06
0.06
0.07
0.07
0.06
0.04
0.04
0.04
0.07
0.06
0.04
0.04
0.04
0.11
0.08
0.12
0.12
0.24
0.18
0.09
0.08
0.00
0.01
0.01
0.01
0.01
0.00
0.01
0.01
0.01
0.24
0.49
0.26
0.55
0.63
0.54
0.51
0.33
0.01
0.01
0.00
0.01
0.01
0.04
0.04
0.04
0.04
0.07
0.07
0.07
0.08
0.09
0.08
0.11
0.08
0.12
0.08
0.08
0.07
0.07
0.04
0.04
0.00
0.01
0.01
0.01
0.01
0.01
0.01
0.01
0.01
0.01
0.00
0.04
0.01
0.01
0.01
0.01
0.04
0.04
0.01
0.04
0.04
0.04
0.04
0.06
0.04
0.06
0.07
0.04
0.06
0.06
0.04
0.06
0.01
0.04
0.04
0.01
0.04
0.01
0.00
0.00
0.01
0.01
0.01
0.01
0.01
0.00
0.01
0.01
0.01
0.01
0.00
0.01
0.01
0.01
0.00
0.04
0.01
0.04
0.01
0.13
0.13
0.06
0.04
0.04
0.05
0.07
0.04
0.05
0.05
0.05
0.08
0.15
0.04
0.38
0.32
0.56
0.54
0.54
0.52
0.45
0.08
0.13
0.08
0.07
0.08
0.05
0.04
0.05
0.04
0.01
0.01
0.01
0.01
0.04
0.04
0.04
0.05
0.07
0.10
0.08
0.13
0.20
0.19
0.25
0.23
0.27
0.19
0.19
0.23
0.12
0.07
0.07
0.01
0.05
0.04
0.01
0.01
0.01
0.01
0.01
0.00
0.01
0.01
0.01
0.01
0.01
0.01
0.01
0.01
0.01
0.01
0.01
0.01
0.01
0.01
0.01
0.01
0.01
0.01
0.01
0.01
0.01
0.01
0.01
0.01
0.01
0.01
0.01
0.01
0.01
0.01
0.01
0.01
0.01
0.04
0.01
0.16
0.11
0.06
0.01
0.04
0.04
0.07
0.01
0.08
0.08
0.10
0.08
0.19
0.04
0.43
0.48
0.54
0.55
0.54
0.53
0.46
0.08
0.10
0.05
0.01
0.01
0.01
0.01
0.01
0.00
0.00
0.00
0.01
0.01
0.04
0.01
0.01
0.01
0.04
0.01
0.01
0.04
0.01
0.01
0.00
0.01
0.00
0.01
0.01
0.01
0.01
0.01
0.00
0.00
0.01
0.00
0.01
0.01
0.04
0.04
0.04
0.04
0.04
0.01
0.06
0.04
0.04
0.04
0.04
0.04
0.04
0.06
0.04
0.04
0.01
0.06
0.01
0.06
0.04
0.04
0.01
0.04
0.04
0.04
0.01
0.04
0.01
0.01
0.04
0.01
0.01
0.01
0.01
0.01
0.04
0.08
0.08
0.12
0.12
0.24
0.21
0.12
0.08
0.00
0.01
0.01
0.01
0.01
0.01
0.01
0.01
0.05
0.14
0.33
0.49
0.54
0.69
0.54
0.55
0.40
0.01
0.01
0.00
0.00
0.01
0.04
0.01
0.07
0.04
0.06
0.08
0.09
0.11
0.12
0.14
0.13
0.13
0.13
0.18
0.21
0.16
0.14
0.12
0.11
0.11
0.08
0.07
0.04
0.01
0.01
0.01
0.01
0.04
0.04
0.04
0.06
0.04
0.06
0.04
0.04
0.04
0.04
0.01
0.06
0.04
0.04
0.06
0.04
0.04
0.04
0.06
0.08
0.07
0.07
0.06
0.06
0.06
0.04
0.07
0.06
0.01
0.01
0.04
0.04
0.04
0.01
0.01
0.00
0.00
0.01
0.01
0.01
0.01
0.01
0.01
0.11
0.01
0.07
0.09
0.24
0.11
0.11
0.01
0.01
0.01
0.01
0.01
0.01
0.01
0.01
0.01
0.01
0.18
0.60
0.37
0.54
0.57
0.55
0.51
0.28
0.07
0.05
0.07
0.01
0.01
0.01
0.01
0.00
0.00
0.00
0.01
0.00
0.00
0.01
0.01
0.00
0.01
0.01
0.01
0.04
0.07
0.07
0.08
0.12
0.13
0.13
0.13
0.10
0.12
0.08
0.08
0.04
0.01
0.01
0.01
0.01
0.00
0.01
0.01
0.01
0.01
0.01
0.01
0.01
0.01
0.01
0.01
0.00
0.01
0.00
0.01
0.01
0.00
0.00
0.01
0.01
0.00
0.00
0.01
0.01
0.01
0.01
0.01
0.01
0.01
0.01
0.01
0.01
0.01
0.00
0.04
0.01
0.06
0.04
0.14
0.09
0.06
0.01
0.01
0.05
0.12
0.04
0.04
0.05
0.05
0.08
0.01
0.09
0.53
0.37
0.53
0.54
0.54
0.51
0.28
0.08
0.01
0.01
0.01
0.01
0.00
0.00
0.01
0.01
0.01
0.00
0.01
0.04
0.04
0.04
0.04
0.06
0.04
0.04
0.01
0.04
0.01
0.01
0.00
0.00
0.00
0.01
0.01
0.01
0.01
0.00
0.00
0.01
0.01
0.01
0.01
0.01
0.01
0.01
0.04
0.04
0.01
0.01
0.01
0.01
0.04
0.04
0.04
0.04
0.04
0.04
0.01
0.01
0.04
0.01
0.01
0.01
0.01
0.04
0.01
0.01
0.01
0.01
0.04
0.01
0.01
0.04
0.01
0.01
0.04
0.01
0.01
0.01
0.01
0.01
0.04
0.08
0.06
0.12
0.09
0.21
0.11
0.08
0.04
0.01
0.01
0.01
0.01
0.01
0.01
0.01
0.07
0.04
0.18
0.57
0.45
0.61
0.64
0.55
0.51
0.28
0.04
0.01
0.01
0.00
0.00
0.01
0.04
0.04
0.06
0.07
0.07
0.09
0.09
0.11
0.11
0.13
0.12
0.13
0.13
0.13
0.13
0.09
0.09
0.06
0.04
0.04
0.01
0.00
0.00
0.01
0.01
0.00
0.00
0.01
0.01
0.01
0.01
0.04
0.01
0.01
0.01
0.01
0.01
0.04
0.01
0.04
0.04
0.01
0.01
0.04
0.04
0.04
0.04
0.04
0.04
0.04
0.04
0.04
0.01
0.01
0.00
0.00
0.00
0.00
0.00
0.01
0.00
0.01
0.00
0.00
0.00
0.01
0.04
0.01
0.08
0.14
0.16
0.11
0.07
0.01
0.01
0.01
0.01
0.01
0.01
0.05
0.07
0.07
0.06
0.18
0.62
0.53
0.65
0.53
0.57
0.45
0.07
0.04
0.04
0.01
0.01
0.01
0.01
0.00
0.01
0.00
0.01
0.04
0.01
0.01
0.04
0.01
0.04
0.01
0.01
0.00
0.01
0.01
0.01
0.01
0.04
0.05
0.08
0.10
0.12
0.10
0.07
0.04
0.05
0.04
0.01
0.01
0.01
0.01
0.01
0.01
0.01
0.01
0.01
0.01
0.01
0.01
0.01
0.01
0.01
0.01
0.00
0.01
0.01
0.01
0.01
0.01
0.01
0.01
0.01
0.01
0.01
0.01
0.01
0.05
0.01
0.04
0.01
0.01
0.05
0.04
0.01
0.01
0.01
0.01
0.01
0.00
0.01
0.04
0.01
0.13
0.01
0.01
0.01
0.13
0.12
0.13
0.10
0.08
0.12
0.15
0.19
0.01
0.07
0.64
0.51
0.53
0.56
0.57
0.51
0.20
0.15
0.12
0.12
0.07
0.05
0.01
0.04
0.01
0.04
0.01
0.05
0.05
0.01
0.04
0.05
0.07
0.10
0.12
0.10
0.20
0.20
0.23
0.25
0.23
0.25
0.23
0.23
0.20
0.12
0.13
0.07
0.04
0.04
0.04
0.01
0.01
0.01
0.01
0.01
0.01
0.01
0.01
0.01
0.01
0.01
0.01
0.04
0.01
0.01
0.01
0.01
0.01
0.01
0.01
0.01
0.04
0.01
0.01
0.01
0.04
0.01
0.01
0.01
0.01
0.01
0.04
0.01
0.01
0.04
0.00
0.01
0.00
0.04
0.07
0.13
0.09
0.04
0.01
0.04
0.04
0.05
0.05
0.05
0.07
0.08
0.12
0.01
0.09
0.54
0.48
0.55
0.54
0.53
0.52
0.30
0.12
0.05
0.05
0.01
0.01
0.01
0.01
0.01
0.01
0.00
0.01
0.01
0.06
0.04
0.07
0.09
0.07
0.11
0.12
0.11
0.13
0.09
0.09
0.09
0.04
0.04
0.04
0.00
0.01
0.00
0.00
0.00
0.00
0.01
0.01
0.01
0.01
0.04
0.04
0.01
0.04
0.01
0.04
0.04
0.04
0.04
0.04
0.04
0.04
0.04
0.04
0.04
0.01
0.06
0.06
0.04
0.01
0.01
0.01
0.01
0.04
0.04
0.01
0.01
0.01
0.00
0.01
0.01
0.01
0.01
0.01
0.06
0.09
0.08
0.14
0.23
0.21
0.12
0.11
0.00
0.01
0.01
0.01
0.01
0.01
0.01
0.01
0.01
0.14
0.33
0.54
0.54
0.69
0.53
0.54
0.39
0.01
0.00
0.00
0.01
0.07
0.04
0.04
0.07
0.08
0.07
0.08
0.12
0.12
0.13
0.13
0.16
0.14
0.14
0.16
0.14
0.14
0.14
0.13
0.13
0.11
0.07
0.07
0.04
0.04
0.01
0.04
0.04
0.04
0.06
0.04
0.07
0.08
0.04
0.08
0.04
0.04
0.07
0.04
0.07
0.01
0.06
0.09
0.06
0.07
0.09
0.07
0.09
0.09
0.07
0.09
0.07
0.06
0.07
0.09
0.06
0.06
0.04
0.04
0.07
0.04
0.04
0.04
0.06
0.04
0.04
0.04
0.04
0.04
0.08
0.09
0.08
0.13
0.18
0.26
0.12
0.09
0.00
0.01
0.01
0.01
0.00
0.01
0.01
0.01
0.01
0.13
0.18
0.69
0.57
0.61
0.54
0.54
0.45
0.01
0.01
0.01
0.00
0.01
0.04
0.04
0.04
0.06
0.04
0.07
0.09
0.07
0.08
0.08
0.09
0.08
0.09
0.09
0.04
0.07
0.04
0.04
0.01
0.00
0.01
0.01
0.01
0.01
0.01
0.01
0.01
0.00
0.00
0.01
0.01
0.01
0.04
0.01
0.01
0.01
0.01
0.01
0.04
0.01
0.01
0.01
0.01
0.01
0.01
0.06
0.04
0.01
0.01
0.04
0.04
0.01
0.04
0.00
0.01
0.01
0.00
0.00
0.01
0.00
0.01
0.01
0.01
0.01
0.01
0.01
0.01
0.01
0.01
0.01
0.00
0.00
0.04
0.11
0.13
0.06
0.01
0.04
0.05
0.08
0.04
0.04
0.05
0.07
0.05
0.13
0.04
0.16
0.66
0.56
0.54
0.56
0.57
0.51
0.12
0.12
0.07
0.04
0.01
0.01
0.01
0.01
0.01
0.01
0.01
0.00
0.01
0.01
0.01
0.01
0.01
0.04
0.04
0.08
0.08
0.12
0.20
0.20
0.23
0.20
0.23
0.20
0.13
0.15
0.12
0.04
0.01
0.01
0.01
0.01
0.01
0.01
0.01
0.01
0.01
0.01
0.01
0.01
0.01
0.01
0.01
0.01
0.01
0.00
0.01
0.01
0.01
0.01
0.01
0.01
0.01
0.01
0.01
0.01
0.01
0.01
0.01
0.01
0.01
0.01
0.01
0.04
0.01
0.01
0.00
0.04
0.01
0.06
0.08
0.16
0.13
0.08
0.00
0.01
0.01
0.01
0.01
0.01
0.04
0.04
0.07
0.00
0.14
0.62
0.50
0.55
0.54
0.56
0.51
0.15
0.07
0.01
0.01
0.01
0.00
0.01
0.00
0.01
0.01
0.01
0.04
0.04
0.04
0.06
0.04
0.06
0.06
0.07
0.04
0.07
0.07
0.04
0.01
0.04
0.01
0.01
0.01
0.00
0.00
0.00
0.00
0.00
0.00
0.01
0.00
0.00
0.01
0.01
0.01
0.00
0.01
0.01
0.01
0.01
0.01
0.01
0.04
0.06
0.04
0.04
0.01
0.06
0.04
0.04
0.04
0.04
0.04
0.04
0.06
0.04
0.04
0.04
0.04
0.04
0.04
0.04
0.04
0.04
0.04
0.01
0.01
0.09
0.07
0.09
0.12
0.24
0.16
0.11
0.07
0.01
0.01
0.01
0.00
0.01
0.01
0.01
0.01
0.04
0.14
0.33
0.54
0.54
0.67
0.54
0.57
0.45
0.04
0.01
0.01
0.01
0.01
0.00
0.01
0.01
0.01
0.04
0.07
0.07
0.08
0.09
0.11
0.12
0.13
0.13
0.13
0.13
0.13
0.14
0.13
0.11
0.07
0.04
0.01
0.01
0.00
0.00
0.01
0.01
0.01
0.01
0.00
0.04
0.01
0.01
0.01
0.00
0.01
0.01
0.01
0.00
0.00
0.01
0.01
0.04
0.04
0.04
0.01
0.01
0.01
0.04
0.01
0.01
0.01
0.01
0.00
0.01
0.01
0.01
0.00
0.01
0.01
0.01
0.01
0.01
0.01
0.01
0.01
0.01
0.01
0.00
0.06
0.01
0.07
0.04
0.23
0.11
0.04
0.00
0.08
0.07
0.07
0.04
0.01
0.05
0.04
0.07
0.12
0.11
0.48
0.01
0.55
0.64
0.54
0.53
0.35
0.04
0.01
0.01
0.01
0.01
0.01
0.01
0.00
0.00
0.00
0.01
0.01
0.00
0.01
0.01
0.00
0.01
0.01
0.01
0.01
0.00
0.01
0.01
0.01
0.04
0.07
0.07
0.08
0.08
0.07
0.05
0.01
0.04
0.01
0.01
0.01
0.01
0.01
0.01
0.01
0.01
0.01
0.01
0.01
0.01
0.01
0.01
0.01
0.01
0.01
0.01
0.00
0.01
0.01
0.01
0.00
0.01
0.01
0.01
0.01
0.01
0.01
0.01
0.01
0.01
0.01
0.01
0.01
0.01
0.01
0.01
0.04
0.04
0.01
0.01
0.01
0.00
0.00
0.12
0.04
0.01
0.01
0.10
0.10
0.15
0.08
0.10
0.10
0.12
0.15
0.19
0.01
0.45
0.01
0.53
0.54
0.53
0.52
0.42
0.19
0.19
0.13
0.10
0.10
0.10
0.08
0.05
0.07
0.07
0.07
0.07
0.08
0.07
0.07
0.05
0.08
0.07
0.12
0.12
0.13
0.23
0.23
0.25
0.25
0.23
0.20
0.15
0.19
0.13
0.10
0.07
0.07
0.04
0.01
0.01
0.04
0.01
0.01
0.01
0.01
0.01
0.01
0.01
0.01
0.01
0.01
0.01
0.01
0.01
0.01
0.01
0.01
0.01
0.01
0.01
0.01
0.01
0.01
0.01
0.01
0.01
0.01
0.01
0.04
0.01
0.01
0.05
0.01
0.01
0.01
0.01
0.01
0.06
0.01
0.13
0.09
0.06
0.00
0.01
0.04
0.10
0.04
0.04
0.08
0.05
0.08
0.13
0.06
0.48
0.07
0.54
0.61
0.54
0.53
0.42
0.08
0.10
0.07
0.04
0.05
0.01
0.01
0.01
0.01
0.01
0.00
0.01
0.00
0.04
0.04
0.04
0.07
0.06
0.07
0.04
0.06
0.04
0.04
0.01
0.01
0.00
0.00
0.00
0.01
0.01
0.01
0.00
0.00
0.00
0.00
0.01
0.00
0.01
0.01
0.01
0.01
0.00
0.00
0.00
0.01
0.01
0.01
0.00
0.01
0.01
0.01
0.01
0.01
0.01
0.01
0.01
0.01
0.01
0.01
0.01
0.01
0.00
0.00
0.04
0.00
0.00
0.00
0.00
0.01
0.00
0.00
0.01
0.08
0.06
0.11
0.09
0.23
0.13
0.07
0.04
0.01
0.01
0.04
0.01
0.01
0.01
0.04
0.04
0.05
0.14
0.45
0.13
0.58
0.66
0.54
0.53
0.37
0.04
0.01
0.01
0.01
0.04
0.04
0.04
0.01
0.04
0.07
0.07
0.11
0.08
0.12
0.11
0.13
0.12
0.13
0.13
0.13
0.13
0.11
0.09
0.11
0.04
0.04
0.01
0.01
0.00
0.00
0.00
0.01
0.00
0.00
0.01
0.04
0.04
0.01
0.01
0.04
0.01
0.01
0.04
0.04
0.04
0.04
0.04
0.04
0.04
0.06
0.04
0.04
0.04
0.04
0.04
0.04
0.04
0.01
0.04
0.01
0.04
0.01
0.04
0.01
0.01
0.01
0.04
0.04
0.01
0.01
0.01
0.01
0.07
0.09
0.08
0.13
0.13
0.23
0.13
0.12
0.00
0.01
0.01
0.00
0.01
0.01
0.01
0.01
0.01
0.04
0.21
0.69
0.56
0.61
0.55
0.53
0.46
0.07
0.01
0.01
0.01
0.00
0.04
0.01
0.00
0.01
0.01
0.01
0.01
0.01
0.04
0.06
0.07
0.04
0.04
0.04
0.01
0.00
0.01
0.01
0.04
0.01
0.05
0.08
0.07
0.05
0.08
0.01
0.01
0.01
0.01
0.00
0.00
0.01
0.00
0.01
0.01
0.00
0.00
0.00
0.01
0.00
0.01
0.01
0.01
0.00
0.00
0.01
0.01
0.00
0.04
0.01
0.01
0.01
0.01
0.00
0.00
0.00
0.01
0.01
0.01
0.01
0.01
0.01
0.01
0.01
0.01
0.01
0.00
0.04
0.01
0.06
0.04
0.14
0.09
0.04
0.00
0.04
0.07
0.08
0.04
0.04
0.08
0.08
0.15
0.01
0.06
0.59
0.48
0.54
0.56
0.57
0.50
0.19
0.10
0.07
0.05
0.07
0.01
0.01
0.01
0.01
0.01
0.01
0.01
0.01
0.01
0.01
0.01
0.01
0.01
0.01
0.01
0.05
0.10
0.10
0.13
0.13
0.12
0.19
0.08
0.10
0.08
0.04
0.04
0.01
0.01
0.01
0.01
0.01
0.01
0.00
0.01
0.00
0.00
0.01
0.00
0.01
0.00
0.01
0.01
0.00
0.00
0.00
0.01
0.01
0.04
0.00
0.01
0.00
0.00
0.00
0.01
0.04
0.00
0.00
0.00
0.00
0.00
0.00
0.01
0.00
0.00
0.01
0.04
0.06
0.06
0.08
0.26
0.13
0.08
0.09
0.01
0.01
0.01
0.01
0.01
0.01
0.01
0.01
0.07
0.13
0.47
0.24
0.55
0.64
0.55
0.52
0.42
0.04
0.01
0.01
0.00
0.01
0.00
0.00
0.01
0.00
0.01
0.04
0.04
0.06
0.06
0.07
0.08
0.08
0.08
0.11
0.12
0.12
0.09
0.11
0.09
0.07
0.06
0.04
0.01
0.01
0.01
0.01
0.04
0.01
0.01
0.01
0.04
0.04
0.04
0.04
0.04
0.06
0.04
0.07
0.06
0.07
0.07
0.04
0.06
0.06
0.07
0.04
0.04
0.04
0.04
0.04
0.04
0.01
0.04
0.01
0.00
0.01
0.00
0.01
0.01
0.00
0.00
0.00
0.00
0.00
0.04
0.07
0.04
0.13
0.09
0.24
0.13
0.11
0.06
0.01
0.01
0.01
0.00
0.01
0.01
0.01
0.01
0.01
0.13
0.56
0.37
0.62
0.62
0.55
0.48
0.19
0.01
0.04
0.01
0.01
0.00
0.00
0.01
0.00
0.00
0.01
0.01
0.06
0.06
0.07
0.08
0.08
0.08
0.08
0.08
0.07
0.07
0.06
0.01
0.00
0.01
0.01
0.01
0.01
0.04
0.01
0.01
0.01
0.01
0.01
0.00
0.00
0.00
0.01
0.01
0.00
0.01
0.01
0.00
0.00
0.01
0.00
0.00
0.01
0.00
0.01
0.00
0.00
0.00
0.00
0.01
0.00
0.00
0.00
0.01
0.00
0.00
0.01
0.01
0.01
0.01
0.01
0.01
0.01
0.01
0.01
0.01
0.04
0.00
0.06
0.01
0.13
0.06
0.04
0.01
0.07
0.07
0.08
0.07
0.08
0.10
0.08
0.07
0.01
0.09
0.65
0.49
0.55
0.54
0.54
0.51
0.27
0.23
0.13
0.10
0.05
0.05
0.05
0.07
0.01
0.01
0.01
0.01
0.01
0.01
0.01
0.01
0.01
0.01
0.05
0.05
0.08
0.15
0.19
0.19
0.25
0.25
0.28
0.20
0.20
0.13
0.12
0.08
0.08
0.07
0.01
0.04
0.01
0.01
0.01
0.01
0.04
0.04
0.01
0.01
0.05
0.04
0.01
0.01
0.01
0.01
0.01
0.01
0.01
0.01
0.01
0.01
0.01
0.01
0.01
0.01
0.01
0.01
0.01
0.04
0.04
0.05
0.04
0.01
0.05
0.01
0.01
0.01
0.04
0.04
0.14
0.11
0.06
0.04
0.01
0.04
0.08
0.01
0.05
0.08
0.07
0.12
0.05
0.04
0.49
0.27
0.54
0.53
0.54
0.52
0.37
0.13
0.08
0.08
0.01
0.01
0.01
0.01
0.01
0.01
0.01
0.01
0.01
0.00
0.01
0.01
0.01
0.01
0.01
0.01
0.00
0.01
0.01
0.01
0.01
0.01
0.01
0.01
0.01
0.01
0.01
0.01
0.01
0.00
0.00
0.00
0.01
0.00
0.00
0.00
0.04
0.01
0.01
0.04
0.01
0.04
0.01
0.01
0.04
0.04
0.01
0.01
0.01
0.01
0.04
0.01
0.01
0.04
0.01
0.04
0.04
0.01
0.01
0.01
0.04
0.01
0.04
0.04
0.04
0.04
0.01
0.07
0.11
0.13
0.14
0.25
0.23
0.13
0.13
0.01
0.01
0.00
0.01
0.00
0.01
0.01
0.00
0.01
0.21
0.48
0.23
0.57
0.66
0.55
0.51
0.33
0.00
0.00
0.01
0.04
0.07
0.07
0.08
0.08
0.11
0.11
0.13
0.13
0.14
0.14
0.14
0.18
0.21
0.24
0.24
0.23
0.24
0.23
0.24
0.18
0.16
0.13
0.12
0.11
0.11
0.07
0.07
0.07
0.06
0.06
0.09
0.08
0.09
0.08
0.08
0.08
0.08
0.09
0.09
0.08
0.04
0.01
0.07
0.20
0.33
0.20
0.57
0.81
0.90
0.96
0.94
0.89
0.87
0.90
0.94
0.88
0.78
0.50
0.26
0.19
0.27
0.33
0.37
0.41
0.43
0.45
0.46
0.46
0.46
0.49
0.49
0.52
0.50
0.57
0.56
0.54
0.54
0.57
0.57
0.54
0.53
0.56
0.56
0.53
0.46
0.41
0.31
0.15
0.07
0.05
0.01
0.01
0.01
0.01
0.01
0.01
0.01
0.01
0.01
0.00
0.01
0.00
0.01
0.00
0.00
0.00
0.00
0.00
0.00
0.01
0.00
0.01
0.00
0.00
0.00
0.01
0.00
0.00
0.01
0.00
0.00
0.00
0.00
0.01
0.01
0.01
0.00
0.00
0.01
0.01
0.01
0.00
0.00
0.00
0.01
0.01
0.01
0.01
0.00
0.00
0.01
0.01
0.01
0.00
0.00
0.00
0.00
0.01
0.01
0.01
0.01
0.01
0.01
0.01
0.01
0.01
0.01
0.01
0.01
0.04
0.01
0.01
0.01
0.00
0.04
0.04
0.13
0.11
0.04
0.01
0.05
0.05
0.08
0.08
0.12
0.13
0.13
0.28
0.04
0.04
0.62
0.53
0.54
0.57
0.57
0.50
0.23
0.20
0.12
0.07
0.05
0.05
0.04
0.01
0.01
0.01
0.01
0.01
0.01
0.04
0.01
0.01
0.04
0.07
0.08
0.12
0.13
0.13
0.07
0.12
0.12
0.12
0.07
0.08
0.07
0.10
0.12
0.15
0.13
0.13
0.10
0.08
0.08
0.05
0.05
0.04
0.01
0.05
0.05
0.05
0.01
0.01
0.04
0.01
0.01
0.01
0.01
0.01
0.01
0.01
0.01
0.01
0.01
0.01
0.01
0.01
0.04
0.01
0.01
0.01
0.01
0.01
0.00
0.01
0.01
0.12
0.12
0.08
0.01
0.01
0.04
0.05
0.07
0.07
0.10
0.12
0.13
0.20
0.00
0.24
0.57
0.57
0.58
0.54
0.57
0.51
0.23
0.15
0.08
0.07
0.01
0.04
0.01
0.01
0.01
0.01
0.01
0.01
0.00
0.00
0.01
0.01
0.01
0.04
0.01
0.04
0.06
0.04
0.04
0.00
0.04
0.01
0.01
0.01
0.01
0.00
0.01
0.01
0.01
0.01
0.01
0.01
0.00
0.01
0.00
0.00
0.00
0.01
0.01
0.01
0.01
0.01
0.00
0.01
0.01
0.01
0.00
0.00
0.01
0.01
0.01
0.01
0.01
0.01
0.01
0.01
0.01
0.01
0.01
0.01
0.01
0.04
0.04
0.07
0.09
0.24
0.13
0.13
0.06
0.00
0.01
0.01
0.01
0.01
0.01
0.04
0.07
0.08
0.14
0.48
0.08
0.61
0.71
0.57
0.53
0.37
0.01
0.01
0.01
0.01
0.01
0.00
0.04
0.04
0.01
0.04
0.04
0.06
0.08
0.09
0.12
0.12
0.13
0.13
0.16
0.16
0.14
0.13
0.13
0.11
0.08
0.09
0.04
0.04
0.00
0.01
0.00
0.00
0.00
0.00
0.00
0.00
0.01
0.00
0.00
0.01
0.00
0.00
0.00
0.00
0.00
0.00
0.00
0.01
0.00
0.01
0.00
0.01
0.00
0.01
0.00
0.00
0.01
0.01
0.00
0.01
0.00
0.00
0.00
0.01
0.00
0.00
0.01
0.00
0.04
0.07
0.04
0.09
0.12
0.18
0.04
0.07
0.01
0.07
0.01
0.04
0.01
0.01
0.05
0.05
0.05
0.01
0.08
0.70
0.57
0.65
0.54
0.53
0.46
0.05
0.01
0.04
0.01
0.01
0.00
0.01
0.01
0.01
0.00
0.01
0.01
0.01
0.04
0.04
0.04
0.04
0.04
0.04
0.04
0.01
0.01
0.01
0.01
0.01
0.04
0.05
0.05
0.08
0.07
0.07
0.05
0.05
0.01
0.01
0.01
0.01
0.01
0.01
0.01
0.01
0.01
0.01
0.01
0.01
0.01
0.00
0.01
0.01
0.01
0.01
0.01
0.01
0.01
0.01
0.00
0.01
0.01
0.01
0.01
0.01
0.01
0.01
0.01
0.01
0.01
0.01
0.01
0.01
0.01
0.01
0.13
0.07
0.01
0.01
0.08
0.10
0.12
0.04
0.12
0.12
0.13
0.15
0.25
0.01
0.16
0.63
0.57
0.55
0.54
0.56
0.50
0.15
0.15
0.19
0.12
0.08
0.05
0.01
0.07
0.04
0.04
0.08
0.01
0.05
0.08
0.07
0.08
0.08
0.10
0.08
0.15
0.15
0.23
0.25
0.25
0.25
0.23
0.27
0.19
0.20
0.12
0.10
0.05
0.01
0.04
0.04
0.01
0.01
0.01
0.01
0.01
0.01
0.07
0.01
0.01
0.01
0.01
0.01
0.01
0.01
0.01
0.01
0.01
0.01
0.01
0.01
0.01
0.01
0.01
0.01
0.01
0.01
0.01
0.01
0.01
0.01
0.01
0.00
0.01
0.00
0.07
0.09
0.13
0.11
0.07
0.01
0.01
0.01
0.01
0.01
0.04
0.04
0.04
0.10
0.04
0.24
0.62
0.54
0.59
0.53
0.57
0.51
0.15
0.07
0.04
0.01
0.01
0.01
0.00
0.00
0.00
0.00
0.01
0.01
0.04
0.04
0.06
0.08
0.09
0.08
0.11
0.11
0.08
0.11
0.09
0.07
0.04
0.04
0.01
0.01
0.01
0.00
0.00
0.01
0.00
0.01
0.01
0.01
0.01
0.04
0.01
0.01
0.04
0.04
0.01
0.01
0.01
0.04
0.04
0.04
0.04
0.04
0.01
0.04
0.04
0.06
0.01
0.04
0.01
0.04
0.01
0.04
0.01
0.01
0.00
0.04
0.01
0.04
0.04
0.07
0.11
0.07
0.14
0.18
0.26
0.14
0.12
0.01
0.00
0.01
0.01
0.00
0.01
0.00
0.01
0.01
0.12
0.23
0.68
0.54
0.66
0.54
0.54
0.45
0.01
0.01
0.01
0.00
0.01
0.04
0.04
0.04
0.06
0.04
0.07
0.08
0.11
0.11
0.13
0.12
0.13
0.13
0.13
0.13
0.13
0.12
0.09
0.07
0.06
0.06
0.01
0.01
0.00
0.00
0.00
0.01
0.04
0.01
0.04
0.04
0.04
0.04
0.04
0.04
0.01
0.01
0.04
0.04
0.04
0.04
0.06
0.04
0.04
0.06
0.04
0.06
0.04
0.04
0.04
0.04
0.04
0.04
0.01
0.01
0.00
0.01
0.00
0.01
0.00
0.01
0.01
0.00
0.01
0.06
0.04
0.08
0.07
0.16
0.13
0.06
0.04
0.04
0.04
0.04
0.01
0.01
0.01
0.01
0.01
0.12
0.11
0.24
0.48
0.53
0.66
0.54
0.54
0.42
0.04
0.07
0.04
0.01
0.01
0.01
0.01
0.01
0.00
0.00
0.01
0.00
0.00
0.01
0.00
0.01
0.00
0.01
0.00
0.01
0.01
0.05
0.05
0.10
0.12
0.19
0.20
0.20
0.19
0.13
0.12
0.04
0.01
0.01
0.01
0.01
0.01
0.01
0.01
0.01
0.01
0.01
0.01
0.01
0.01
0.01
0.01
0.00
0.01
0.01
0.01
0.01
0.01
0.01
0.01
0.01
0.01
0.01
0.01
0.01
0.01
0.01
0.04
0.01
0.01
0.01
0.01
0.01
0.01
0.01
0.00
0.01
0.01
0.01
0.11
0.11
0.04
0.00
0.05
0.12
0.08
0.07
0.07
0.10
0.10
0.08
0.20
0.01
0.26
0.60
0.57
0.55
0.56
0.54
0.48
0.12
0.15
0.07
0.10
0.05
0.04
0.01
0.01
0.01
0.01
0.01
0.01
0.01
0.01
0.01
0.01
0.04
0.04
0.04
0.07
0.07
0.08
0.12
0.13
0.19
0.15
0.15
0.10
0.12
0.08
0.04
0.04
0.01
0.01
0.01
0.01
0.01
0.01
0.01
0.01
0.01
0.01
0.01
0.01
0.01
0.01
0.00
0.01
0.01
0.01
0.01
0.01
0.01
0.00
0.01
0.01
0.01
0.01
0.01
0.01
0.01
0.01
0.01
0.01
0.01
0.01
0.01
0.01
0.00
0.01
0.01
0.07
0.09
0.14
0.04
0.01
0.01
0.07
0.05
0.01
0.07
0.05
0.05
0.07
0.07
0.08
0.30
0.62
0.57
0.61
0.53
0.57
0.48
0.08
0.01
0.04
0.01
0.01
0.01
0.01
0.01
0.00
0.01
0.01
0.04
0.04
0.06
0.07
0.07
0.08
0.09
0.11
0.09
0.13
0.11
0.09
0.06
0.06
0.06
0.04
0.01
0.00
0.00
0.01
0.00
0.01
0.01
0.01
0.01
0.01
0.01
0.01
0.01
0.01
0.01
0.01
0.01
0.01
0.04
0.04
0.01
0.01
0.01
0.00
0.01
0.01
0.00
0.00
0.00
0.00
0.00
0.00
0.00
0.00
0.01
0.01
0.01
0.01
0.00
0.01
0.01
0.04
0.07
0.04
0.13
0.13
0.18
0.08
0.11
0.00
0.01
0.01
0.01
0.01
0.01
0.01
0.01
0.01
0.06
0.18
0.66
0.56
0.65
0.57
0.54
0.47
0.07
0.01
0.01
0.01
0.00
0.00
0.01
0.04
0.04
0.06
0.08
0.11
0.07
0.11
0.11
0.13
0.13
0.13
0.14
0.14
0.13
0.13
0.11
0.11
0.06
0.04
0.01
0.00
0.01
0.01
0.00
0.01
0.00
0.00
0.01
0.01
0.01
0.01
0.01
0.00
0.00
0.00
0.01
0.01
0.01
0.01
0.01
0.04
0.01
0.04
0.01
0.04
0.01
0.04
0.04
0.01
0.04
0.04
0.01
0.01
0.00
0.00
0.00
0.00
0.00
0.01
0.01
0.00
0.00
0.00
0.00
0.00
0.08
0.04
0.08
0.04
0.24
0.09
0.06
0.04
0.04
0.04
0.01
0.01
0.01
0.01
0.01
0.04
0.01
0.13
0.56
0.33
0.55
0.60
0.55
0.48
0.25
0.01
0.01
0.01
0.01
0.01
0.00
0.01
0.01
0.01
0.01
0.00
0.01
0.01
0.04
0.01
0.04
0.01
0.01
0.01
0.00
0.01
0.01
0.07
0.05
0.10
0.08
0.10
0.08
0.08
0.08
0.04
0.04
0.01
0.01
0.01
0.01
0.01
0.01
0.00
0.01
0.01
0.01
0.01
0.01
0.01
0.01
0.01
0.01
0.01
0.01
0.00
0.01
0.01
0.01
0.01
0.00
0.01
0.01
0.01
0.01
0.01
0.01
0.01
0.01
0.01
0.01
0.01
0.01
0.04
0.01
0.00
0.04
0.00
0.04
0.01
0.14
0.07
0.04
0.01
0.07
0.07
0.07
0.04
0.01
0.05
0.07
0.12
0.00
0.13
0.65
0.52
0.54
0.57
0.56
0.49
0.13
0.08
0.01
0.01
0.01
0.01
0.01
0.01
0.01
0.01
0.01
0.01
0.01
0.01
0.01
0.01
0.01
0.01
0.01
0.05
0.04
0.07
0.07
0.10
0.15
0.12
0.08
0.08
0.08
0.07
0.01
0.01
0.01
0.01
0.01
0.00
0.00
0.01
0.00
0.00
0.00
0.01
0.01
0.00
0.00
0.01
0.01
0.01
0.01
0.01
0.01
0.01
0.01
0.01
0.01
0.01
0.01
0.01
0.01
0.01
0.01
0.01
0.01
0.01
0.01
0.00
0.00
0.00
0.00
0.07
0.04
0.12
0.12
0.16
0.12
0.11
0.04
0.01
0.01
0.01
0.05
0.01
0.01
0.01
0.05
0.07
0.26
0.62
0.54
0.58
0.53
0.56
0.51
0.13
0.05
0.01
0.01
0.01
0.00
0.00
0.00
0.04
0.04
0.04
0.01
0.04
0.04
0.08
0.09
0.08
0.07
0.09
0.08
0.11
0.09
0.09
0.08
0.08
0.04
0.04
0.01
0.01
0.01
0.01
0.01
0.00
0.01
0.01
0.04
0.01
0.01
0.04
0.01
0.04
0.04
0.04
0.04
0.01
0.06
0.04
0.06
0.04
0.04
0.04
0.04
0.04
0.04
0.04
0.01
0.01
0.01
0.01
0.01
0.01
0.01
0.01
0.01
0.01
0.01
0.01
0.01
0.01
0.07
0.11
0.09
0.13
0.24
0.23
0.14
0.11
0.01
0.01
0.00
0.01
0.00
0.01
0.00
0.01
0.01
0.16
0.33
0.58
0.54
0.67
0.53
0.54
0.40
0.01
0.01
0.01
0.01
0.01
0.04
0.04
0.04
0.06
0.07
0.08
0.09
0.09
0.13
0.13
0.14
0.16
0.16
0.14
0.18
0.14
0.14
0.13
0.13
0.08
0.08
0.04
0.04
0.01
0.01
0.00
0.01
0.01
0.04
0.04
0.04
0.04
0.04
0.01
0.04
0.04
0.04
0.07
0.04
0.04
0.04
0.04
0.06
0.04
0.04
0.06
0.04
0.06
0.04
0.04
0.06
0.04
0.01
0.01
0.04
0.01
0.01
0.01
0.00
0.01
0.01
0.04
0.01
0.01
0.00
0.00
0.08
0.09
0.04
0.12
0.13
0.21
0.07
0.06
0.01
0.01
0.01
0.01
0.01
0.01
0.01
0.01
0.01
0.04
0.13
0.69
0.56
0.63
0.53
0.54
0.46
0.07
0.01
0.01
0.01
0.01
0.00
0.01
0.01
0.01
0.01
0.00
0.01
0.00
0.01
0.04
0.04
0.01
0.00
0.01
0.00
0.00
0.00
0.01
0.04
0.07
0.07
0.10
0.07
0.08
0.05
0.01
0.01
0.01
0.01
0.00
0.00
0.01
0.01
0.00
0.00
0.00
0.00
0.01
0.01
0.00
0.00
0.00
0.01
0.00
0.00
0.00
0.00
0.00
0.01
0.00
0.01
0.01
0.01
0.01
0.01
0.01
0.01
0.00
0.01
0.01
0.01
0.00
0.01
0.01
0.01
0.00
0.01
0.06
0.06
0.18
0.09
0.04
0.00
0.07
0.08
0.08
0.07
0.07
0.05
0.10
0.08
0.01
0.06
0.59
0.46
0.54
0.54
0.54
0.52
0.33
0.15
0.13
0.08
0.04
0.04
0.04
0.01
0.01
0.01
0.05
0.01
0.01
0.01
0.01
0.01
0.01
0.01
0.04
0.07
0.08
0.10
0.08
0.08
0.13
0.13
0.12
0.10
0.08
0.05
0.04
0.01
0.01
0.01
0.01
0.01
0.01
0.01
0.01
0.01
0.01
0.01
0.01
0.01
0.01
0.00
0.01
0.00
0.01
0.01
0.01
0.01
0.01
0.00
0.01
0.01
0.01
0.01
0.01
0.01
0.01
0.01
0.01
0.01
0.01
0.00
0.01
0.01
0.04
0.07
0.01
0.11
0.11
0.23
0.11
0.04
0.00
0.01
0.01
0.01
0.04
0.01
0.05
0.08
0.05
0.01
0.16
0.58
0.50
0.59
0.55
0.53
0.50
0.23
0.05
0.04
0.01
0.01
0.01
0.00
0.00
0.00
0.01
0.00
0.04
0.08
0.04
0.04
0.04
0.09
0.08
0.11
0.12
0.11
0.11
0.07
0.07
0.07
0.07
0.01
0.01
0.00
0.00
0.01
0.00
0.01
0.00
0.00
0.00
0.00
0.01
0.01
0.00
0.00
0.01
0.01
0.01
0.01
0.01
0.04
0.01
0.04
0.01
0.01
0.04
0.01
0.01
0.01
0.01
0.04
0.01
0.01
0.01
0.01
0.01
0.01
0.01
0.04
0.01
0.01
0.01
0.07
0.11
0.11
0.13
0.24
0.18
0.16
0.11
0.01
0.00
0.01
0.00
0.01
0.01
0.01
0.01
0.01
0.16
0.30
0.50
0.55
0.69
0.55
0.56
0.43
0.01
0.00
0.01
0.00
0.01
0.01
0.04
0.06
0.06
0.07
0.09
0.09
0.11
0.12
0.13
0.14
0.13
0.14
0.16
0.18
0.16
0.14
0.13
0.13
0.09
0.08
0.06
0.01
0.01
0.00
0.00
0.01
0.00
0.01
0.01
0.01
0.01
0.04
0.04
0.04
0.04
0.04
0.04
0.06
0.04
0.04
0.04
0.06
0.04
0.06
0.06
0.06
0.04
0.04
0.04
0.04
0.04
0.04
0.06
0.01
0.01
0.01
0.04
0.00
0.01
0.04
0.01
0.04
0.01
0.07
0.09
0.09
0.08
0.24
0.13
0.08
0.08
0.01
0.01
0.01
0.01
0.01
0.04
0.01
0.07
0.12
0.07
0.38
0.35
0.54
0.65
0.53
0.53
0.45
0.08
0.07
0.04
0.01
0.01
0.01
0.01
0.01
0.01
0.01
0.01
0.01
0.01
0.00
0.00
0.00
0.00
0.01
0.01
0.01
0.04
0.01
0.07
0.08
0.12
0.12
0.13
0.12
0.10
0.07
0.07
0.04
0.01
0.01
0.01
0.01
0.01
0.01
0.01
0.01
0.01
0.01
0.01
0.01
0.01
0.01
0.01
0.01
0.01
0.01
0.00
0.00
0.00
0.01
0.00
0.01
0.01
0.01
0.01
0.00
0.01
0.01
0.01
0.01
0.01
0.01
0.01
0.01
0.01
0.04
0.01
0.18
0.13
0.04
0.04
0.01
0.07
0.08
0.01
0.07
0.08
0.08
0.08
0.20
0.01
0.37
0.24
0.53
0.58
0.53
0.53
0.45
0.08
0.10
0.07
0.05
0.01
0.01
0.01
0.00
0.01
0.01
0.01
0.01
0.01
0.01
0.01
0.00
0.00
0.01
0.00
0.01
0.00
0.01
0.00
0.01
0.01
0.01
0.01
0.01
0.01
0.00
0.01
0.01
0.00
0.01
0.00
0.00
0.01
0.01
0.00
0.01
0.00
0.01
0.01
0.01
0.01
0.01
0.01
0.01
0.04
0.04
0.01
0.01
0.04
0.04
0.04
0.04
0.04
0.01
0.01
0.01
0.04
0.01
0.01
0.04
0.00
0.01
0.01
0.04
0.08
0.12
0.13
0.12
0.24
0.14
0.11
0.08
0.01
0.01
0.01
0.00
0.01
0.01
0.01
0.01
0.01
0.18
0.48
0.14
0.59
0.66
0.54
0.52
0.37
0.01
0.01
0.01
0.01
0.01
0.04
0.06
0.07
0.06
0.07
0.09
0.11
0.11
0.13
0.14
0.16
0.18
0.18
0.24
0.24
0.24
0.24
0.23
0.16
0.16
0.12
0.13
0.08
0.08
0.04
0.04
0.04
0.04
0.07
0.06
0.07
0.04
0.04
0.07
0.04
0.04
0.04
0.06
0.04
0.06
0.04
0.07
0.06
0.06
0.04
0.06
0.06
0.07
0.06
0.04
0.04
0.04
0.04
0.04
0.01
0.01
0.01
0.01
0.01
0.01
0.01
0.00
0.00
0.07
0.07
0.06
0.11
0.24
0.18
0.09
0.07
0.01
0.01
0.01
0.00
0.01
0.01
0.01
0.01
0.05
0.13
0.21
0.59
0.53
0.66
0.54
0.54
0.41
0.01
0.01
0.01
0.01
0.00
0.04
0.01
0.04
0.04
0.07
0.06
0.08
0.08
0.11
0.11
0.11
0.11
0.11
0.11
0.09
0.07
0.11
0.07
0.04
0.00
0.00
0.01
0.00
0.01
0.01
0.00
0.00
0.01
0.01
0.04
0.06
0.04
0.04
0.04
0.04
0.04
0.01
0.04
0.04
0.01
0.04
0.04
0.04
0.04
0.04
0.01
0.04
0.01
0.04
0.01
0.00
0.00
0.01
0.00
0.00
0.00
0.00
0.00
0.01
0.00
0.00
0.01
0.01
0.01
0.00
0.04
0.04
0.06
0.06
0.13
0.12
0.07
0.04
0.01
0.04
0.04
0.01
0.05
0.01
0.05
0.04
0.12
0.07
0.25
0.62
0.54
0.59
0.54
0.53
0.46
0.07
0.08
0.05
0.07
0.01
0.05
0.01
0.01
0.01
0.01
0.01
0.01
0.01
0.01
0.01
0.01
0.01
0.01
0.01
0.05
0.07
0.08
0.10
0.20
0.13
0.20
0.19
0.13
0.12
0.07
0.07
0.07
0.01
0.01
0.01
0.01
0.01
0.01
0.01
0.01
0.01
0.01
0.01
0.01
0.01
0.01
0.00
0.01
0.00
0.01
0.01
0.01
0.01
0.01
0.01
0.01
0.04
0.01
0.00
0.01
0.01
0.01
0.01
0.01
0.01
0.01
0.01
0.01
0.01
0.01
0.01
0.01
0.07
0.01
0.16
0.07
0.04
0.00
0.07
0.05
0.05
0.04
0.07
0.07
0.07
0.12
0.01
0.08
0.56
0.45
0.54
0.55
0.54
0.53
0.31
0.12
0.05
0.07
0.01
0.01
0.01
0.01
0.00
0.00
0.01
0.01
0.04
0.01
0.04
0.04
0.04
0.06
0.04
0.04
0.06
0.04
0.06
0.04
0.04
0.01
0.01
0.01
0.01
0.00
0.01
0.01
0.01
0.01
0.01
0.01
0.01
0.00
0.01
0.04
0.01
0.01
0.04
0.01
0.01
0.01
0.04
0.06
0.04
0.01
0.04
0.04
0.04
0.04
0.01
0.01
0.04
0.01
0.01
0.04
0.04
0.01
0.01
0.01
0.04
0.01
0.04
0.00
0.00
0.04
0.08
0.04
0.13
0.08
0.24
0.11
0.07
0.01
0.01
0.01
0.01
0.01
0.01
0.04
0.01
0.04
0.01
0.16
0.59
0.51
0.62
0.62
0.54
0.48
0.13
0.01
0.01
0.01
0.01
0.01
0.01
0.04
0.06
0.07
0.08
0.08
0.11
0.11
0.12
0.14
0.14
0.16
0.14
0.13
0.14
0.14
0.14
0.13
0.09
0.09
0.07
0.04
0.01
0.01
0.01
0.01
0.01
0.01
0.01
0.01
0.04
0.04
0.01
0.01
0.01
0.01
0.04
0.01
0.01
0.04
0.01
0.04
0.04
0.01
0.04
0.04
0.01
0.01
0.01
0.01
0.01
0.00
0.01
0.01
0.01
0.01
0.00
0.00
0.00
0.00
0.01
0.00
0.01
0.00
0.04
0.07
0.04
0.09
0.16
0.18
0.08
0.07
0.01
0.01
0.01
0.01
0.04
0.01
0.01
0.01
0.07
0.08
0.14
0.62
0.54
0.65
0.54
0.56
0.42
0.05
0.01
0.01
0.01
0.01
0.01
0.01
0.00
0.01
0.00
0.01
0.00
0.01
0.01
0.04
0.07
0.04
0.01
0.04
0.04
0.01
0.00
0.00
0.01
0.01
0.07
0.01
0.05
0.05
0.07
0.04
0.04
0.01
0.01
0.01
0.01
0.01
0.01
0.01
0.01
0.01
0.01
0.01
0.01
0.01
0.00
0.00
0.01
0.00
0.01
0.01
0.00
0.01
0.00
0.00
0.00
0.01
0.01
0.01
0.01
0.00
0.01
0.01
0.01
0.01
0.01
0.01
0.01
0.01
0.01
0.01
0.01
0.01
0.00
0.14
0.04
0.01
0.01
0.05
0.08
0.13
0.08
0.12
0.10
0.12
0.13
0.25
0.00
0.18
0.49
0.54
0.59
0.54
0.53
0.46
0.19
0.20
0.15
0.12
0.13
0.10
0.08
0.08
0.04
0.04
0.05
0.01
0.04
0.04
0.01
0.07
0.04
0.07
0.10
0.08
0.07
0.13
0.13
0.23
0.23
0.19
0.19
0.23
0.15
0.13
0.08
0.10
0.08
0.07
0.04
0.04
0.05
0.05
0.01
0.01
0.05
0.05
0.04
0.04
0.01
0.01
0.04
0.01
0.01
0.01
0.01
0.01
0.01
0.01
0.01
0.01
0.01
0.01
0.01
0.01
0.04
0.01
0.01
0.01
0.01
0.01
0.05
0.01
0.01
0.00
0.01
0.07
0.13
0.09
0.04
0.01
0.07
0.05
0.10
0.12
0.12
0.15
0.13
0.20
0.01
0.07
0.56
0.53
0.55
0.54
0.57
0.53
0.20
0.19
0.10
0.08
0.05
0.01
0.01
0.01
0.01
0.01
0.01
0.00
0.00
0.01
0.01
0.00
0.00
0.00
0.01
0.00
0.00
0.00
0.00
0.01
0.00
0.01
0.01
0.01
0.01
0.01
0.01
0.01
0.01
0.01
0.01
0.00
0.01
0.00
0.01
0.00
0.01
0.01
0.01
0.01
0.00
0.01
0.01
0.01
0.01
0.01
0.00
0.01
0.00
0.01
0.01
0.01
0.01
0.01
0.01
0.01
0.01
0.01
0.01
0.01
0.01
0.01
0.01
0.01
0.00
0.06
0.04
0.08
0.13
0.16
0.11
0.06
0.01
0.01
0.01
0.01
0.01
0.05
0.04
0.07
0.10
0.07
0.21
0.59
0.54
0.67
0.54
0.57
0.45
0.05
0.01
0.01
0.01
0.00
0.00
0.00
0.04
0.01
0.01
0.06
0.07
0.08
0.08
0.11
0.11
0.12
0.14
0.13
0.14
0.12
0.14
0.12
0.13
0.11
0.09
0.06
0.04
0.01
0.04
0.01
0.01
0.01
0.01
0.01
0.01
0.01
0.00
0.01
0.01
0.01
0.01
0.01
0.01
0.04
0.01
0.01
0.00
0.01
0.01
0.01
0.01
0.00
0.00
0.00
0.00
0.00
0.00
0.01
0.01
0.01
0.00
0.00
0.01
0.00
0.00
0.01
0.01
0.01
0.00
0.01
0.08
0.07
0.09
0.09
0.23
0.16
0.08
0.07
0.01
0.01
0.01
0.00
0.00
0.01
0.01
0.01
0.04
0.16
0.32
0.51
0.54
0.65
0.54
0.53
0.38
0.01
0.01
0.01
0.01
0.01
0.01
0.01
0.01
0.01
0.01
0.04
0.04
0.06
0.04
0.08
0.07
0.07
0.07
0.07
0.08
0.06
0.04
0.01
0.01
0.01
0.01
0.01
0.01
0.01
0.01
0.01
0.01
0.01
0.00
0.00
0.01
0.01
0.04
0.01
0.01
0.00
0.01
0.01
0.04
0.01
0.01
0.01
0.04
0.04
0.04
0.04
0.01
0.04
0.00
0.04
0.01
0.04
0.00
0.01
0.00
0.00
0.01
0.01
0.01
0.00
0.01
0.00
0.00
0.00
0.04
0.08
0.04
0.07
0.12
0.21
0.08
0.08
0.01
0.05
0.04
0.04
0.04
0.01
0.04
0.05
0.07
0.01
0.08
0.66
0.52
0.54
0.54
0.54
0.48
0.12
0.12
0.08
0.07
0.04
0.01
0.01
0.01
0.01
0.01
0.01
0.01
0.01
0.01
0.01
0.01
0.01
0.01
0.01
0.08
0.07
0.08
0.15
0.19
0.15
0.20
0.19
0.13
0.13
0.12
0.07
0.01
0.01
0.01
0.01
0.01
0.01
0.01
0.01
0.01
0.01
0.01
0.01
0.01
0.01
0.01
0.01
0.01
0.01
0.01
0.01
0.01
0.01
0.00
0.00
0.00
0.01
0.00
0.00
0.01
0.00
0.00
0.01
0.00
0.00
0.01
0.01
0.00
0.04
0.04
0.07
0.04
0.23
0.13
0.11
0.09
0.01
0.01
0.05
0.01
0.04
0.05
0.05
0.08
0.23
0.04
0.44
0.07
0.54
0.54
0.54
0.52
0.43
0.07
0.10
0.07
0.01
0.01
0.01
0.01
0.01
0.01
0.01
0.01
0.04
0.01
0.04
0.07
0.07
0.08
0.04
0.07
0.07
0.07
0.07
0.06
0.04
0.04
0.04
0.04
0.01
0.01
0.01
0.04
0.01
0.04
0.01
0.04
0.01
0.04
0.04
0.04
0.04
0.04
0.04
0.04
0.04
0.06
0.04
0.04
0.04
0.04
0.04
0.01
0.04
0.04
0.01
0.01
0.01
0.04
0.04
0.04
0.01
0.04
0.01
0.04
0.04
0.04
0.04
0.04
0.04
0.07
0.13
0.11
0.18
0.16
0.25
0.21
0.11
0.06
0.01
0.00
0.01
0.01
0.01
0.01
0.01
0.01
0.04
0.14
0.64
0.54
0.65
0.61
0.54
0.48
0.07
0.00
0.01
0.01
0.01
0.04
0.01
0.04
0.07
0.07
0.08
0.07
0.09
0.11
0.12
0.14
0.13
0.14
0.14
0.16
0.21
0.16
0.16
0.13
0.13
0.11
0.08
0.07
0.06
0.01
0.01
0.00
0.01
0.01
0.04
0.04
0.01
0.01
0.01
0.04
0.01
0.01
0.01
0.01
0.01
0.01
0.04
0.01
0.01
0.01
0.01
0.01
0.04
0.01
0.01
0.01
0.00
0.01
0.01
0.00
0.00
0.00
0.00
0.01
0.01
0.00
0.00
0.01
0.01
0.01
0.01
0.06
0.04
0.09
0.14
0.14
0.06
0.07
0.01
0.05
0.01
0.01
0.01
0.01
0.01
0.01
0.04
0.01
0.09
0.67
0.53
0.62
0.54
0.55
0.48
0.12
0.01
0.01
0.01
0.01
0.00
0.00
0.00
0.01
0.01
0.01
0.04
0.04
0.01
0.01
0.01
0.07
0.07
0.04
0.04
0.04
0.01
0.04
0.00
0.01
0.01
0.01
0.01
0.01
0.01
0.01
0.01
0.01
0.00
0.01
0.04
0.04
0.01
0.04
0.01
0.01
0.01
0.01
0.01
0.04
0.01
0.01
0.00
0.01
0.01
0.00
0.01
0.00
0.01
0.01
0.00
0.00
0.00
0.01
0.01
0.00
0.00
0.00
0.00
0.00
0.01
0.00
0.01
0.01
0.01
0.01
0.01
0.01
0.07
0.01
0.06
0.08
0.16
0.04
0.00
0.01
0.08
0.08
0.07
0.04
0.01
0.07
0.04
0.07
0.00
0.12
0.69
0.56
0.57
0.54
0.57
0.46
0.08
0.05
0.04
0.05
0.01
0.01
0.01
0.01
0.01
0.01
0.01
0.00
0.01
0.00
0.00
0.01
0.01
0.01
0.01
0.04
0.10
0.12
0.13
0.15
0.19
0.20
0.15
0.19
0.15
0.08
0.08
0.04
0.01
0.01
0.01
0.01
0.01
0.01
0.01
0.01
0.01
0.01
0.01
0.01
0.01
0.01
0.01
0.01
0.01
0.01
0.01
0.01
0.01
0.01
0.01
0.01
0.01
0.01
0.01
0.01
0.01
0.04
0.01
0.01
0.04
0.01
0.01
0.01
0.00
0.01
0.01
0.00
0.13
0.09
0.04
0.01
0.04
0.08
0.08
0.07
0.10
0.12
0.13
0.12
0.20
0.00
0.18
0.59
0.57
0.54
0.54
0.54
0.51
0.13
0.15
0.07
0.05
0.04
0.01
0.01
0.01
0.01
0.01
0.01
0.01
0.01
0.01
0.01
0.01
0.01
0.01
0.01
0.01
0.05
0.01
0.01
0.04
0.05
0.07
0.08
0.04
0.04
0.04
0.01
0.01
0.01
0.01
0.01
0.01
0.01
0.00
0.00
0.00
0.01
0.00
0.00
0.00
0.00
0.00
0.01
0.00
0.01
0.00
0.01
0.00
0.00
0.01
0.01
0.00
0.01
0.01
0.00
0.00
0.00
0.01
0.00
0.00
0.01
0.00
0.00
0.01
0.06
0.08
0.08
0.12
0.11
0.24
0.14
0.11
0.06
0.01
0.01
0.01
0.01
0.01
0.01
0.01
0.04
0.05
0.16
0.48
0.08
0.59
0.64
0.54
0.50
0.31
0.01
0.01
0.01
0.01
0.00
0.01
0.06
0.04
0.06
0.04
0.07
0.07
0.09
0.09
0.11
0.12
0.13
0.13
0.14
0.13
0.14
0.13
0.14
0.13
0.13
0.11
0.08
0.06
0.06
0.04
0.07
0.04
0.04
0.04
0.04
0.07
0.04
0.06
0.06
0.01
0.06
0.07
0.08
0.06
0.07
0.08
0.08
0.04
0.06
0.07
0.07
0.07
0.06
0.04
0.07
0.07
0.06
0.06
0.06
0.04
0.04
0.04
0.04
0.01
0.01
0.01
0.01
0.01
0.01
0.06
0.09
0.07
0.09
0.12
0.24
0.11
0.08
0.04
0.01
0.01
0.01
0.00
0.01
0.01
0.01
0.01
0.01
0.23
0.67
0.53
0.63
0.57
0.53
0.46
0.01
0.01
0.01
0.01
0.01
0.01
0.04
0.04
0.04
0.04
0.04
0.08
0.08
0.09
0.09
0.08
0.12
0.09
0.09
0.08
0.08
0.07
0.06
0.01
0.01
0.01
0.00
0.00
0.01
0.01
0.00
0.00
0.01
0.01
0.00
0.00
0.01
0.01
0.01
0.00
0.00
0.01
0.01
0.01
0.04
0.01
0.01
0.01
0.04
0.04
0.06
0.04
0.06
0.04
0.04
0.04
0.04
0.04
0.04
0.01
0.04
0.04
0.04
0.04
0.01
0.01
0.01
0.01
0.04
0.04
0.01
0.07
0.09
0.06
0.11
0.14
0.21
0.08
0.04
0.01
0.01
0.01
0.01
0.01
0.01
0.01
0.04
0.05
0.04
0.14
0.67
0.54
0.62
0.54
0.57
0.46
0.10
0.10
0.05
0.04
0.01
0.01
0.01
0.01
0.01
0.01
0.01
0.01
0.00
0.01
0.01
0.00
0.00
0.01
0.01
0.01
0.01
0.01
0.07
0.12
0.07
0.15
0.13
0.12
0.10
0.05
0.01
0.01
0.01
0.01
0.01
0.01
0.00
0.01
0.01
0.01
0.01
0.00
0.00
0.00
0.01
0.01
0.01
0.00
0.00
0.01
0.01
0.01
0.01
0.01
0.01
0.01
0.01
0.01
0.01
0.01
0.01
0.01
0.04
0.01
0.05
0.01
0.04
0.01
0.01
0.01
0.01
0.00
0.14
0.06
0.00
0.00
0.08
0.10
0.10
0.07
0.10
0.08
0.07
0.13
0.23
0.01
0.43
0.24
0.53
0.54
0.53
0.52
0.43
0.07
0.10
0.01
0.01
0.01
0.01
0.01
0.01
0.00
0.00
0.01
0.00
0.00
0.00
0.00
0.01
0.00
0.01
0.00
0.00
0.01
0.01
0.01
0.01
0.01
0.01
0.01
0.01
0.01
0.01
0.01
0.01
0.01
0.01
0.00
0.00
0.00
0.00
0.00
0.00
0.01
0.01
0.00
0.00
0.01
0.01
0.01
0.01
0.01
0.04
0.01
0.01
0.00
0.00
0.01
0.01
0.01
0.00
0.01
0.01
0.00
0.01
0.04
0.00
0.01
0.00
0.01
0.01
0.01
0.09
0.11
0.08
0.13
0.13
0.24
0.11
0.07
0.00
0.01
0.01
0.01
0.01
0.01
0.01
0.01
0.01
0.13
0.30
0.64
0.56
0.65
0.54
0.57
0.46
0.01
0.01
0.01
0.01
0.01
0.01
0.04
0.04
0.07
0.07
0.07
0.08
0.09
0.12
0.12
0.13
0.13
0.13
0.16
0.16
0.14
0.14
0.13
0.13
0.12
0.11
0.09
0.06
0.06
0.01
0.04
0.04
0.06
0.04
0.04
0.01
0.04
0.06
0.04
0.04
0.04
0.04
0.04
0.07
0.04
0.07
0.06
0.07
0.06
0.07
0.07
0.08
0.07
0.04
0.04
0.04
0.04
0.04
0.04
0.04
0.04
0.01
0.01
0.04
0.01
0.04
0.01
0.04
0.11
0.11
0.11
0.13
0.23
0.18
0.08
0.11
0.01
0.01
0.01
0.00
0.01
0.01
0.01
0.01
0.04
0.16
0.25
0.54
0.54
0.65
0.54
0.53
0.40
0.01
0.01
0.01
0.01
0.01
0.00
0.01
0.01
0.00
0.04
0.04
0.06
0.04
0.04
0.07
0.04
0.07
0.04
0.06
0.07
0.04
0.01
0.01
0.00
0.01
0.00
0.01
0.01
0.01
0.01
0.01
0.00
0.00
0.01
0.01
0.01
0.04
0.04
0.01
0.04
0.01
0.04
0.04
0.01
0.01
0.01
0.04
0.01
0.04
0.01
0.01
0.01
0.01
0.01
0.01
0.01
0.01
0.01
0.00
0.00
0.01
0.01
0.01
0.01
0.01
0.01
0.01
0.01
0.05
0.05
0.01
0.01
0.01
0.00
0.01
0.07
0.07
0.01
0.01
0.01
0.00
0.11
0.50
0.62
0.54
0.62
0.67
0.76
0.81
0.81
0.87
0.73
0.04
0.10
0.44
0.37
0.33
0.33
0.37
0.35
0.37
0.40
0.40
0.42
0.43
0.45
0.46
0.48
0.51
0.53
0.54
0.56
0.57
0.57
0.57
0.57
0.57
0.55
0.53
0.51
0.49
0.45
0.41
0.33
0.27
0.12
0.10
0.10
0.01
0.01
0.01
0.05
0.01
0.05
0.01
0.04
0.01
0.07
0.01
0.04
0.01
0.04
0.01
0.01
0.01
0.01
0.01
0.01
0.01
0.01
0.05
0.05
0.05
0.04
0.01
0.01
0.01
0.04
0.07
0.01
0.01
0.01
0.01
0.04
0.05
0.01
0.01
0.00
0.04
0.01
0.13
0.04
0.01
0.01
0.10
0.10
0.12
0.05
0.10
0.10
0.10
0.13
0.04
0.07
0.56
0.38
0.55
0.54
0.53
0.52
0.35
0.20
0.13
0.08
0.07
0.01
0.07
0.04
0.01
0.01
0.01
0.01
0.01
0.01
0.01
0.01
0.00
0.01
0.01
0.01
0.01
0.01
0.01
0.01
0.01
0.01
0.01
0.01
0.01
0.01
0.01
0.01
0.01
0.01
0.01
0.01
0.01
0.00
0.00
0.01
0.00
0.00
0.01
0.00
0.01
0.01
0.01
0.01
0.00
0.01
0.00
0.00
0.01
0.00
0.01
0.00
0.01
0.00
0.00
0.00
0.01
0.00
0.00
0.00
0.01
0.00
0.04
0.07
0.07
0.09
0.24
0.13
0.11
0.07
0.01
0.01
0.01
0.01
0.01
0.01
0.01
0.04
0.07
0.13
0.46
0.21
0.59
0.66
0.54
0.52
0.37
0.01
0.01
0.00
0.01
0.01
0.04
0.04
0.07
0.06
0.04
0.07
0.08
0.09
0.11
0.12
0.13
0.13
0.16
0.16
0.21
0.14
0.16
0.14
0.13
0.11
0.09
0.07
0.04
0.01
0.01
0.01
0.01
0.01
0.01
0.04
0.01
0.01
0.01
0.04
0.04
0.01
0.04
0.04
0.04
0.04
0.07
0.06
0.04
0.04
0.04
0.04
0.06
0.04
0.04
0.01
0.01
0.01
0.04
0.00
0.01
0.01
0.00
0.01
0.00
0.01
0.01
0.00
0.00
0.01
0.11
0.08
0.13
0.13
0.26
0.11
0.11
0.01
0.01
0.01
0.00
0.01
0.00
0.01
0.01
0.01
0.01
0.23
0.64
0.45
0.61
0.61
0.54
0.48
0.13
0.01
0.01
0.01
0.01
0.04
0.04
0.04
0.04
0.06
0.07
0.08
0.08
0.06
0.07
0.09
0.12
0.09
0.11
0.08
0.08
0.08
0.06
0.04
0.01
0.00
0.01
0.01
0.01
0.01
0.01
0.01
0.00
0.01
0.01
0.04
0.04
0.01
0.01
0.01
0.04
0.04
0.04
0.01
0.01
0.04
0.04
0.01
0.04
0.04
0.04
0.01
0.04
0.04
0.06
0.01
0.04
0.01
0.01
0.01
0.04
0.04
0.01
0.01
0.01
0.00
0.04
0.01
0.01
0.01
0.01
0.04
0.09
0.06
0.11
0.09
0.25
0.09
0.06
0.01
0.04
0.01
0.01
0.01
0.01
0.01
0.01
0.04
0.07
0.13
0.48
0.01
0.55
0.58
0.54
0.49
0.28
0.04
0.04
0.04
0.01
0.01
0.01
0.01
0.01
0.01
0.01
0.01
0.01
0.01
0.01
0.00
0.01
0.01
0.01
0.07
0.05
0.08
0.10
0.13
0.15
0.20
0.19
0.19
0.20
0.15
0.10
0.12
0.08
0.05
0.01
0.01
0.01
0.01
0.04
0.01
0.01
0.01
0.01
0.01
0.01
0.01
0.00
0.01
0.01
0.01
0.01
0.01
0.00
0.01
0.01
0.00
0.01
0.01
0.01
0.01
0.01
0.01
0.01
0.01
0.01
0.01
0.01
0.01
0.00
0.01
0.01
0.04
0.07
0.13
0.06
0.06
0.01
0.10
0.05
0.08
0.04
0.07
0.08
0.12
0.13
0.01
0.12
0.59
0.52
0.54
0.54
0.57
0.51
0.20
0.12
0.08
0.07
0.04
0.01
0.01
0.01
0.01
0.01
0.01
0.00
0.00
0.01
0.01
0.01
0.01
0.00
0.01
0.01
0.01
0.01
0.01
0.01
0.04
0.04
0.01
0.04
0.04
0.04
0.01
0.01
0.01
0.01
0.01
0.01
0.01
0.00
0.00
0.00
0.00
0.00
0.01
0.00
0.01
0.01
0.01
0.01
0.00
0.00
0.01
0.00
0.01
0.01
0.00
0.00
0.01
0.01
0.00
0.01
0.00
0.00
0.01
0.00
0.00
0.00
0.00
0.00
0.01
0.09
0.04
0.13
0.08
0.24
0.08
0.09
0.01
0.01
0.01
0.01
0.01
0.01
0.01
0.01
0.04
0.01
0.18
0.53
0.46
0.63
0.62
0.54
0.51
0.20
0.01
0.01
0.00
0.00
0.00
0.04
0.01
0.06
0.06
0.07
0.08
0.09
0.07
0.11
0.11
0.13
0.13
0.13
0.14
0.16
0.16
0.13
0.13
0.13
0.09
0.07
0.04
0.04
0.01
0.01
0.00
0.01
0.00
0.01
0.01
0.00
0.01
0.00
0.00
0.00
0.00
0.00
0.00
0.00
0.01
0.01
0.01
0.04
0.04
0.01
0.04
0.04
0.04
0.04
0.04
0.06
0.00
0.01
0.04
0.01
0.01
0.01
0.01
0.00
0.01
0.01
0.00
0.00
0.01
0.00
0.08
0.06
0.11
0.08
0.21
0.13
0.06
0.01
0.01
0.01
0.01
0.01
0.04
0.01
0.01
0.05
0.08
0.13
0.25
0.48
0.54
0.67
0.53
0.54
0.40
0.04
0.04
0.01
0.01
0.01
0.00
0.00
0.01
0.01
0.04
0.07
0.04
0.06
0.07
0.08
0.07
0.07
0.07
0.07
0.07
0.04
0.01
0.04
0.00
0.01
0.01
0.01
0.01
0.01
0.01
0.01
0.01
0.01
0.01
0.01
0.00
0.00
0.00
0.00
0.00
0.01
0.00
0.01
0.01
0.01
0.00
0.04
0.00
0.01
0.01
0.04
0.01
0.01
0.04
0.01
0.01
0.00
0.00
0.00
0.00
0.01
0.01
0.00
0.01
0.01
0.01
0.01
0.01
0.01
0.01
0.01
0.04
0.00
0.04
0.01
0.14
0.04
0.04
0.00
0.08
0.04
0.08
0.07
0.04
0.08
0.04
0.08
0.10
0.08
0.48
0.01
0.55
0.58
0.54
0.51
0.37
0.10
0.13
0.07
0.05
0.05
0.01
0.01
0.01
0.01
0.01
0.01
0.01
0.04
0.01
0.01
0.01
0.01
0.04
0.07
0.08
0.08
0.13
0.13
0.23
0.23
0.25
0.23
0.23
0.15
0.10
0.07
0.08
0.01
0.01
0.01
0.01
0.01
0.01
0.01
0.01
0.01
0.01
0.01
0.01
0.01
0.01
0.01
0.01
0.00
0.01
0.01
0.01
0.01
0.01
0.01
0.01
0.01
0.01
0.01
0.01
0.01
0.01
0.01
0.01
0.01
0.01
0.01
0.01
0.01
0.01
0.01
0.01
0.13
0.06
0.00
0.01
0.13
0.08
0.08
0.08
0.08
0.12
0.12
0.13
0.01
0.09
0.57
0.51
0.54
0.53
0.56
0.51
0.27
0.13
0.08
0.08
0.01
0.01
0.01
0.01
0.01
0.01
0.00
0.00
0.00
0.00
0.00
0.00
0.00
0.01
0.01
0.01
0.00
0.01
0.00
0.01
0.01
0.01
0.01
0.01
0.01
0.01
0.01
0.00
0.01
0.00
0.00
0.01
0.01
0.00
0.01
0.00
0.01
0.00
0.00
0.01
0.01
0.01
0.01
0.01
0.01
0.01
0.00
0.00
0.01
0.00
0.00
0.00
0.00
0.00
0.01
0.01
0.00
0.00
0.00
0.00
0.00
0.01
0.01
0.01
0.00
0.00
0.01
0.07
0.04
0.09
0.08
0.21
0.11
0.04
0.01
0.05
0.07
0.05
0.01
0.04
0.07
0.05
0.07
0.01
0.14
0.51
0.38
0.62
0.66
0.55
0.51
0.20
0.01
0.01
0.01
0.00
0.01
0.04
0.04
0.04
0.06
0.07
0.09
0.11
0.11
0.13
0.13
0.12
0.13
0.16
0.14
0.16
0.14
0.13
0.13
0.09
0.11
0.07
0.04
0.01
0.01
0.00
0.00
0.00
0.01
0.01
0.00
0.01
0.00
0.01
0.01
0.00
0.01
0.00
0.01
0.01
0.01
0.01
0.04
0.04
0.01
0.04
0.04
0.04
0.06
0.04
0.04
0.04
0.04
0.04
0.04
0.04
0.04
0.01
0.01
0.04
0.04
0.00
0.01
0.01
0.01
0.04
0.11
0.08
0.13
0.11
0.25
0.14
0.09
0.07
0.01
0.01
0.01
0.00
0.01
0.00
0.01
0.01
0.01
0.18
0.56
0.12
0.55
0.63
0.54
0.50
0.25
0.01
0.00
0.00
0.01
0.01
0.01
0.01
0.04
0.04
0.04
0.06
0.04
0.07
0.08
0.08
0.09
0.09
0.07
0.07
0.08
0.06
0.04
0.01
0.00
0.01
0.01
0.01
0.01
0.01
0.01
0.01
0.01
0.01
0.00
0.01
0.00
0.00
0.01
0.01
0.01
0.01
0.01
0.00
0.00
0.01
0.01
0.01
0.01
0.01
0.01
0.00
0.01
0.01
0.01
0.01
0.01
0.01
0.00
0.01
0.01
0.01
0.00
0.00
0.00
0.01
0.00
0.01
0.00
0.00
0.06
0.07
0.06
0.09
0.16
0.14
0.07
0.06
0.01
0.01
0.01
0.01
0.01
0.01
0.01
0.01
0.08
0.13
0.30
0.53
0.53
0.62
0.54
0.52
0.42
0.05
0.05
0.01
0.01
0.01
0.01
0.01
0.00
0.00
0.01
0.01
0.00
0.01
0.00
0.01
0.01
0.01
0.00
0.00
0.01
0.01
0.01
0.04
0.12
0.08
0.12
0.13
0.13
0.15
0.10
0.08
0.01
0.01
0.01
0.01
0.01
0.01
0.01
0.01
0.01
0.01
0.01
0.01
0.01
0.01
0.01
0.00
0.00
0.01
0.01
0.01
0.01
0.01
0.01
0.01
0.01
0.01
0.01
0.01
0.01
0.01
0.01
0.05
0.01
0.01
0.01
0.01
0.01
0.01
0.01
0.01
0.00
0.04
0.01
0.14
0.07
0.04
0.01
0.08
0.07
0.08
0.08
0.07
0.12
0.08
0.13
0.20
0.01
0.44
0.00
0.54
0.53
0.54
0.52
0.39
0.10
0.13
0.13
0.08
0.08
0.07
0.04
0.05
0.01
0.01
0.01
0.01
0.04
0.01
0.01
0.01
0.04
0.01
0.07
0.07
0.07
0.10
0.12
0.15
0.15
0.15
0.15
0.12
0.07
0.08
0.07
0.07
0.01
0.01
0.04
0.01
0.04
0.01
0.01
0.01
0.01
0.01
0.01
0.01
0.01
0.01
0.01
0.01
0.01
0.01
0.01
0.04
0.01
0.01
0.05
0.01
0.01
0.01
0.01
0.01
0.01
0.01
0.01
0.01
0.01
0.01
0.01
0.00
0.04
0.01
0.11
0.08
0.16
0.11
0.07
0.00
0.01
0.01
0.05
0.05
0.05
0.07
0.08
0.08
0.01
0.18
0.58
0.54
0.61
0.55
0.54
0.50
0.15
0.07
0.01
0.04
0.01
0.01
0.00
0.00
0.01
0.01
0.01
0.01
0.04
0.06
0.06
0.08
0.11
0.12
0.11
0.13
0.13
0.13
0.13
0.12
0.11
0.09
0.08
0.06
0.04
0.04
0.04
0.01
0.01
0.01
0.01
0.01
0.04
0.01
0.04
0.04
0.01
0.01
0.04
0.04
0.04
0.04
0.04
0.04
0.04
0.04
0.04
0.04
0.04
0.01
0.04
0.04
0.04
0.01
0.04
0.00
0.01
0.01
0.01
0.01
0.01
0.01
0.04
0.04
0.04
0.08
0.11
0.09
0.12
0.27
0.18
0.14
0.11
0.01
0.00
0.01
0.01
0.01
0.01
0.01
0.01
0.01
0.14
0.44
0.24
0.58
0.69
0.54
0.52
0.35
0.01
0.01
0.01
0.01
0.04
0.04
0.04
0.04
0.04
0.04
0.04
0.07
0.11
0.11
0.12
0.13
0.12
0.16
0.14
0.14
0.14
0.13
0.12
0.12
0.08
0.07
0.07
0.04
0.01
0.01
0.04
0.01
0.04
0.04
0.04
0.04
0.04
0.04
0.06
0.01
0.04
0.04
0.04
0.01
0.04
0.04
0.04
0.04
0.04
0.04
0.04
0.04
0.04
0.01
0.01
0.01
0.01
0.01
0.01
0.01
0.01
0.00
0.01
0.01
0.00
0.01
0.01
0.00
0.01
0.04
0.06
0.09
0.07
0.13
0.23
0.18
0.08
0.08
0.00
0.01
0.01
0.01
0.01
0.01
0.01
0.01
0.01
0.13
0.16
0.67
0.56
0.63
0.54
0.57
0.44
0.01
0.01
0.01
0.00
0.00
0.00
0.01
0.00
0.01
0.04
0.04
0.06
0.04
0.06
0.04
0.06
0.07
0.06
0.07
0.04
0.01
0.01
0.00
0.01
0.01
0.01
0.04
0.04
0.01
0.01
0.01
0.01
0.01
0.00
0.00
0.01
0.04
0.01
0.00
0.04
0.04
0.01
0.04
0.01
0.01
0.01
0.01
0.01
0.01
0.04
0.01
0.01
0.01
0.01
0.01
0.01
0.00
0.01
0.00
0.01
0.01
0.00
0.00
0.00
0.00
0.01
0.01
0.01
0.01
0.07
0.01
0.07
0.04
0.24
0.12
0.08
0.01
0.04
0.05
0.05
0.01
0.05
0.07
0.05
0.07
0.13
0.04
0.46
0.04
0.54
0.54
0.53
0.51
0.42
0.10
0.08
0.08
0.04
0.01
0.05
0.01
0.01
0.01
0.01
0.01
0.01
0.01
0.01
0.01
0.01
0.04
0.01
0.01
0.05
0.07
0.08
0.13
0.19
0.19
0.15
0.15
0.13
0.10
0.07
0.04
0.01
0.01
0.01
0.01
0.00
0.01
0.01
0.01
0.01
0.01
0.01
0.01
0.01
0.01
0.01
0.01
0.01
0.01
0.01
0.01
0.01
0.01
0.01
0.01
0.01
0.01
0.01
0.01
0.01
0.01
0.01
0.01
0.01
0.01
0.01
0.01
0.01
0.01
0.01
0.01
0.00
0.01
0.16
0.12
0.08
0.06
0.01
0.05
0.07
0.01
0.08
0.07
0.07
0.08
0.13
0.04
0.43
0.13
0.53
0.54
0.53
0.53
0.42
0.07
0.07
0.04
0.01
0.01
0.01
0.01
0.00
0.00
0.00
0.01
0.01
0.01
0.00
0.01
0.01
0.01
0.01
0.01
0.04
0.00
0.00
0.00
0.00
0.00
0.00
0.00
0.01
0.01
0.00
0.01
0.00
0.00
0.00
0.00
0.00
0.00
0.01
0.01
0.00
0.01
0.01
0.00
0.00
0.01
0.01
0.04
0.01
0.01
0.01
0.01
0.01
0.00
0.00
0.00
0.00
0.01
0.01
0.01
0.01
0.01
0.00
0.01
0.04
0.01
0.01
0.01
0.07
0.07
0.11
0.12
0.27
0.14
0.14
0.09
0.01
0.01
0.01
0.00
0.01
0.01
0.01
0.01
0.04
0.14
0.45
0.13
0.59
0.66
0.54
0.53
0.37
0.04
0.04
0.01
0.01
0.01
0.01
0.00
0.04
0.04
0.06
0.06
0.08
0.08
0.12
0.13
0.13
0.13
0.14
0.14
0.14
0.14
0.16
0.13
0.14
0.08
0.11
0.06
0.04
0.04
0.01
0.04
0.04
0.04
0.04
0.04
0.06
0.06
0.07
0.01
0.06
0.04
0.07
0.06
0.07
0.06
0.08
0.06
0.07
0.11
0.07
0.07
0.06
0.07
0.07
0.04
0.07
0.07
0.06
0.04
0.04
0.04
0.06
0.01
0.04
0.01
0.00
0.04
0.01
0.01
0.01
0.01
0.09
0.09
0.07
0.13
0.14
0.24
0.09
0.08
0.00
0.01
0.01
0.01
0.01
0.01
0.01
0.01
0.01
0.04
0.11
0.69
0.54
0.61
0.54
0.54
0.47
0.10
0.01
0.04
0.01
0.01
0.01
0.00
0.01
0.00
0.01
0.04
0.01
0.04
0.06
0.07
0.07
0.08
0.08
0.08
0.08
0.06
0.08
0.04
0.01
0.00
0.01
0.01
0.01
0.01
0.01
0.01
0.00
0.01
0.00
0.01
0.01
0.06
0.04
0.04
0.04
0.01
0.01
0.04
0.01
0.01
0.01
0.01
0.04
0.01
0.01
0.04
0.01
0.01
0.01
0.01
0.01
0.00
0.01
0.01
0.00
0.00
0.01
0.00
0.01
0.01
0.01
0.01
0.00
0.01
0.00
0.00
0.06
0.06
0.11
0.08
0.24
0.16
0.09
0.07
0.01
0.01
0.04
0.01
0.01
0.01
0.05
0.01
0.12
0.08
0.24
0.62
0.56
0.59
0.56
0.54
0.45
0.10
0.10
0.08
0.07
0.01
0.01
0.04
0.01
0.01
0.01
0.01
0.01
0.01
0.01
0.01
0.01
0.01
0.01
0.04
0.07
0.10
0.13
0.12
0.19
0.20
0.23
0.28
0.19
0.10
0.08
0.08
0.01
0.04
0.01
0.01
0.01
0.01
0.01
0.01
0.01
0.01
0.01
0.01
0.01
0.01
0.05
0.01
0.01
0.01
0.01
0.01
0.01
0.01
0.01
0.01
0.01
0.01
0.05
0.04
0.01
0.04
0.01
0.01
0.01
0.04
0.01
0.04
0.01
0.00
0.00
0.01
0.04
0.18
0.12
0.08
0.07
0.01
0.07
0.13
0.01
0.05
0.07
0.10
0.13
0.23
0.04
0.27
0.48
0.54
0.55
0.53
0.53
0.46
0.07
0.10
0.05
0.04
0.01
0.01
0.00
0.01
0.00
0.00
0.00
0.00
0.00
0.00
0.01
0.00
0.00
0.00
0.01
0.00
0.00
0.01
0.01
0.01
0.01
0.01
0.01
0.01
0.01
0.01
0.01
0.01
0.01
0.00
0.01
0.00
0.01
0.01
0.00
0.00
0.00
0.00
0.01
0.01
0.01
0.01
0.01
0.01
0.01
0.00
0.00
0.00
0.00
0.00
0.00
0.00
0.00
0.00
0.00
0.01
0.00
0.01
0.01
0.01
0.00
0.01
0.01
0.01
0.00
0.06
0.01
0.09
0.08
0.24
0.13
0.07
0.01
0.01
0.01
0.01
0.01
0.01
0.04
0.04
0.07
0.01
0.18
0.57
0.45
0.61
0.63
0.55
0.51
0.27
0.04
0.01
0.01
0.01
0.00
0.00
0.01
0.04
0.04
0.04
0.07
0.07
0.08
0.09
0.13
0.11
0.11
0.13
0.13
0.13
0.13
0.13
0.11
0.09
0.04
0.06
0.01
0.01
0.01
0.01
0.01
0.01
0.00
0.01
0.00
0.00
0.01
0.00
0.04
0.00
0.01
0.00
0.00
0.00
0.01
0.01
0.01
0.01
0.01
0.00
0.01
0.01
0.04
0.01
0.01
0.01
0.01
0.01
0.01
0.00
0.01
0.01
0.01
0.01
0.01
0.01
0.01
0.01
0.00
0.08
0.06
0.13
0.09
0.26
0.13
0.09
0.04
0.01
0.01
0.05
0.01
0.01
0.04
0.04
0.05
0.08
0.12
0.46
0.05
0.59
0.65
0.54
0.50
0.30
0.04
0.01
0.01
0.00
0.00
0.00
0.00
0.01
0.01
0.04
0.04
0.06
0.04
0.04
0.07
0.04
0.09
0.07
0.08
0.06
0.04
0.04
0.01
0.00
0.00
0.01
0.01
0.01
0.01
0.01
0.01
0.01
0.00
0.00
0.01
0.01
0.01
0.01
0.01
0.04
0.04
0.04
0.04
0.04
0.01
0.04
0.04
0.04
0.01
0.01
0.04
0.04
0.04
0.04
0.06
0.04
0.01
0.01
0.01
0.01
0.01
0.01
0.01
0.00
0.01
0.00
0.00
0.00
0.00
0.04
0.08
0.06
0.11
0.18
0.21
0.09
0.08
0.01
0.01
0.01
0.01
0.01
0.01
0.01
0.01
0.07
0.06
0.24
0.65
0.54
0.61
0.54
0.54
0.46
0.05
0.07
0.05
0.01
0.01
0.01
0.01
0.01
0.01
0.01
0.01
0.01
0.01
0.00
0.01
0.00
0.01
0.01
0.01
0.07
0.07
0.10
0.10
0.15
0.13
0.19
0.13
0.13
0.12
0.07
0.07
0.04
0.01
0.01
0.01
0.00
0.01
0.01
0.01
0.01
0.00
0.01
0.00
0.01
0.01
0.00
0.00
0.01
0.01
0.00
0.00
0.00
0.01
0.01
0.00
0.00
0.00
0.07
0.27
0.41
0.45
0.45
0.46
0.24
0.79
0.90
0.94
0.96
0.93
0.88
0.85
0.88
0.95
0.93
0.81
0.72
0.24
0.23
0.37
0.42
0.45
0.47
0.48
0.50
0.51
0.53
0.54
0.56
0.57
0.54
0.55
0.57
0.62
0.66
0.70
0.75
0.77
0.76
0.70
0.66
0.61
0.55
0.56
0.53
0.47
0.42
0.33
0.27
0.19
0.08
0.05
0.05
0.01
0.01
0.04
0.05
0.01
0.01
0.01
0.01
0.01
0.01
0.01
0.01
0.01
0.01
0.01
0.00
0.01
0.01
0.01
0.01
0.01
0.01
0.01
0.01
0.01
0.01
0.01
0.01
0.01
0.01
0.01
0.01
0.01
0.01
0.01
0.00
0.01
0.01
0.00
0.00
0.00
0.00
0.00
0.00
0.00
0.01
0.01
0.01
0.01
0.01
0.01
0.09
0.06
0.13
0.12
0.33
0.16
0.12
0.08
0.00
0.01
0.01
0.00
0.01
0.01
0.01
0.05
0.01
0.21
0.65
0.45
0.54
0.58
0.54
0.48
0.13
0.01
0.01
0.01
0.01
0.01
0.07
0.07
0.07
0.11
0.11
0.11
0.14
0.13
0.14
0.18
0.21
0.23
0.23
0.23
0.24
0.24
0.24
0.26
0.26
0.26
0.23
0.24
0.13
0.11
0.06
0.06
0.00
0.01
0.01
0.04
0.04
0.04
0.04
0.06
0.06
0.06
0.04
0.09
0.07
0.07
0.08
0.08
0.09
0.11
0.09
0.11
0.08
0.07
0.12
0.06
0.10
0.31
0.45
0.28
0.46
0.84
0.95
0.99
1.00
0.99
0.97
0.90
0.91
0.98
0.96
0.88
0.78
0.13
0.31
0.42
0.46
0.48
0.51
0.52
0.54
0.56
0.57
0.56
0.53
0.54
0.59
0.63
0.66
0.74
0.80
0.83
0.85
0.86
0.85
0.83
0.79
0.70
0.61
0.54
0.54
0.48
0.40
0.33
0.15
0.10
0.04
0.04
0.04
0.01
0.01
0.01
0.01
0.01
0.01
0.01
0.01
0.01
0.01
0.01
0.01
0.01
0.00
0.00
0.01
0.00
0.01
0.00
0.01
0.00
0.00
0.01
0.01
0.00
0.00
0.00
0.01
0.01
0.00
0.00
0.00
0.01
0.01
0.00
0.01
0.01
0.00
0.01
0.01
0.01
0.01
0.01
0.01
0.01
0.01
0.01
0.01
0.01
0.00
0.01
0.04
0.04
0.23
0.09
0.08
0.01
0.01
0.05
0.04
0.05
0.01
0.05
0.07
0.10
0.12
0.09
0.65
0.33
0.53
0.57
0.54
0.50
0.30
0.13
0.13
0.05
0.04
0.01
0.01
0.01
0.01
0.01
0.00
0.01
0.00
0.00
0.01
0.00
0.01
0.01
0.01
0.01
0.07
0.01
0.05
0.05
0.07
0.01
0.01
0.01
0.05
0.08
0.08
0.10
0.05
0.08
0.08
0.08
0.01
0.01
0.01
0.01
0.04
0.04
0.01
0.01
0.01
0.01
0.01
0.05
0.01
0.04
0.01
0.01
0.01
0.01
0.04
0.01
0.01
0.01
0.01
0.04
0.05
0.01
0.01
0.01
0.01
0.00
0.13
0.11
0.09
0.01
0.01
0.04
0.08
0.08
0.07
0.08
0.13
0.13
0.28
0.01
0.16
0.49
0.54
0.55
0.53
0.54
0.51
0.12
0.23
0.13
0.10
0.08
0.07
0.05
0.04
0.01
0.01
0.01
0.01
0.01
0.01
0.01
0.01
0.01
0.01
0.05
0.05
0.01
0.05
0.04
0.05
0.08
0.04
0.05
0.08
0.07
0.05
0.05
0.04
0.01
0.01
0.01
0.01
0.01
0.01
0.01
0.01
0.01
0.01
0.01
0.01
0.01
0.01
0.01
0.00
0.01
0.01
0.00
0.01
0.01
0.01
0.00
0.00
0.00
0.00
0.00
0.00
0.00
0.01
0.01
0.01
0.04
0.08
0.06
0.08
0.24
0.12
0.13
0.07
0.01
0.01
0.01
0.01
0.01
0.01
0.01
0.04
0.07
0.13
0.49
0.01
0.61
0.66
0.57
0.51
0.33
0.01
0.01
0.01
0.01
0.01
0.01
0.04
0.07
0.07
0.07
0.08
0.09
0.11
0.13
0.13
0.14
0.16
0.14
0.16
0.21
0.21
0.23
0.14
0.14
0.13
0.12
0.11
0.07
0.04
0.06
0.04
0.04
0.01
0.04
0.04
0.04
0.01
0.04
0.00
0.04
0.01
0.01
0.00
0.01
0.01
0.04
0.04
0.01
0.01
0.01
0.01
0.01
0.01
0.01
0.01
0.00
0.01
0.04
0.01
0.04
0.01
0.00
0.01
0.01
0.04
0.04
0.09
0.06
0.12
0.09
0.26
0.12
0.08
0.04
0.01
0.01
0.01
0.01
0.01
0.01
0.01
0.04
0.04
0.14
0.57
0.40
0.62
0.65
0.55
0.49
0.20
0.01
0.01
0.01
0.00
0.00
0.00
0.01
0.01
0.04
0.04
0.06
0.08
0.07
0.06
0.11
0.08
0.12
0.12
0.11
0.09
0.09
0.06
0.04
0.04
0.01
0.00
0.01
0.01
0.01
0.01
0.01
0.01
0.01
0.01
0.01
0.00
0.00
0.00
0.00
0.00
0.01
0.00
0.01
0.01
0.00
0.00
0.01
0.00
0.00
0.00
0.01
0.00
0.00
0.01
0.01
0.00
0.00
0.00
0.00
0.01
0.01
0.01
0.01
0.01
0.01
0.01
0.01
0.01
0.01
0.01
0.04
0.07
0.11
0.11
0.04
0.00
0.07
0.10
0.10
0.01
0.07
0.07
0.08
0.12
0.20
0.07
0.24
0.53
0.53
0.64
0.54
0.56
0.45
0.08
0.12
0.10
0.05
0.05
0.01
0.01
0.01
0.01
0.01
0.01
0.01
0.01
0.01
0.00
0.01
0.01
0.05
0.05
0.07
0.08
0.12
0.13
0.20
0.20
0.23
0.23
0.15
0.19
0.13
0.13
0.08
0.01
0.01
0.01
0.01
0.01
0.01
0.01
0.01
0.01
0.01
0.04
0.01
0.01
0.01
0.01
0.01
0.01
0.01
0.01
0.01
0.01
0.01
0.01
0.01
0.01
0.01
0.01
0.01
0.01
0.01
0.04
0.01
0.07
0.01
0.01
0.01
0.00
0.01
0.01
0.01
0.13
0.01
0.00
0.01
0.08
0.12
0.13
0.08
0.15
0.12
0.15
0.12
0.28
0.01
0.35
0.21
0.55
0.58
0.53
0.54
0.45
0.15
0.13
0.10
0.08
0.05
0.01
0.05
0.01
0.01
0.01
0.01
0.01
0.01
0.01
0.01
0.01
0.01
0.01
0.00
0.01
0.01
0.01
0.01
0.01
0.01
0.04
0.01
0.01
0.01
0.01
0.01
0.01
0.01
0.01
0.00
0.01
0.00
0.00
0.00
0.01
0.00
0.01
0.01
0.01
0.00
0.00
0.00
0.00
0.01
0.01
0.01
0.01
0.01
0.00
0.01
0.01
0.00
0.00
0.01
0.00
0.00
0.00
0.01
0.01
0.00
0.00
0.01
0.00
0.01
0.04
0.01
0.07
0.11
0.16
0.06
0.01
0.01
0.07
0.05
0.01
0.01
0.04
0.07
0.04
0.07
0.04
0.24
0.62
0.56
0.65
0.58
0.54
0.50
0.13
0.05
0.04
0.01
0.00
0.01
0.00
0.01
0.00
0.01
0.01
0.06
0.07
0.09
0.07
0.11
0.12
0.13
0.13
0.13
0.14
0.13
0.13
0.12
0.12
0.08
0.07
0.07
0.04
0.04
0.01
0.01
0.01
0.01
0.01
0.04
0.01
0.01
0.04
0.01
0.01
0.04
0.04
0.06
0.04
0.04
0.04
0.04
0.06
0.07
0.04
0.04
0.06
0.04
0.01
0.04
0.01
0.01
0.01
0.01
0.01
0.01
0.00
0.01
0.00
0.00
0.01
0.00
0.01
0.01
0.08
0.04
0.13
0.07
0.24
0.12
0.08
0.06
0.01
0.01
0.01
0.00
0.01
0.01
0.01
0.01
0.04
0.18
0.48
0.05
0.61
0.66
0.54
0.51
0.30
0.01
0.01
0.01
0.00
0.00
0.01
0.04
0.04
0.06
0.06
0.06
0.08
0.08
0.08
0.12
0.11
0.12
0.12
0.12
0.12
0.11
0.09
0.06
0.04
0.04
0.04
0.00
0.00
0.00
0.00
0.01
0.00
0.01
0.00
0.01
0.01
0.04
0.01
0.00
0.01
0.01
0.01
0.01
0.01
0.00
0.01
0.01
0.01
0.04
0.04
0.04
0.04
0.06
0.04
0.04
0.04
0.04
0.04
0.04
0.04
0.01
0.01
0.01
0.01
0.00
0.00
0.00
0.01
0.01
0.00
0.00
0.01
0.08
0.01
0.08
0.09
0.21
0.07
0.04
0.01
0.04
0.05
0.01
0.01
0.04
0.01
0.04
0.05
0.00
0.08
0.67
0.54
0.61
0.54
0.55
0.48
0.13
0.04
0.01
0.01
0.01
0.00
0.01
0.01
0.01
0.01
0.04
0.01
0.04
0.01
0.04
0.04
0.01
0.01
0.00
0.00
0.01
0.01
0.01
0.01
0.08
0.10
0.15
0.13
0.13
0.07
0.08
0.04
0.01
0.01
0.01
0.01
0.01
0.01
0.01
0.01
0.01
0.01
0.01
0.01
0.01
0.01
0.01
0.01
0.01
0.01
0.01
0.01
0.00
0.01
0.00
0.01
0.01
0.01
0.01
0.01
0.01
0.01
0.01
0.01
0.01
0.01
0.01
0.01
0.01
0.01
0.01
0.01
0.01
0.00
0.04
0.14
0.09
0.04
0.01
0.04
0.08
0.07
0.07
0.10
0.07
0.10
0.13
0.23
0.01
0.32
0.25
0.53
0.54
0.53
0.53
0.43
0.10
0.07
0.07
0.01
0.04
0.01
0.01
0.01
0.01
0.01
0.00
0.01
0.01
0.01
0.01
0.01
0.01
0.01
0.01
0.04
0.01
0.05
0.05
0.12
0.05
0.10
0.07
0.05
0.01
0.01
0.01
0.01
0.00
0.01
0.01
0.01
0.00
0.00
0.00
0.00
0.00
0.01
0.00
0.00
0.00
0.00
0.01
0.00
0.00
0.00
0.01
0.00
0.00
0.01
0.00
0.01
0.01
0.00
0.01
0.01
0.01
0.01
0.01
0.01
0.01
0.00
0.01
0.01
0.01
0.04
0.01
0.09
0.04
0.21
0.11
0.06
0.01
0.01
0.04
0.05
0.01
0.01
0.05
0.04
0.05
0.07
0.13
0.48
0.00
0.57
0.63
0.54
0.51
0.37
0.01
0.01
0.01
0.00
0.01
0.04
0.04
0.04
0.06
0.07
0.09
0.08
0.12
0.13
0.12
0.13
0.14
0.14
0.18
0.16
0.14
0.16
0.14
0.14
0.13
0.12
0.08
0.08
0.04
0.04
0.06
0.04
0.04
0.04
0.06
0.07
0.06
0.06
0.06
0.04
0.04
0.07
0.06
0.07
0.08
0.06
0.09
0.07
0.08
0.08
0.07
0.07
0.06
0.07
0.08
0.04
0.08
0.04
0.04
0.04
0.04
0.01
0.01
0.01
0.01
0.01
0.00
0.00
0.00
0.00
0.04
0.09
0.04
0.13
0.09
0.24
0.11
0.07
0.00
0.01
0.01
0.04
0.04
0.04
0.01
0.11
0.11
0.33
0.45
0.72
0.53
0.61
0.45
0.45
0.37
0.01
0.01
0.01
0.01
0.01
0.00
0.00
0.00
0.00
0.01
0.01
0.01
0.00
0.01
0.00
0.01
0.00
0.01
0.00
0.01
0.01
0.01
0.08
0.08
0.10
0.10
0.10
0.10
0.01
0.01
0.01
0.01
0.00
0.01
0.01
0.01
0.01
0.01
0.01
0.01
0.04
0.04
0.01
0.04
0.01
0.01
0.01
0.04
0.04
0.01
0.01
0.00
0.01
0.01
0.01
0.04
0.00
0.01
0.00
0.01
0.01
0.00
0.00
0.00
0.01
0.00
0.00
0.00
0.00
0.01
0.00
0.07
0.04
0.08
0.06
0.16
0.12
0.04
0.01
0.04
0.07
0.07
0.05
0.04
0.05
0.04
0.05
0.08
0.11
0.32
0.24
0.54
0.65
0.53
0.53
0.37
0.05
0.04
0.01
0.01
0.01
0.01
0.01
0.00
0.01
0.01
0.01
0.00
0.00
0.01
0.04
0.04
0.01
0.00
0.01
0.01
0.01
0.01
0.01
0.07
0.07
0.12
0.08
0.12
0.08
0.08
0.08
0.04
0.01
0.01
0.01
0.01
0.01
0.01
0.01
0.01
0.01
0.01
0.01
0.01
0.01
0.01
0.01
0.01
0.01
0.01
0.00
0.01
0.00
0.00
0.01
0.00
0.01
0.01
0.00
0.01
0.01
0.01
0.01
0.01
0.01
0.01
0.01
0.01
0.01
0.01
0.01
0.04
0.14
0.16
0.08
0.01
0.37
0.46
0.48
0.46
0.46
0.49
0.24
0.12
0.08
0.27
0.41
0.46
0.30
0.19
0.12
0.07
0.10
0.10
0.10
0.15
0.15
0.19
0.28
0.28
0.30
0.31
0.35
0.37
0.38
0.40
0.42
0.42
0.39
0.37
0.33
0.20
0.12
0.04
0.01
0.01
0.01
0.04
0.01
0.01
0.01
0.01
0.00
0.00
0.00
0.01
0.00
0.00
0.01
0.00
0.01
0.01
0.01
0.01
0.00
0.01
0.00
0.00
0.00
0.01
0.00
0.01
0.00
0.01
0.01
0.01
0.01
0.01
0.01
0.01
0.01
0.01
0.01
0.00
0.01
0.01
0.01
0.01
0.01
0.01
0.00
0.01
0.07
0.06
0.09
0.24
0.13
0.09
0.08
0.00
0.01
0.01
0.01
0.01
0.01
0.04
0.05
0.07
0.13
0.43
0.43
0.54
0.65
0.55
0.53
0.45
0.01
0.01
0.01
0.01
0.04
0.06
0.07
0.06
0.11
0.08
0.12
0.14
0.13
0.18
0.16
0.18
0.16
0.24
0.24
0.24
0.24
0.26
0.21
0.24
0.21
0.23
0.14
0.12
0.11
0.07
0.04
0.04
0.01
0.01
0.04
0.04
0.04
0.07
0.04
0.04
0.06
0.06
0.04
0.06
0.07
0.07
0.06
0.06
0.06
0.06
0.04
0.06
0.07
0.04
0.04
0.06
0.01
0.06
0.04
0.04
0.01
0.04
0.04
0.01
0.06
0.01
0.01
0.08
0.11
0.07
0.12
0.12
0.24
0.24
0.37
0.26
0.24
0.18
0.09
0.01
0.01
0.01
0.20
0.49
0.49
0.45
0.30
0.38
0.40
0.15
0.08
0.08
0.07
0.07
0.04
0.10
0.08
0.10
0.15
0.19
0.20
0.25
0.28
0.33
0.37
0.37
0.39
0.37
0.39
0.37
0.33
0.25
0.12
0.01
0.04
0.04
0.13
0.13
0.14
0.14
0.11
0.08
0.06
0.07
0.04
0.04
0.06
0.01
0.04
0.04
0.00
0.04
0.04
0.04
0.04
0.01
0.04
0.04
0.04
0.04
0.04
0.01
0.04
0.01
0.04
0.01
0.01
0.01
0.01
0.00
0.01
0.01
0.00
0.00
0.00
0.00
0.00
0.00
0.00
0.00
0.00
0.01
0.04
0.04
0.09
0.13
0.16
0.07
0.06
0.01
0.01
0.01
0.01
0.01
0.01
0.07
0.01
0.07
0.09
0.21
0.68
0.54
0.64
0.53
0.57
0.45
0.05
0.01
0.01
0.01
0.00
0.00
0.00
0.01
0.04
0.04
0.01
0.06
0.04
0.06
0.04
0.08
0.04
0.04
0.04
0.01
0.00
0.00
0.01
0.01
0.04
0.05
0.04
0.05
0.07
0.08
0.05
0.04
0.05
0.01
0.01
0.01
0.00
0.01
0.01
0.01
0.01
0.01
0.01
0.01
0.01
0.00
0.01
0.01
0.01
0.01
0.01
0.01
0.01
0.01
0.01
0.01
0.01
0.01
0.01
0.01
0.01
0.01
0.01
0.01
0.01
0.01
0.01
0.01
0.16
0.12
0.08
0.04
0.01
0.04
0.08
0.04
0.08
0.10
0.07
0.12
0.23
0.00
0.33
0.32
0.54
0.54
0.54
0.53
0.44
0.12
0.08
0.07
0.05
0.07
0.04
0.01
0.01
0.01
0.01
0.01
0.01
0.01
0.01
0.01
0.01
0.01
0.01
0.05
0.01
0.07
0.07
0.07
0.15
0.13
0.15
0.13
0.10
0.12
0.08
0.07
0.07
0.01
0.01
0.01
0.01
0.01
0.01
0.01
0.01
0.01
0.01
0.01
0.01
0.01
0.01
0.00
0.01
0.01
0.00
0.01
0.01
0.01
0.01
0.01
0.01
0.01
0.01
0.01
0.01
0.01
0.01
0.01
0.01
0.01
0.01
0.01
0.04
0.04
0.06
0.21
0.13
0.13
0.06
0.01
0.01
0.01
0.01
0.01
0.04
0.01
0.08
0.15
0.11
0.43
0.27
0.55
0.64
0.54
0.52
0.44
0.01
0.01
0.01
0.01
0.01
0.01
0.04
0.01
0.04
0.07
0.06
0.08
0.11
0.11
0.11
0.13
0.13
0.13
0.14
0.18
0.13
0.18
0.13
0.13
0.12
0.12
0.09
0.07
0.04
0.04
0.01
0.06
0.04
0.04
0.04
0.04
0.06
0.08
0.06
0.07
0.06
0.06
0.07
0.07
0.07
0.07
0.08
0.07
0.08
0.09
0.09
0.07
0.08
0.04
0.08
0.07
0.06
0.07
0.04
0.06
0.01
0.04
0.04
0.01
0.01
0.01
0.00
0.06
0.09
0.04
0.13
0.09
0.24
0.11
0.09
0.01
0.01
0.01
0.01
0.01
0.01
0.01
0.01
0.01
0.01
0.18
0.67
0.54
0.66
0.61
0.54
0.46
0.07
0.01
0.00
0.00
0.01
0.04
0.04
0.07
0.06
0.08
0.06
0.09
0.07
0.09
0.12
0.13
0.12
0.13
0.12
0.21
0.12
0.14
0.13
0.11
0.09
0.08
0.07
0.06
0.04
0.01
0.01
0.01
0.04
0.04
0.06
0.04
0.01
0.01
0.01
0.01
0.04
0.06
0.01
0.04
0.04
0.00
0.06
0.04
0.00
0.01
0.04
0.04
0.01
0.06
0.00
0.04
0.00
0.01
0.01
0.01
0.01
0.00
0.01
0.01
0.01
0.00
0.00
0.01
0.01
0.01
0.00
0.04
0.01
0.04
0.06
0.06
0.13
0.06
0.00
0.01
0.07
0.08
0.07
0.01
0.07
0.05
0.07
0.10
0.01
0.12
0.65
0.56
0.61
0.53
0.54
0.49
0.12
0.08
0.07
0.05
0.01
0.01
0.00
0.01
0.01
0.01
0.00
0.01
0.01
0.01
0.00
0.01
0.01
0.01
0.01
0.01
0.07
0.10
0.08
0.19
0.15
0.20
0.15
0.15
0.15
0.13
0.10
0.08
0.08
0.01
0.05
0.01
0.04
0.01
0.00
0.01
0.01
0.01
0.01
0.01
0.01
0.01
0.01
0.01
0.01
0.01
0.01
0.01
0.01
0.01
0.01
0.01
0.01
0.01
0.01
0.01
0.01
0.01
0.04
0.04
0.01
0.01
0.04
0.01
0.07
0.01
0.01
0.01
0.01
0.01
0.04
0.13
0.04
0.00
0.01
0.13
0.15
0.12
0.13
0.07
0.13
0.13
0.15
0.01
0.11
0.51
0.52
0.55
0.54
0.54
0.51
0.25
0.20
0.07
0.08
0.04
0.04
0.01
0.01
0.01
0.01
0.01
0.00
0.01
0.01
0.01
0.01
0.01
0.01
0.00
0.01
0.04
0.00
0.01
0.01
0.01
0.01
0.00
0.00
0.00
0.01
0.01
0.01
0.01
0.00
0.01
0.00
0.00
0.01
0.01
0.00
0.01
0.00
0.00
0.00
0.00
0.00
0.01
0.00
0.00
0.00
0.00
0.00
0.01
0.01
0.00
0.00
0.01
0.01
0.00
0.01
0.01
0.01
0.01
0.01
0.01
0.01
0.01
0.00
0.01
0.00
0.00
0.04
0.08
0.06
0.12
0.12
0.16
0.09
0.08
0.01
0.01
0.01
0.01
0.01
0.01
0.04
0.01
0.01
0.11
0.33
0.60
0.54
0.66
0.54
0.54
0.45
0.01
0.01
0.00
0.04
0.04
0.08
0.08
0.09
0.09
0.11
0.09
0.11
0.13
0.13
0.16
0.24
0.18
0.23
0.24
0.25
0.24
0.26
0.24
0.24
0.16
0.16
0.14
0.12
0.11
0.07
0.07
0.06
0.08
0.06
0.07
0.07
0.04
0.06
0.06
0.04
0.06
0.06
0.06
0.04
0.08
0.06
0.07
0.04
0.07
0.06
0.07
0.04
0.06
0.07
0.04
0.07
0.04
0.06
0.04
0.04
0.04
0.04
0.04
0.04
0.04
0.01
0.04
0.04
0.01
0.07
0.13
0.12
0.13
0.13
0.25
0.13
0.12
0.12
0.16
0.13
0.13
0.16
0.12
0.01
0.15
0.01
0.01
0.00
0.71
0.35
0.01
0.48
0.31
0.19
0.01
0.01
0.01
0.01
0.04
0.05
0.05
0.04
0.05
0.07
0.10
0.15
0.19
0.28
0.27
0.33
0.37
0.37
0.38
0.38
0.37
0.30
0.28
0.12
0.04
0.01
0.04
0.07
0.08
0.09
0.08
0.06
0.07
0.06
0.06
0.01
0.04
0.04
0.04
0.04
0.06
0.08
0.04
0.04
0.01
0.07
0.06
0.06
0.04
0.04
0.04
0.04
0.04
0.01
0.01
0.01
0.00
0.00
0.04
0.01
0.01
0.01
0.00
0.00
0.00
0.00
0.00
0.01
0.01
0.01
0.00
0.00
0.08
0.04
0.12
0.12
0.21
0.12
0.08
0.00
0.01
0.05
0.01
0.01
0.01
0.01
0.01
0.04
0.04
0.13
0.69
0.55
0.58
0.55
0.54
0.48
0.12
0.04
0.05
0.01
0.01
0.01
0.01
0.01
0.01
0.01
0.01
0.00
0.01
0.00
0.01
0.01
0.01
0.00
0.01
0.01
0.04
0.01
0.04
0.10
0.12
0.13
0.12
0.15
0.10
0.08
0.07
0.07
0.04
0.04
0.01
0.01
0.01
0.01
0.01
0.01
0.01
0.01
0.01
0.01
0.01
0.00
0.00
0.01
0.00
0.00
0.00
0.00
0.00
0.00
0.00
0.01
0.01
0.00
0.01
0.01
0.01
0.04
0.01
0.04
0.01
0.04
0.01
0.01
0.01
0.01
0.13
0.11
0.06
0.01
0.05
0.08
0.01
0.00
0.10
0.28
0.43
0.48
0.45
0.41
0.46
0.53
0.12
0.30
0.44
0.40
0.27
0.10
0.08
0.10
0.12
0.15
0.15
0.15
0.10
0.25
0.28
0.27
0.28
0.33
0.37
0.40
0.41
0.44
0.45
0.45
0.46
0.45
0.43
0.40
0.33
0.28
0.19
0.05
0.01
0.01
0.00
0.01
0.01
0.00
0.00
0.01
0.00
0.01
0.00
0.01
0.01
0.00
0.01
0.01
0.04
0.01
0.00
0.01
0.00
0.01
0.01
0.01
0.04
0.00
0.00
0.01
0.01
0.01
0.00
0.00
0.01
0.00
0.01
0.01
0.00
0.00
0.01
0.01
0.01
0.00
0.01
0.01
0.06
0.06
0.11
0.11
0.26
0.14
0.11
0.07
0.01
0.01
0.01
0.01
0.01
0.01
0.01
0.04
0.01
0.24
0.57
0.37
0.63
0.66
0.57
0.51
0.28
0.01
0.01
0.01
0.00
0.04
0.04
0.04
0.06
0.07
0.08
0.09
0.12
0.13
0.13
0.13
0.16
0.18
0.21
0.24
0.24
0.26
0.25
0.24
0.24
0.18
0.18
0.13
0.13
0.08
0.04
0.04
0.04
0.01
0.04
0.04
0.04
0.04
0.04
0.06
0.04
0.01
0.01
0.01
0.04
0.01
0.01
0.01
0.01
0.04
0.06
0.04
0.04
0.01
0.04
0.04
0.04
0.04
0.04
0.01
0.04
0.01
0.04
0.01
0.01
0.01
0.01
0.06
0.11
0.06
0.14
0.18
0.23
0.14
0.09
0.01
0.00
0.01
0.01
0.01
0.01
0.01
0.01
0.01
0.04
0.18
0.69
0.57
0.66
0.58
0.54
0.45
0.01
0.01
0.00
0.00
0.01
0.04
0.01
0.06
0.04
0.04
0.06
0.06
0.06
0.08
0.09
0.12
0.13
0.13
0.12
0.12
0.13
0.11
0.11
0.08
0.01
0.04
0.04
0.01
0.00
0.00
0.00
0.01
0.01
0.01
0.04
0.04
0.04
0.04
0.04
0.07
0.06
0.07
0.04
0.06
0.04
0.06
0.07
0.06
0.04
0.04
0.04
0.07
0.06
0.04
0.06
0.04
0.01
0.04
0.04
0.04
0.01
0.01
0.00
0.00
0.00
0.01
0.00
0.00
0.00
0.01
0.00
0.06
0.01
0.07
0.04
0.12
0.11
0.01
0.04
0.07
0.07
0.08
0.04
0.04
0.01
0.05
0.04
0.08
0.11
0.30
0.13
0.54
0.63
0.55
0.53
0.35
0.01
0.04
0.01
0.01
0.01
0.01
0.00
0.01
0.00
0.01
0.00
0.01
0.01
0.01
0.04
0.00
0.01
0.01
0.01
0.01
0.01
0.01
0.07
0.12
0.12
0.19
0.19
0.19
0.15
0.10
0.10
0.05
0.01
0.01
0.01
0.01
0.01
0.01
0.01
0.01
0.01
0.01
0.01
0.01
0.00
0.01
0.00
0.01
0.01
0.01
0.01
0.01
0.01
0.01
0.01
0.01
0.01
0.01
0.01
0.01
0.01
0.01
0.01
0.01
0.01
0.01
0.01
0.00
0.00
0.06
0.01
0.14
0.09
0.01
0.00
0.05
0.04
0.10
0.07
0.12
0.12
0.12
0.15
0.19
0.01
0.48
0.30
0.55
0.53
0.54
0.51
0.30
0.15
0.10
0.05
0.01
0.01
0.01
0.01
0.01
0.01
0.01
0.01
0.01
0.04
0.01
0.01
0.01
0.01
0.05
0.04
0.05
0.05
0.08
0.10
0.12
0.08
0.12
0.12
0.08
0.07
0.04
0.04
0.01
0.01
0.01
0.01
0.01
0.00
0.01
0.01
0.01
0.01
0.00
0.00
0.00
0.01
0.01
0.01
0.01
0.00
0.01
0.01
0.01
0.01
0.01
0.01
0.01
0.01
0.01
0.01
0.01
0.01
0.01
0.01
0.01
0.01
0.01
0.01
0.01
0.01
0.01
0.06
0.04
0.21
0.09
0.06
0.01
0.04
0.07
0.04
0.05
0.01
0.08
0.07
0.10
0.01
0.21
0.56
0.50
0.61
0.61
0.54
0.51
0.19
0.01
0.01
0.01
0.01
0.04
0.00
0.04
0.04
0.04
0.06
0.08
0.08
0.09
0.11
0.12
0.13
0.13
0.14
0.14
0.16
0.13
0.14
0.13
0.11
0.09
0.07
0.06
0.01
0.01
0.01
0.01
0.01
0.01
0.01
0.01
0.04
0.01
0.01
0.01
0.01
0.01
0.04
0.04
0.01
0.04
0.01
0.04
0.01
0.04
0.01
0.01
0.01
0.01
0.01
0.01
0.01
0.01
0.01
0.01
0.00
0.00
0.00
0.00
0.00
0.01
0.01
0.01
0.00
0.00
0.01
0.04
0.01
0.09
0.08
0.18
0.13
0.08
0.06
0.01
0.01
0.01
0.01
0.01
0.01
0.01
0.01
0.01
0.21
0.44
0.13
0.61
0.66
0.54
0.51
0.23
0.01
0.01
0.00
0.01
0.01
0.04
0.04
0.04
0.06
0.07
0.09
0.08
0.11
0.12
0.12
0.13
0.13
0.16
0.14
0.14
0.13
0.13
0.08
0.09
0.07
0.01
0.01
0.00
0.01
0.01
0.00
0.01
0.00
0.01
0.01
0.01
0.06
0.01
0.04
0.01
0.01
0.01
0.04
0.04
0.06
0.04
0.04
0.06
0.04
0.04
0.06
0.06
0.04
0.04
0.04
0.04
0.06
0.04
0.01
0.04
0.04
0.01
0.04
0.04
0.01
0.04
0.01
0.00
0.01
0.01
0.04
0.08
0.07
0.09
0.11
0.21
0.13
0.07
0.06
0.01
0.01
0.01
0.01
0.01
0.01
0.01
0.01
0.01
0.13
0.57
0.35
0.58
0.61
0.54
0.48
0.19
0.01
0.01
0.01
0.01
0.00
0.00
0.00
0.00
0.01
0.04
0.04
0.01
0.01
0.01
0.04
0.04
0.06
0.04
0.04
0.04
0.01
0.00
0.01
0.01
0.01
0.07
0.01
0.04
0.04
0.01
0.01
0.01
0.01
0.00
0.00
0.00
0.00
0.00
0.01
0.00
0.01
0.00
0.00
0.00
0.00
0.04
0.01
0.01
0.01
0.01
0.01
0.04
0.01
0.01
0.01
0.00
0.01
0.01
0.01
0.01
0.01
0.00
0.00
0.01
0.00
0.01
0.01
0.01
0.01
0.01
0.01
0.01
0.01
0.06
0.00
0.06
0.00
0.14
0.06
0.01
0.01
0.12
0.13
0.10
0.05
0.08
0.12
0.13
0.30
0.28
0.00
0.49
0.01
0.54
0.56
0.52
0.51
0.28
0.13
0.10
0.08
0.12
0.07
0.04
0.01
0.05
0.04
0.04
0.05
0.04
0.05
0.05
0.08
0.08
0.10
0.13
0.19
0.19
0.28
0.28
0.30
0.33
0.30
0.33
0.30
0.28
0.23
0.19
0.15
0.08
0.07
0.05
0.04
0.01
0.05
0.01
0.01
0.01
0.01
0.01
0.01
0.01
0.01
0.01
0.01
0.00
0.01
0.01
0.01
0.01
0.01
0.04
0.01
0.04
0.01
0.01
0.01
0.01
0.04
0.01
0.05
0.04
0.01
0.01
0.05
0.05
0.01
0.04
0.01
0.01
0.01
0.04
0.01
0.14
0.04
0.01
0.01
0.07
0.07
0.13
0.04
0.08
0.12
0.08
0.10
0.12
0.08
0.49
0.30
0.54
0.58
0.55
0.53
0.37
0.08
0.01
0.04
0.01
0.01
0.00
0.00
0.01
0.01
0.00
0.04
0.01
0.04
0.04
0.09
0.07
0.07
0.09
0.07
0.09
0.07
0.06
0.06
0.06
0.04
0.04
0.01
0.00
0.01
0.00
0.01
0.00
0.00
0.01
0.00
0.01
0.01
0.01
0.04
0.01
0.01
0.01
0.01
0.01
0.01
0.01
0.04
0.04
0.01
0.01
0.01
0.01
0.01
0.01
0.01
0.04
0.01
0.04
0.01
0.01
0.01
0.00
0.01
0.00
0.00
0.00
0.00
0.01
0.01
0.04
0.08
0.06
0.13
0.11
0.26
0.13
0.12
0.01
0.01
0.01
0.01
0.01
0.01
0.01
0.01
0.07
0.01
0.13
0.69
0.57
0.62
0.54
0.56
0.45
0.01
0.01
0.00
0.00
0.01
0.01
0.01
0.04
0.07
0.06
0.07
0.06
0.09
0.11
0.11
0.13
0.11
0.13
0.13
0.12
0.11
0.11
0.11
0.06
0.07
0.06
0.04
0.00
0.04
0.01
0.01
0.01
0.04
0.04
0.06
0.01
0.06
0.08
0.07
0.07
0.08
0.07
0.06
0.06
0.07
0.04
0.07
0.04
0.04
0.04
0.06
0.01
0.04
0.04
0.01
0.01
0.01
0.01
0.01
0.01
0.00
0.00
0.01
0.01
0.00
0.01
0.00
0.00
0.00
0.01
0.01
0.00
0.00
0.06
0.11
0.04
0.12
0.13
0.21
0.08
0.06
0.01
0.04
0.01
0.01
0.01
0.01
0.01
0.01
0.01
0.09
0.24
0.65
0.54
0.65
0.54
0.56
0.41
0.04
0.01
0.01
0.01
0.00
0.01
0.04
0.04
0.04
0.07
0.06
0.07
0.08
0.07
0.07
0.08
0.09
0.08
0.11
0.08
0.06
0.04
0.04
0.01
0.00
0.01
0.01
0.01
0.01
0.01
0.01
0.01
0.01
0.01
0.01
0.00
0.01
0.00
0.01
0.00
0.00
0.00
0.00
0.00
0.00
0.01
0.00
0.00
0.01
0.01
0.01
0.00
0.00
0.01
0.01
0.01
0.00
0.00
0.00
0.00
0.00
0.01
0.00
0.01
0.01
0.00
0.01
0.01
0.01
0.01
0.01
0.01
0.00
0.01
0.04
0.13
0.13
0.01
0.01
0.01
0.12
0.20
0.15
0.01
0.04
0.01
0.06
0.44
0.72
0.83
0.90
0.62
0.28
0.37
0.46
0.41
0.19
0.25
0.28
0.27
0.27
0.28
0.31
0.33
0.35
0.37
0.37
0.37
0.40
0.42
0.44
0.45
0.46
0.48
0.51
0.53
0.53
0.53
0.54
0.54
0.54
0.54
0.52
0.50
0.46
0.44
0.38
0.30
0.23
0.13
0.08
0.07
0.01
0.01
0.04
0.01
0.01
0.04
0.01
0.01
0.01
0.05
0.01
0.01
0.01
0.04
0.01
0.01
0.01
0.01
0.01
0.01
0.01
0.05
0.01
0.01
0.01
0.01
0.01
0.05
0.04
0.04
0.04
0.04
0.08
0.01
0.04
0.01
0.01
0.01
0.00
0.11
0.04
0.00
0.01
0.08
0.12
0.19
0.13
0.15
0.25
0.15
0.23
0.12
0.01
0.49
0.41
0.54
0.57
0.54
0.52
0.37
0.19
0.15
0.10
0.05
0.01
0.01
0.01
0.01
0.00
0.00
0.00
0.00
0.01
0.01
0.04
0.04
0.04
0.07
0.04
0.07
0.07
0.08
0.07
0.07
0.06
0.06
0.06
0.04
0.00
0.01
0.00
0.01
0.00
0.01
0.00
0.00
0.01
0.01
0.00
0.01
0.00
0.00
0.00
0.01
0.00
0.01
0.04
0.01
0.04
0.01
0.01
0.06
0.01
0.01
0.01
0.01
0.01
0.00
0.00
0.00
0.00
0.00
0.01
0.00
0.00
0.00
0.04
0.04
0.04
0.11
0.08
0.24
0.12
0.08
0.04
0.01
0.01
0.01
0.01
0.01
0.05
0.12
0.15
0.01
0.43
0.69
0.08
0.55
0.54
0.52
0.48
0.12
0.01
0.01
0.01
0.01
0.01
0.00
0.00
0.00
0.00
0.00
0.00
0.01
0.01
0.01
0.01
0.01
0.01
0.01
0.01
0.01
0.00
0.01
0.01
0.01
0.01
0.04
0.04
0.04
0.04
0.01
0.01
0.01
0.01
0.00
0.01
0.01
0.01
0.01
0.04
0.01
0.04
0.01
0.04
0.01
0.06
0.04
0.04
0.01
0.01
0.04
0.01
0.01
0.01
0.01
0.01
0.01
0.01
0.01
0.04
0.00
0.00
0.01
0.01
0.01
0.01
0.01
0.01
0.00
0.00
0.01
0.01
0.08
0.04
0.11
0.06
0.23
0.13
0.06
0.04
0.04
0.04
0.01
0.01
0.01
0.01
0.07
0.04
0.07
0.13
0.25
0.49
0.54
0.65
0.53
0.54
0.46
0.08
0.04
0.05
0.01
0.01
0.00
0.01
0.01
0.01
0.01
0.01
0.01
0.01
0.01
0.01
0.01
0.00
0.01
0.00
0.01
0.01
0.01
0.01
0.01
0.05
0.05
0.07
0.05
0.10
0.07
0.05
0.01
0.01
0.04
0.01
0.01
0.01
0.01
0.01
0.01
0.01
0.01
0.01
0.01
0.01
0.01
0.01
0.01
0.00
0.01
0.01
0.01
0.00
0.00
0.01
0.00
0.01
0.01
0.00
0.00
0.01
0.00
0.00
0.01
0.01
0.01
0.01
0.01
0.01
0.01
0.04
0.06
0.12
0.14
0.06
0.04
0.01
0.07
0.08
0.08
0.12
0.19
0.23
0.01
0.01
0.24
0.62
0.79
0.46
0.53
0.35
0.52
0.46
0.08
0.12
0.12
0.05
0.08
0.08
0.08
0.07
0.10
0.15
0.13
0.20
0.20
0.15
0.19
0.25
0.28
0.28
0.31
0.31
0.35
0.37
0.37
0.39
0.38
0.37
0.33
0.30
0.28
0.15
0.10
0.07
0.01
0.00
0.00
0.01
0.00
0.01
0.04
0.07
0.04
0.04
0.04
0.04
0.06
0.04
0.06
0.04
0.06
0.04
0.04
0.07
0.04
0.04
0.04
0.04
0.01
0.04
0.04
0.04
0.01
0.04
0.01
0.04
0.06
0.01
0.04
0.01
0.04
0.08
0.14
0.11
0.16
0.18
0.27
0.14
0.13
0.04
0.01
0.00
0.01
0.00
0.01
0.01
0.01
0.01
0.07
0.32
0.65
0.54
0.65
0.58
0.54
0.46
0.01
0.01
0.01
0.01
0.01
0.01
0.07
0.04
0.06
0.07
0.07
0.08
0.11
0.12
0.13
0.12
0.16
0.16
0.18
0.18
0.18
0.21
0.16
0.16
0.12
0.12
0.11
0.09
0.04
0.01
0.04
0.04
0.04
0.04
0.01
0.04
0.04
0.06
0.07
0.07
0.04
0.06
0.06
0.06
0.09
0.08
0.07
0.09
0.07
0.07
0.09
0.08
0.07
0.06
0.06
0.04
0.07
0.06
0.04
0.04
0.01
0.01
0.01
0.04
0.01
0.01
0.01
0.01
0.04
0.09
0.07
0.12
0.09
0.24
0.13
0.09
0.04
0.01
0.01
0.01
0.01
0.01
0.01
0.01
0.04
0.07
0.07
0.49
0.20
0.55
0.58
0.57
0.45
0.08
0.00
0.00
0.00
0.01
0.01
0.04
0.01
0.04
0.04
0.04
0.04
0.04
0.04
0.07
0.07
0.06
0.07
0.07
0.04
0.04
0.04
0.01
0.00
0.01
0.01
0.01
0.01
0.01
0.01
0.01
0.01
0.01
0.00
0.00
0.01
0.01
0.01
0.00
0.00
0.00
0.01
0.01
0.01
0.00
0.01
0.01
0.01
0.01
0.01
0.01
0.00
0.01
0.01
0.01
0.01
0.00
0.01
0.00
0.00
0.00
0.00
0.00
0.01
0.00
0.01
0.01
0.01
0.01
0.01
0.01
0.01
0.04
0.01
0.07
0.08
0.16
0.01
0.01
0.01
0.07
0.05
0.07
0.04
0.04
0.07
0.01
0.10
0.01
0.13
0.67
0.56
0.61
0.54
0.56
0.48
0.08
0.10
0.08
0.05
0.01
0.05
0.01
0.01
0.01
0.01
0.01
0.01
0.01
0.01
0.01
0.01
0.01
0.04
0.01
0.01
0.07
0.07
0.10
0.19
0.19
0.15
0.19
0.20
0.15
0.13
0.13
0.08
0.04
0.01
0.01
0.01
0.01
0.01
0.01
0.01
0.01
0.01
0.01
0.01
0.00
0.01
0.01
0.01
0.01
0.01
0.01
0.00
0.00
0.01
0.01
0.01
0.13
0.30
0.40
0.47
0.45
0.38
0.59
0.84
0.93
0.94
0.95
0.91
0.86
0.85
0.91
0.95
0.88
0.81
0.65
0.04
0.28
0.39
0.45
0.45
0.48
0.49
0.51
0.52
0.53
0.56
0.57
0.56
0.53
0.54
0.61
0.63
0.67
0.70
0.76
0.77
0.71
0.66
0.62
0.54
0.56
0.54
0.48
0.43
0.33
0.27
0.12
0.10
0.04
0.05
0.05
0.01
0.01
0.01
0.01
0.01
0.01
0.01
0.01
0.01
0.01
0.01
0.01
0.01
0.01
0.01
0.01
0.00
0.01
0.00
0.01
0.00
0.00
0.01
0.00
0.00
0.00
0.01
0.00
0.00
0.01
0.00
0.00
0.01
0.00
0.00
0.01
0.01
0.00
0.01
0.00
0.00
0.01
0.01
0.01
0.01
0.00
0.00
0.01
0.00
0.00
0.00
0.01
0.08
0.08
0.12
0.12
0.26
0.16
0.13
0.09
0.01
0.01
0.01
0.01
0.01
0.01
0.01
0.01
0.04
0.21
0.54
0.13
0.54
0.62
0.54
0.51
0.28
0.01
0.01
0.00
0.04
0.07
0.07
0.11
0.11
0.12
0.12
0.13
0.14
0.16
0.18
0.24
0.23
0.24
0.24
0.24
0.24
0.26
0.25
0.25
0.26
0.25
0.24
0.24
0.21
0.13
0.06
0.06
0.04
0.04
0.01
0.04
0.06
0.04
0.04
0.06
0.07
0.06
0.08
0.07
0.11
0.07
0.07
0.11
0.12
0.07
0.13
0.12
0.11
0.12
0.12
0.08
0.01
0.25
0.39
0.45
0.01
0.66
0.88
0.97
1.00
0.99
0.98
0.95
0.90
0.93
0.97
0.94
0.85
0.69
0.01
0.38
0.42
0.46
0.49
0.53
0.54
0.54
0.57
0.57
0.56
0.54
0.55
0.58
0.62
0.66
0.70
0.79
0.83
0.83
0.85
0.85
0.83
0.79
0.70
0.62
0.53
0.56
0.50
0.45
0.37
0.28
0.19
0.15
0.12
0.10
0.10
0.07
0.10
0.07
0.08
0.07
0.08
0.05
0.05
0.08
0.05
0.04
0.01
0.04
0.05
0.07
0.01
0.01
0.05
0.01
0.05
0.04
0.01
0.01
0.01
0.01
0.01
0.04
0.01
0.01
0.01
0.01
0.01
0.01
0.01
0.01
0.01
0.01
0.01
0.01
0.04
0.01
0.01
0.01
0.01
0.04
0.04
0.01
0.04
0.01
0.01
0.04
0.04
0.13
0.08
0.01
0.01
0.05
0.12
0.08
0.12
0.12
0.20
0.15
0.28
0.01
0.13
0.59
0.57
0.54
0.53
0.57
0.50
0.19
0.25
0.13
0.07
0.08
0.05
0.04
0.01
0.01
0.01
0.01
0.01
0.01
0.00
0.01
0.01
0.01
0.01
0.01
0.01
0.00
0.01
0.00
0.01
0.06
0.06
0.06
0.04
0.01
0.01
0.01
0.01
0.01
0.01
0.01
0.04
0.01
0.05
0.01
0.01
0.04
0.04
0.04
0.01
0.01
0.01
0.01
0.01
0.01
0.01
0.01
0.01
0.01
0.01
0.01
0.01
0.01
0.01
0.01
0.01
0.00
0.00
0.04
0.01
0.06
0.07
0.13
0.08
0.24
0.45
0.24
0.44
0.53
0.70
0.81
0.87
0.90
0.91
0.82
0.87
0.90
0.90
0.65
0.48
0.04
0.31
0.38
0.41
0.45
0.46
0.47
0.49
0.50
0.52
0.53
0.55
0.57
0.56
0.54
0.54
0.57
0.61
0.63
0.66
0.67
0.69
0.69
0.66
0.63
0.59
0.55
0.57
0.52
0.45
0.45
0.28
0.13
0.08
0.01
0.01
0.01
0.01
0.01
0.01
0.01
0.01
0.01
0.01
0.01
0.01
0.01
0.01
0.00
0.01
0.00
0.00
0.01
0.01
0.00
0.00
0.01
0.00
0.01
0.00
0.00
0.01
0.01
0.01
0.00
0.00
0.08
0.08
0.13
0.13
0.25
0.14
0.14
0.11
0.00
0.00
0.00
0.01
0.01
0.01
0.01
0.01
0.00
0.24
0.62
0.45
0.66
0.70
0.60
0.50
0.19
0.01
0.01
0.01
0.01
0.06
0.06
0.04
0.07
0.08
0.09
0.12
0.13
0.14
0.16
0.16
0.21
0.23
0.24
0.23
0.26
0.24
0.25
0.26
0.24
0.24
0.18
0.18
0.13
0.09
0.07
0.01
0.01
0.04
0.04
0.04
0.04
0.01
0.04
0.04
0.01
0.01
0.00
0.04
0.01
0.01
0.04
0.04
0.04
0.01
0.04
0.01
0.04
0.04
0.04
0.01
0.04
0.01
0.01
0.01
0.01
0.01
0.01
0.08
0.01
0.11
0.13
0.21
0.13
0.12
0.04
0.01
0.01
0.04
0.05
0.15
0.01
0.12
0.01
0.21
0.62
0.82
0.57
0.50
0.51
0.51
0.49
0.19
0.20
0.15
0.10
0.08
0.10
0.12
0.15
0.12
0.15
0.15
0.15
0.25
0.23
0.30
0.28
0.33
0.37
0.39
0.41
0.43
0.44
0.45
0.45
0.45
0.45
0.44
0.43
0.40
0.33
0.28
0.20
0.13
0.08
0.05
0.01
0.01
0.01
0.01
0.01
0.01
0.01
0.01
0.01
0.01
0.01
0.04
0.01
0.01
0.01
0.01
0.01
0.01
0.01
0.01
0.01
0.01
0.01
0.05
0.04
0.01
0.01
0.01
0.04
0.04
0.05
0.04
0.01
0.01
0.00
0.01
0.01
0.09
0.08
0.01
0.00
0.04
0.10
0.08
0.05
0.07
0.07
0.08
0.12
0.19
0.11
0.30
0.51
0.54
0.62
0.54
0.56
0.47
0.10
0.13
0.07
0.04
0.01
0.01
0.01
0.01
0.01
0.01
0.00
0.00
0.04
0.04
0.04
0.01
0.01
0.01
0.04
0.01
0.01
0.01
0.01
0.00
0.01
0.00
0.00
0.01
0.00
0.01
0.01
0.01
0.01
0.01
0.01
0.01
0.01
0.01
0.01
0.01
0.01
0.01
0.01
0.01
0.01
0.01
0.00
0.01
0.00
0.00
0.00
0.00
0.00
0.01
0.01
0.01
0.00
0.01
0.01
0.01
0.01
0.01
0.01
0.00
0.04
0.01
0.07
0.04
0.18
0.09
0.01
0.04
0.04
0.05
0.05
0.01
0.04
0.04
0.01
0.07
0.05
0.13
0.43
0.35
0.59
0.67
0.54
0.54
0.44
0.01
0.01
0.01
0.01
0.00
0.01
0.01
0.04
0.01
0.01
0.04
0.07
0.09
0.09
0.12
0.12
0.14
0.14
0.14
0.21
0.18
0.16
0.16
0.14
0.13
0.13
0.11
0.08
0.07
0.04
0.07
0.04
0.04
0.07
0.04
0.06
0.07
0.07
0.06
0.06
0.01
0.01
0.06
0.04
0.06
0.06
0.06
0.06
0.08
0.07
0.09
0.08
0.08
0.07
0.07
0.08
0.08
0.07
0.01
0.12
0.28
0.39
0.35
0.04
0.73
0.89
0.96
0.96
0.97
0.95
0.90
0.88
0.93
0.96
0.90
0.81
0.65
0.07
0.28
0.38
0.45
0.45
0.46
0.49
0.51
0.53
0.53
0.54
0.57
0.57
0.54
0.54
0.61
0.64
0.70
0.75
0.77
0.78
0.77
0.70
0.64
0.57
0.54
0.54
0.49
0.43
0.30
0.13
0.05
0.01
0.01
0.01
0.01
0.00
0.00
0.00
0.00
0.00
0.01
0.00
0.00
0.00
0.01
0.00
0.01
0.01
0.00
0.01
0.01
0.01
0.01
0.01
0.01
0.01
0.01
0.01
0.01
0.01
0.01
0.01
0.01
0.01
0.01
0.01
0.01
0.01
0.01
0.04
0.01
0.01
0.01
0.01
0.01
0.01
0.01
0.01
0.01
0.01
0.01
0.01
0.01
0.01
0.04
0.04
0.01
0.01
0.00
0.04
0.01
0.13
0.08
0.01
0.00
0.05
0.07
0.08
0.08
0.04
0.05
0.07
0.12
0.20
0.09
0.35
0.43
0.53
0.61
0.53
0.54
0.45
0.12
0.19
0.12
0.08
0.04
0.01
0.01
0.01
0.01
0.01
0.01
0.01
0.01
0.01
0.01
0.01
0.01
0.00
0.01
0.01
0.01
0.01
0.01
0.01
0.00
0.01
0.01
0.00
0.01
0.05
0.05
0.04
0.01
0.04
0.01
0.07
0.01
0.01
0.01
0.01
0.05
0.01
0.05
0.04
0.01
0.01
0.01
0.01
0.01
0.01
0.10
0.07
0.01
0.04
0.15
0.40
0.53
0.23
0.49
0.74
0.81
0.87
0.86
0.90
0.86
0.76
0.00
0.11
0.07
0.01
0.10
0.28
0.37
0.38
0.41
0.41
0.45
0.45
0.46
0.48
0.49
0.51
0.53
0.53
0.56
0.57
0.57
0.57
0.57
0.56
0.52
0.49
0.46
0.40
0.30
0.19
0.10
0.01
0.01
0.01
0.01
0.01
0.01
0.01
0.01
0.01
0.01
0.00
0.00
0.01
0.00
0.01
0.01
0.00
0.00
0.00
0.00
0.01
0.00
0.00
0.00
0.00
0.00
0.00
0.01
0.01
0.01
0.01
0.00
0.01
0.01
0.01
0.00
0.00
0.01
0.00
0.00
0.00
0.01
0.00
0.00
0.01
0.01
0.01
0.01
0.01
0.01
0.00
0.01
0.01
0.01
0.01
0.01
0.01
0.01
0.01
0.04
0.09
0.09
0.13
0.13
0.26
0.13
0.11
0.08
0.00
0.01
0.01
0.01
0.01
0.01
0.01
0.01
0.04
0.23
0.67
0.57
0.62
0.54
0.54
0.48
0.05
0.01
0.00
0.00
0.01
0.04
0.04
0.07
0.08
0.08
0.09
0.12
0.11
0.13
0.13
0.16
0.14
0.14
0.16
0.18
0.21
0.24
0.23
0.23
0.21
0.18
0.21
0.16
0.13
0.07
0.01
0.01
0.01
0.00
0.01
0.01
0.00
0.00
0.01
0.00
0.00
0.00
0.00
0.00
0.00
0.00
0.00
0.00
0.00
0.00
0.00
0.01
0.00
0.00
0.00
0.01
0.01
0.00
0.00
0.01
0.01
0.01
0.01
0.00
0.06
0.01
0.08
0.12
0.14
0.12
0.08
0.00
0.01
0.01
0.01
0.04
0.05
0.05
0.05
0.08
0.01
0.08
0.66
0.56
0.65
0.55
0.54
0.46
0.12
0.05
0.04
0.01
0.01
0.01
0.01
0.01
0.00
0.01
0.00
0.04
0.01
0.04
0.04
0.06
0.08
0.04
0.07
0.06
0.04
0.04
0.01
0.01
0.01
0.01
0.01
0.04
0.01
0.01
0.01
0.01
0.01
0.01
0.01
0.01
0.01
0.00
0.01
0.00
0.00
0.00
0.00
0.00
0.01
0.01
0.00
0.00
0.00
0.00
0.01
0.00
0.00
0.00
0.01
0.00
0.00
0.01
0.00
0.00
0.00
0.01
0.00
0.00
0.00
0.00
0.00
0.06
0.01
0.06
0.04
0.23
0.06
0.01
0.00
0.10
0.07
0.08
0.01
0.05
0.07
0.07
0.08
0.01
0.13
0.62
0.46
0.57
0.57
0.54
0.50
0.28
0.08
0.10
0.12
0.04
0.05
0.05
0.01
0.01
0.01
0.01
0.01
0.01
0.01
0.01
0.01
0.01
0.04
0.01
0.01
0.10
0.13
0.19
0.20
0.19
0.20
0.23
0.15
0.23
0.12
0.08
0.08
0.05
0.01
0.04
0.05
0.01
0.01
0.01
0.01
0.01
0.04
0.04
0.01
0.04
0.01
0.01
0.01
0.01
0.01
0.01
0.01
0.01
0.01
0.01
0.01
0.01
0.01
0.01
0.04
0.04
0.04
0.01
0.01
0.01
0.01
0.00
0.00
0.01
0.01
0.11
0.08
0.01
0.00
0.01
0.12
0.08
0.07
0.12
0.10
0.10
0.12
0.20
0.04
0.43
0.24
0.55
0.59
0.53
0.53
0.45
0.10
0.12
0.05
0.04
0.01
0.01
0.01
0.01
0.01
0.01
0.00
0.00
0.01
0.01
0.01
0.01
0.01
0.00
0.01
0.00
0.00
0.01
0.01
0.01
0.01
0.01
0.01
0.01
0.01
0.01
0.01
0.01
0.01
0.01
0.01
0.01
0.01
0.01
0.01
0.01
0.01
0.01
0.01
0.00
0.00
0.00
0.01
0.00
0.00
0.00
0.01
0.00
0.00
0.00
0.01
0.01
0.01
0.00
0.01
0.01
0.01
0.01
0.01
0.01
0.01
0.00
0.06
0.06
0.04
0.04
0.18
0.11
0.06
0.01
0.04
0.04
0.08
0.01
0.05
0.05
0.04
0.08
0.10
0.13
0.43
0.24
0.61
0.70
0.54
0.53
0.42
0.01
0.01
0.01
0.01
0.01
0.04
0.06
0.06
0.07
0.09
0.09
0.11
0.12
0.13
0.13
0.13
0.14
0.16
0.16
0.16
0.13
0.13
0.12
0.12
0.08
0.09
0.04
0.04
0.04
0.01
0.01
0.04
0.01
0.04
0.04
0.01
0.04
0.04
0.04
0.01
0.04
0.04
0.01
0.06
0.01
0.04
0.06
0.04
0.06
0.04
0.06
0.06
0.04
0.01
0.04
0.04
0.01
0.01
0.01
0.01
0.01
0.00
0.01
0.00
0.00
0.00
0.00
0.01
0.04
0.11
0.01
0.09
0.09
0.21
0.09
0.04
0.01
0.01
0.01
0.01
0.01
0.01
0.01
0.01
0.01
0.04
0.26
0.67
0.57
0.65
0.55
0.54
0.46
0.08
0.01
0.01
0.01
0.01
0.01
0.00
0.01
0.01
0.04
0.04
0.04
0.06
0.07
0.08
0.09
0.08
0.08
0.09
0.11
0.07
0.06
0.04
0.01
0.01
0.00
0.01
0.01
0.01
0.01
0.01
0.00
0.01
0.01
0.01
0.01
0.01
0.01
0.01
0.01
0.01
0.01
0.01
0.00
0.04
0.01
0.01
0.01
0.01
0.00
0.06
0.04
0.04
0.04
0.01
0.01
0.04
0.01
0.01
0.01
0.00
0.00
0.01
0.00
0.01
0.01
0.00
0.00
0.01
0.00
0.01
0.04
0.01
0.01
0.04
0.12
0.13
0.04
0.01
0.04
0.07
0.07
0.01
0.07
0.01
0.05
0.07
0.12
0.04
0.14
0.63
0.54
0.62
0.54
0.53
0.45
0.04
0.07
0.07
0.05
0.01
0.01
0.01
0.01
0.01
0.01
0.00
0.00
0.00
0.01
0.01
0.00
0.01
0.01
0.01
0.01
0.05
0.07
0.12
0.12
0.15
0.19
0.25
0.19
0.15
0.13
0.12
0.08
0.05
0.04
0.07
0.04
0.01
0.01
0.01
0.01
0.01
0.05
0.01
0.04
0.01
0.01
0.01
0.01
0.01
0.01
0.01
0.01
0.01
0.05
0.07
0.05
0.01
0.07
0.07
0.08
0.08
0.05
0.08
0.08
0.08
0.07
0.10
0.08
0.05
0.07
0.05
0.01
0.01
0.01
0.00
0.00
0.11
0.01
0.01
0.01
0.10
0.13
0.10
0.10
0.12
0.12
0.15
0.13
0.01
0.12
0.56
0.49
0.57
0.54
0.54
0.53
0.30
0.12
0.07
0.08
0.01
0.01
0.01
0.01
0.01
0.01
0.00
0.01
0.01
0.01
0.01
0.01
0.04
0.04
0.06
0.04
0.04
0.04
0.01
0.01
0.00
0.01
0.01
0.01
0.01
0.01
0.01
0.01
0.01
0.00
0.01
0.01
0.00
0.01
0.01
0.01
0.00
0.01
0.00
0.01
0.00
0.01
0.01
0.01
0.01
0.01
0.04
0.01
0.04
0.01
0.01
0.01
0.01
0.01
0.01
0.00
0.00
0.01
0.00
0.00
0.01
0.01
0.01
0.00
0.00
0.00
0.00
0.00
0.04
0.06
0.04
0.09
0.11
0.16
0.06
0.01
0.00
0.04
0.01
0.05
0.01
0.01
0.04
0.01
0.08
0.12
0.27
0.57
0.57
0.70
0.57
0.54
0.46
0.04
0.01
0.01
0.01
0.00
0.01
0.01
0.04
0.06
0.07
0.07
0.08
0.09
0.11
0.13
0.13
0.13
0.16
0.18
0.18
0.16
0.14
0.13
0.14
0.11
0.09
0.06
0.06
0.01
0.01
0.01
0.00
0.01
0.01
0.01
0.04
0.06
0.01
0.01
0.00
0.01
0.01
0.01
0.01
0.01
0.01
0.01
0.01
0.01
0.00
0.01
0.01
0.01
0.04
0.01
0.01
0.00
0.00
0.01
0.01
0.00
0.00
0.00
0.01
0.01
0.00
0.01
0.00
0.01
0.01
0.01
0.01
0.00
0.01
0.00
0.00
0.04
0.01
0.08
0.08
0.14
0.06
0.01
0.01
0.07
0.05
0.04
0.01
0.01
0.05
0.04
0.04
0.04
0.16
0.65
0.57
0.64
0.57
0.54
0.48
0.19
0.05
0.08
0.01
0.01
0.01
0.01
0.01
0.01
0.01
0.04
0.04
0.06
0.07
0.07
0.09
0.08
0.12
0.12
0.08
0.11
0.07
0.06
0.07
0.04
0.01
0.01
0.01
0.01
0.01
0.01
0.01
0.00
0.01
0.01
0.01
0.01
0.01
0.01
0.00
0.01
0.01
0.04
0.00
0.01
0.04
0.01
0.01
0.01
0.01
0.00
0.04
0.01
0.01
0.01
0.04
0.01
0.00
0.00
0.00
0.00
0.00
0.00
0.00
0.01
0.01
0.01
0.00
0.00
0.01
0.01
0.01
0.01
0.01
0.01
0.04
0.01
0.04
0.11
0.12
0.01
0.01
0.01
0.08
0.05
0.05
0.07
0.01
0.08
0.05
0.08
0.09
0.23
0.68
0.57
0.57
0.54
0.56
0.49
0.07
0.08
0.07
0.01
0.01
0.01
0.01
0.01
0.01
0.01
0.01
0.01
0.00
0.00
0.00
0.01
0.01
0.01
0.01
0.01
0.01
0.07
0.04
0.10
0.08
0.10
0.10
0.12
0.07
0.07
0.05
0.01
0.01
0.01
0.01
0.01
0.00
0.00
0.00
0.00
0.01
0.01
0.00
0.01
0.01
0.01
0.00
0.00
0.00
0.01
0.00
0.01
0.01
0.00
0.00
0.00
0.01
0.00
0.01
0.00
0.00
0.01
0.01
0.00
0.01
0.00
0.00
0.00
0.00
0.00
0.01
0.00
0.00
0.04
0.06
0.04
0.08
0.16
0.13
0.06
0.04
0.01
0.05
0.04
0.01
0.04
0.04
0.05
0.04
0.07
0.13
0.44
0.43
0.53
0.62
0.54
0.52
0.42
0.01
0.01
0.01
0.00
0.01
0.04
0.04
0.06
0.06
0.08
0.09
0.12
0.12
0.12
0.12
0.12
0.12
0.13
0.13
0.13
0.13
0.12
0.13
0.09
0.09
0.04
0.06
0.01
0.00
0.01
0.01
0.01
0.01
0.01
0.01
0.04
0.04
0.07
0.04
0.04
0.01
0.06
0.04
0.04
0.06
0.06
0.04
0.04
0.06
0.06
0.04
0.04
0.04
0.04
0.01
0.04
0.04
0.04
0.01
0.01
0.04
0.01
0.01
0.01
0.01
0.00
0.01
0.00
0.01
0.04
0.01
0.04
0.01
0.01
0.01
0.01
0.08
0.09
0.07
0.12
0.14
0.16
0.07
0.01
0.00
0.01
0.04
0.01
0.01
0.01
0.04
0.04
0.08
0.13
0.27
0.56
0.54
0.66
0.54
0.57
0.45
0.01
0.01
0.01
0.00
0.01
0.01
0.04
0.06
0.07
0.04
0.11
0.09
0.13
0.11
0.12
0.13
0.13
0.13
0.16
0.13
0.13
0.12
0.11
0.08
0.06
0.04
0.01
0.01
0.01
0.01
0.01
0.00
0.01
0.00
0.00
0.01
0.01
0.01
0.04
0.00
0.01
0.01
0.00
0.01
0.01
0.04
0.04
0.01
0.01
0.04
0.04
0.04
0.04
0.06
0.04
0.04
0.04
0.01
0.06
0.04
0.01
0.04
0.01
0.01
0.04
0.01
0.01
0.01
0.01
0.01
0.01
0.00
0.00
0.00
0.01
0.01
0.01
0.06
0.07
0.01
0.11
0.13
0.18
0.08
0.04
0.01
0.01
0.04
0.01
0.01
0.01
0.01
0.01
0.04
0.08
0.18
0.69
0.57
0.61
0.54
0.53
0.48
0.08
0.04
0.04
0.01
0.01
0.01
0.00
0.01
0.01
0.01
0.04
0.06
0.04
0.06
0.04
0.07
0.06
0.06
0.06
0.04
0.04
0.01
0.01
0.01
0.00
0.01
0.01
0.01
0.01
0.05
0.01
0.01
0.01
0.01
0.01
0.00
0.01
0.04
0.01
0.00
0.01
0.01
0.01
0.01
0.01
0.00
0.00
0.00
0.00
0.01
0.04
0.01
0.01
0.01
0.01
0.00
0.00
0.00
0.00
0.01
0.01
0.01
0.00
0.01
0.01
0.01
0.01
0.01
0.01
0.01
0.01
0.01
0.01
0.01
0.01
0.01
0.01
0.01
0.01
0.00
0.13
0.06
0.01
0.01
0.13
0.07
0.08
0.08
0.07
0.08
0.07
0.13
0.00
0.14
0.63
0.57
0.54
0.56
0.55
0.48
0.10
0.15
0.05
0.07
0.07
0.01
0.01
0.01
0.01
0.01
0.01
0.01
0.01
0.01
0.01
0.01
0.01
0.01
0.01
0.05
0.04
0.07
0.12
0.13
0.15
0.15
0.13
0.13
0.15
0.08
0.10
0.08
0.04
0.04
0.01
0.01
0.01
0.01
0.01
0.01
0.01
0.01
0.01
0.01
0.01
0.01
0.01
0.01
0.01
0.01
0.01
0.01
0.01
0.01
0.01
0.01
0.01
0.01
0.01
0.01
0.01
0.01
0.01
0.01
0.01
0.01
0.01
0.01
0.01
0.01
0.00
0.01
0.01
0.07
0.04
0.21
0.12
0.08
0.01
0.01
0.01
0.04
0.01
0.01
0.04
0.05
0.05
0.01
0.12
0.49
0.28
0.54
0.59
0.55
0.53
0.33
0.04
0.04
0.01
0.00
0.00
0.00
0.04
0.04
0.01
0.06
0.04
0.06
0.11
0.11
0.12
0.11
0.12
0.14
0.16
0.14
0.18
0.14
0.13
0.13
0.12
0.12
0.09
0.07
0.06
0.04
0.04
0.04
0.01
0.04
0.04
0.04
0.04
0.07
0.04
0.04
0.04
0.04
0.01
0.04
0.06
0.04
0.06
0.04
0.04
0.06
0.06
0.04
0.04
0.04
0.04
0.06
0.04
0.04
0.04
0.04
0.04
0.04
0.01
0.04
0.01
0.04
0.04
0.01
0.01
0.01
0.01
0.04
0.11
0.06
0.14
0.11
0.25
0.13
0.11
0.06
0.01
0.01
0.01
0.01
0.01
0.01
0.01
0.04
0.01
0.21
0.51
0.15
0.59
0.65
0.54
0.51
0.28
0.01
0.01
0.00
0.01
0.07
0.06
0.04
0.09
0.07
0.09
0.11
0.11
0.13
0.12
0.13
0.14
0.16
0.13
0.18
0.18
0.16
0.13
0.13
0.11
0.09
0.04
0.06
0.01
0.00
0.00
0.00
0.01
0.00
0.01
0.00
0.01
0.01
0.01
0.01
0.00
0.01
0.01
0.01
0.01
0.01
0.01
0.01
0.04
0.04
0.01
0.04
0.04
0.04
0.01
0.01
0.01
0.01
0.01
0.01
0.01
0.04
0.01
0.01
0.01
0.01
0.01
0.01
0.01
0.01
0.00
0.01
0.00
0.00
0.04
0.08
0.04
0.09
0.11
0.18
0.04
0.04
0.01
0.07
0.07
0.05
0.01
0.01
0.08
0.04
0.10
0.07
0.24
0.63
0.54
0.62
0.54
0.57
0.46
0.07
0.01
0.05
0.01
0.01
0.01
0.01
0.01
0.00
0.00
0.01
0.01
0.01
0.00
0.00
0.01
0.01
0.01
0.01
0.01
0.01
0.04
0.07
0.05
0.08
0.10
0.08
0.08
0.13
0.05
0.08
0.04
0.05
0.01
0.01
0.01
0.01
0.01
0.01
0.01
0.01
0.01
0.01
0.01
0.01
0.01
0.01
0.01
0.01
0.01
0.01
0.01
0.01
0.01
0.01
0.01
0.01
0.01
0.01
0.01
0.01
0.04
0.04
0.01
0.01
0.01
0.04
0.01
0.07
0.01
0.00
0.01
0.04
0.04
0.11
0.09
0.01
0.01
0.07
0.08
0.05
0.10
0.08
0.12
0.07
0.23
0.01
0.13
0.58
0.56
0.59
0.53
0.56
0.50
0.13
0.19
0.08
0.05
0.04
0.01
0.01
0.01
0.00
0.01
0.01
0.00
0.01
0.01
0.01
0.01
0.01
0.01
0.01
0.01
0.01
0.01
0.00
0.01
0.00
0.01
0.01
0.01
0.01
0.04
0.01
0.05
0.01
0.01
0.01
0.01
0.01
0.01
0.00
0.00
0.01
0.01
0.00
0.01
0.00
0.01
0.01
0.00
0.01
0.01
0.01
0.04
0.00
0.01
0.00
0.00
0.01
0.00
0.01
0.01
0.01
0.01
0.01
0.01
0.01
0.01
0.01
0.01
0.01
0.01
0.01
0.01
0.01
0.01
0.04
0.04
0.07
0.08
0.13
0.11
0.04
0.01
0.01
0.05
0.07
0.01
0.07
0.05
0.10
0.08
0.08
0.12
0.30
0.16
0.59
0.69
0.54
0.53
0.42
0.05
0.07
0.01
0.01
0.00
0.01
0.01
0.01
0.01
0.06
0.04
0.07
0.09
0.09
0.09
0.12
0.12
0.12
0.13
0.12
0.12
0.11
0.08
0.09
0.06
0.01
0.01
0.01
0.01
0.01
0.01
0.01
0.04
0.05
0.04
0.04
0.04
0.07
0.07
0.10
0.12
0.10
0.10
0.15
0.12
0.15
0.15
0.13
0.20
0.19
0.19
0.15
0.20
0.20
0.19
0.13
0.15
0.12
0.12
0.13
0.10
0.12
0.12
0.07
0.10
0.07
0.05
0.05
0.04
0.05
0.04
0.01
0.00
0.01
0.06
0.01
0.14
0.08
0.04
0.01
0.05
0.04
0.05
0.01
0.04
0.05
0.04
0.05
0.12
0.11
0.38
0.01
0.57
0.65
0.55
0.51
0.37
0.07
0.05
0.01
0.01
0.01
0.01
0.01
0.01
0.01
0.01
0.01
0.01
0.04
0.04
0.06
0.07
0.04
0.06
0.04
0.06
0.04
0.01
0.01
0.01
0.01
0.01
0.01
0.01
0.01
0.01
0.04
0.05
0.01
0.01
0.01
0.00
0.01
0.01
0.01
0.01
0.01
0.01
0.00
0.00
0.00
0.00
0.00
0.00
0.00
0.01
0.00
0.00
0.01
0.00
0.00
0.00
0.01
0.01
0.01
0.00
0.01
0.01
0.01
0.01
0.01
0.01
0.01
0.01
0.01
0.01
0.01
0.01
0.00
0.01
0.01
0.00
0.13
0.08
0.01
0.01
0.04
0.08
0.12
0.04
0.07
0.10
0.10
0.12
0.07
0.04
0.54
0.51
0.54
0.53
0.54
0.51
0.23
0.19
0.15
0.13
0.10
0.07
0.01
0.01
0.01
0.01
0.01
0.01
0.01
0.01
0.01
0.01
0.04
0.01
0.01
0.05
0.01
0.08
0.08
0.08
0.10
0.10
0.08
0.10
0.10
0.07
0.01
0.05
0.01
0.01
0.01
0.01
0.01
0.01
0.01
0.01
0.01
0.01
0.01
0.01
0.00
0.01
0.01
0.01
0.01
0.01
0.00
0.01
0.01
0.00
0.01
0.00
0.00
0.01
0.01
0.01
0.01
0.01
0.01
0.01
0.01
0.01
0.01
0.01
0.01
0.00
0.04
0.00
0.09
0.11
0.14
0.14
0.08
0.00
0.01
0.04
0.01
0.04
0.07
0.10
0.12
0.20
0.00
0.13
0.51
0.56
0.59
0.54
0.57
0.51
0.12
0.15
0.08
0.04
0.04
0.01
0.01
0.01
0.00
0.00
0.01
0.01
0.04
0.04
0.04
0.06
0.07
0.08
0.08
0.07
0.08
0.06
0.08
0.04
0.06
0.07
0.04
0.01
0.01
0.00
0.00
0.00
0.01
0.01
0.00
0.01
0.00
0.01
0.01
0.04
0.01
0.01
0.00
0.01
0.04
0.04
0.01
0.04
0.01
0.01
0.04
0.04
0.04
0.01
0.04
0.01
0.01
0.04
0.04
0.01
0.01
0.00
0.04
0.04
0.01
0.04
0.04
0.01
0.01
0.01
0.06
0.01
0.04
0.08
0.08
0.18
0.13
0.27
0.18
0.13
0.07
0.01
0.00
0.01
0.01
0.01
0.01
0.01
0.01
0.01
0.24
0.63
0.56
0.63
0.55
0.54
0.46
0.04
0.00
0.01
0.01
0.01
0.04
0.06
0.07
0.06
0.09
0.11
0.11
0.13
0.14
0.14
0.18
0.18
0.23
0.18
0.24
0.21
0.18
0.21
0.21
0.14
0.13
0.13
0.11
0.07
0.06
0.06
0.04
0.06
0.06
0.06
0.08
0.08
0.07
0.08
0.08
0.06
0.08
0.06
0.07
0.07
0.06
0.07
0.07
0.07
0.06
0.06
0.06
0.06
0.07
0.04
0.04
0.06
0.01
0.01
0.04
0.01
0.04
0.01
0.01
0.01
0.04
0.04
0.04
0.01
0.04
0.04
0.08
0.13
0.12
0.14
0.24
0.23
0.24
0.13
0.04
0.01
0.00
0.01
0.00
0.00
0.00
0.01
0.01
0.13
0.30
0.48
0.54
0.66
0.54
0.53
0.40
0.01
0.01
0.00
0.01
0.01
0.01
0.00
0.04
0.06
0.07
0.06
0.06
0.08
0.07
0.09
0.09
0.11
0.09
0.08
0.09
0.09
0.07
0.08
0.04
0.00
0.01
0.00
0.01
0.00
0.01
0.01
0.00
0.01
0.04
0.04
0.04
0.04
0.06
0.06
0.04
0.04
0.01
0.04
0.04
0.04
0.07
0.04
0.06
0.07
0.04
0.01
0.04
0.01
0.06
0.01
0.04
0.01
0.01
0.01
0.00
0.01
0.00
0.00
0.01
0.01
0.01
0.01
0.01
0.01
0.01
0.01
0.01
0.01
0.01
0.01
0.01
0.01
0.01
0.04
0.13
0.11
0.06
0.01
0.01
0.07
0.07
0.04
0.08
0.12
0.12
0.10
0.20
0.01
0.24
0.53
0.54
0.58
0.54
0.53
0.46
0.10
0.15
0.10
0.07
0.01
0.01
0.01
0.01
0.01
0.01
0.01
0.01
0.01
0.01
0.01
0.00
0.01
0.01
0.01
0.01
0.04
0.01
0.10
0.05
0.08
0.05
0.08
0.07
0.05
0.07
0.01
0.01
0.01
0.01
0.01
0.01
0.01
0.01
0.01
0.01
0.01
0.00
0.01
0.01
0.01
0.01
0.01
0.01
0.01
0.01
0.01
0.01
0.01
0.01
0.00
0.00
0.01
0.00
0.01
0.01
0.01
0.01
0.01
0.01
0.01
0.01
0.01
0.01
0.01
0.01
0.04
0.01
0.01
0.00
0.06
0.13
0.12
0.12
0.06
0.00
0.04
0.04
0.04
0.05
0.04
0.07
0.07
0.10
0.04
0.25
0.56
0.54
0.59
0.54
0.55
0.48
0.07
0.07
0.04
0.01
0.01
0.00
0.00
0.00
0.00
0.04
0.04
0.04
0.06
0.08
0.07
0.08
0.09
0.09
0.11
0.09
0.11
0.12
0.12
0.09
0.11
0.06
0.11
0.06
0.06
0.01
0.01
0.01
0.01
0.01
0.01
0.04
0.04
0.04
0.01
0.01
0.04
0.06
0.04
0.01
0.01
0.04
0.01
0.04
0.04
0.06
0.04
0.04
0.04
0.04
0.04
0.04
0.01
0.01
0.04
0.01
0.01
0.01
0.01
0.01
0.01
0.01
0.01
0.00
0.01
0.01
0.01
0.01
0.01
0.01
0.06
0.09
0.08
0.11
0.26
0.18
0.12
0.08
0.00
0.00
0.01
0.00
0.01
0.01
0.01
0.01
0.04
0.13
0.48
0.20
0.61
0.66
0.54
0.51
0.28
0.01
0.01
0.01
0.01
0.01
0.01
0.01
0.04
0.04
0.06
0.07
0.07
0.09
0.09
0.12
0.13
0.12
0.14
0.13
0.13
0.13
0.12
0.12
0.09
0.08
0.04
0.01
0.01
0.00
0.00
0.01
0.01
0.01
0.01
0.01
0.00
0.00
0.00
0.00
0.00
0.00
0.00
0.00
0.00
0.01
0.00
0.01
0.01
0.01
0.04
0.00
0.00
0.00
0.01
0.01
0.01
0.00
0.00
0.01
0.00
0.00
0.01
0.00
0.01
0.01
0.01
0.01
0.01
0.01
0.01
0.01
0.01
0.01
0.01
0.04
0.01
0.06
0.04
0.21
0.12
0.12
0.04
0.01
0.01
0.01
0.01
0.01
0.01
0.04
0.04
0.08
0.11
0.48
0.25
0.58
0.62
0.54
0.51
0.30
0.05
0.07
0.04
0.01
0.01
0.01
0.01
0.00
0.00
0.00
0.00
0.01
0.01
0.04
0.04
0.04
0.06
0.06
0.04
0.04
0.04
0.01
0.01
0.00
0.00
0.01
0.01
0.01
0.04
0.05
0.01
0.01
0.01
0.01
0.01
0.01
0.01
0.00
0.00
0.00
0.01
0.01
0.01
0.01
0.00
0.01
0.01
0.00
0.01
0.01
0.00
0.01
0.01
0.01
0.01
0.01
0.01
0.00
0.01
0.01
0.01
0.01
0.01
0.01
0.01
0.01
0.01
0.05
0.01
0.01
0.01
0.01
0.01
0.00
0.01
0.04
0.06
0.13
0.11
0.06
0.00
0.04
0.04
0.10
0.08
0.07
0.12
0.12
0.13
0.04
0.01
0.51
0.42
0.54
0.55
0.54
0.53
0.33
0.20
0.20
0.12
0.10
0.08
0.07
0.08
0.07
0.01
0.04
0.05
0.01
0.05
0.05
0.04
0.01
0.05
0.05
0.10
0.12
0.19
0.19
0.19
0.15
0.25
0.19
0.27
0.19
0.15
0.12
0.12
0.10
0.10
0.07
0.01
0.01
0.01
0.01
0.01
0.01
0.04
0.01
0.01
0.01
0.01
0.04
0.01
0.05
0.04
0.01
0.05
0.04
0.01
0.01
0.04
0.04
0.04
0.01
0.04
0.05
0.05
0.07
0.05
0.04
0.07
0.05
0.08
0.05
0.07
0.05
0.01
0.01
0.00
0.00
0.14
0.08
0.06
0.01
0.07
0.05
0.07
0.08
0.08
0.10
0.10
0.13
0.08
0.04
0.51
0.46
0.54
0.55
0.54
0.53
0.28
0.19
0.08
0.08
0.05
0.01
0.01
0.01
0.01
0.01
0.00
0.00
0.01
0.00
0.00
0.01
0.01
0.01
0.01
0.01
0.01
0.01
0.06
0.01
0.07
0.01
0.01
0.01
0.00
0.00
0.01
0.00
0.01
0.00
0.00
0.00
0.01
0.01
0.00
0.01
0.01
0.00
0.01
0.01
0.01
0.01
0.01
0.04
0.01
0.01
0.01
0.01
0.01
0.01
0.01
0.04
0.01
0.01
0.00
0.01
0.00
0.01
0.01
0.00
0.00
0.00
0.01
0.00
0.00
0.00
0.01
0.08
0.08
0.11
0.25
0.14
0.16
0.09
0.00
0.01
0.01
0.01
0.01
0.01
0.01
0.01
0.01
0.16
0.47
0.04
0.61
0.69
0.55
0.52
0.37
0.01
0.01
0.01
0.00
0.01
0.01
0.04
0.01
0.06
0.07
0.07
0.07
0.11
0.11
0.13
0.14
0.16
0.21
0.21
0.18
0.18
0.23
0.18
0.16
0.13
0.13
0.11
0.07
0.08
0.04
0.04
0.01
0.01
0.04
0.06
0.04
0.06
0.06
0.04
0.04
0.04
0.06
0.06
0.06
0.07
0.07
0.04
0.07
0.07
0.08
0.07
0.07
0.07
0.07
0.07
0.06
0.06
0.01
0.06
0.04
0.04
0.04
0.01
0.00
0.01
0.01
0.01
0.01
0.01
0.01
0.07
0.07
0.13
0.24
0.23
0.18
0.12
0.01
0.00
0.01
0.00
0.01
0.01
0.01
0.01
0.07
0.11
0.26
0.54
0.54
0.66
0.53
0.54
0.42
0.01
0.01
0.01
0.00
0.01
0.00
0.01
0.04
0.04
0.04
0.08
0.07
0.08
0.09
0.11
0.12
0.12
0.11
0.13
0.12
0.09
0.12
0.11
0.06
0.04
0.01
0.00
0.01
0.01
0.01
0.01
0.00
0.00
0.00
0.01
0.01
0.01
0.04
0.01
0.01
0.01
0.04
0.01
0.01
0.01
0.01
0.01
0.01
0.04
0.01
0.01
0.01
0.04
0.01
0.00
0.04
0.04
0.04
0.00
0.00
0.01
0.00
0.01
0.01
0.00
0.00
0.00
0.00
0.01
0.01
0.01
0.01
0.04
0.04
0.06
0.08
0.18
0.12
0.12
0.11
0.01
0.01
0.01
0.01
0.01
0.01
0.04
0.01
0.10
0.11
0.46
0.04
0.54
0.57
0.54
0.51
0.35
0.08
0.04
0.01
0.04
0.01
0.01
0.01
0.01
0.01
0.01
0.01
0.01
0.00
0.01
0.01
0.01
0.01
0.01
0.01
0.01
0.01
0.01
0.01
0.07
0.07
0.10
0.05
0.07
0.01
0.01
0.01
0.01
0.01
0.01
0.01
0.01
0.01
0.00
0.01
0.00
0.00
0.01
0.00
0.00
0.01
0.01
0.00
0.01
0.00
0.00
0.00
0.01
0.01
0.00
0.01
0.01
0.01
0.01
0.01
0.00
0.00
0.01
0.01
0.01
0.01
0.01
0.00
0.01
0.01
0.07
0.14
0.14
0.13
0.07
0.00
0.01
0.01
0.01
0.05
0.08
0.08
0.07
0.19
0.06
0.32
0.43
0.53
0.57
0.53
0.53
0.45
0.05
0.05
0.01
0.01
0.01
0.00
0.00
0.00
0.01
0.00
0.04
0.04
0.04
0.06
0.04
0.07
0.07
0.07
0.07
0.06
0.06
0.04
0.07
0.07
0.01
0.04
0.01
0.01
0.01
0.00
0.00
0.01
0.00
0.00
0.01
0.01
0.04
0.04
0.01
0.01
0.04
0.01
0.04
0.04
0.01
0.04
0.04
0.04
0.04
0.04
0.01
0.00
0.00
0.01
0.01
0.01
0.01
0.00
0.01
0.00
0.00
0.00
0.00
0.00
0.00
0.01
0.01
0.01
0.06
0.04
0.08
0.09
0.21
0.13
0.09
0.04
0.01
0.01
0.07
0.01
0.01
0.07
0.04
0.08
0.01
0.18
0.60
0.54
0.65
0.62
0.54
0.49
0.12
0.01
0.01
0.01
0.00
0.00
0.01
0.01
0.01
0.04
0.04
0.07
0.06
0.08
0.09
0.12
0.12
0.13
0.13
0.14
0.14
0.13
0.14
0.12
0.13
0.09
0.06
0.04
0.01
0.01
0.00
0.00
0.00
0.00
0.00
0.01
0.01
0.00
0.00
0.01
0.00
0.01
0.00
0.01
0.04
0.01
0.01
0.04
0.01
0.01
0.04
0.04
0.01
0.01
0.01
0.01
0.01
0.01
0.01
0.01
0.00
0.00
0.01
0.01
0.01
0.00
0.00
0.01
0.06
0.04
0.08
0.16
0.13
0.13
0.04
0.01
0.01
0.07
0.01
0.04
0.07
0.07
0.07
0.13
0.08
0.13
0.59
0.54
0.66
0.53
0.56
0.45
0.08
0.04
0.01
0.01
0.01
0.01
0.01
0.00
0.00
0.01
0.04
0.01
0.04
0.04
0.06
0.07
0.08
0.08
0.08
0.07
0.07
0.04
0.04
0.00
0.01
0.01
0.01
0.04
0.01
0.01
0.01
0.01
0.01
0.01
0.00
0.01
0.01
0.01
0.01
0.01
0.00
0.00
0.00
0.00
0.01
0.01
0.01
0.01
0.01
0.01
0.00
0.01
0.01
0.01
0.00
0.01
0.00
0.01
0.01
0.01
0.01
0.01
0.01
0.01
0.01
0.01
0.01
0.01
0.01
0.00
0.04
0.00
0.06
0.04
0.23
0.08
0.04
0.01
0.04
0.07
0.05
0.04
0.01
0.04
0.04
0.05
0.13
0.08
0.50
0.01
0.53
0.55
0.53
0.51
0.31
0.13
0.12
0.08
0.01
0.01
0.01
0.04
0.01
0.01
0.01
0.01
0.01
0.01
0.01
0.01
0.01
0.05
0.04
0.07
0.10
0.10
0.13
0.20
0.20
0.19
0.25
0.23
0.19
0.19
0.12
0.12
0.08
0.04
0.01
0.01
0.01
0.01
0.01
0.01
0.01
0.01
0.01
0.01
0.01
0.01
0.01
0.01
0.01
0.01
0.01
0.01
0.01
0.01
0.01
0.04
0.01
0.01
0.04
0.01
0.01
0.01
0.04
0.01
0.04
0.04
0.01
0.00
0.00
0.01
0.00
0.16
0.08
0.09
0.04
0.04
0.04
0.15
0.01
0.07
0.12
0.12
0.13
0.25
0.00
0.32
0.21
0.54
0.54
0.53
0.53
0.45
0.08
0.12
0.08
0.10
0.07
0.05
0.01
0.01
0.01
0.01
0.01
0.01
0.01
0.01
0.01
0.01
0.01
0.01
0.01
0.01
0.01
0.01
0.05
0.07
0.08
0.07
0.04
0.05
0.05
0.05
0.01
0.01
0.01
0.01
0.01
0.01
0.00
0.01
0.00
0.01
0.01
0.01
0.01
0.01
0.01
0.00
0.01
0.00
0.01
0.01
0.01
0.00
0.00
0.01
0.01
0.00
0.01
0.01
0.01
0.01
0.01
0.01
0.00
0.00
0.01
0.00
0.01
0.00
0.04
0.01
0.12
0.06
0.24
0.11
0.07
0.06
0.01
0.01
0.05
0.01
0.01
0.01
0.01
0.05
0.01
0.18
0.54
0.45
0.61
0.62
0.54
0.50
0.28
0.01
0.01
0.00
0.01
0.01
0.01
0.06
0.01
0.04
0.04
0.07
0.07
0.11
0.11
0.11
0.14
0.13
0.16
0.14
0.14
0.16
0.16
0.14
0.13
0.11
0.12
0.09
0.07
0.01
0.00
0.01
0.00
0.00
0.00
0.00
0.00
0.00
0.00
0.00
0.00
0.00
0.00
0.00
0.00
0.01
0.04
0.01
0.01
0.01
0.04
0.04
0.04
0.04
0.04
0.04
0.04
0.04
0.04
0.04
0.04
0.04
0.00
0.01
0.01
0.01
0.01
0.01
0.01
0.08
0.09
0.07
0.13
0.14
0.21
0.09
0.07
0.01
0.01
0.01
0.00
0.01
0.01
0.01
0.01
0.04
0.13
0.23
0.65
0.53
0.66
0.54
0.57
0.43
0.01
0.01
0.01
0.01
0.01
0.00
0.00
0.01
0.01
0.04
0.04
0.04
0.07
0.06
0.07
0.08
0.09
0.09
0.09
0.08
0.09
0.07
0.06
0.04
0.04
0.00
0.01
0.00
0.01
0.01
0.00
0.00
0.01
0.01
0.01
0.04
0.01
0.06
0.01
0.04
0.04
0.04
0.01
0.04
0.04
0.01
0.01
0.04
0.04
0.04
0.04
0.01
0.01
0.01
0.04
0.01
0.00
0.01
0.01
0.00
0.01
0.01
0.01
0.00
0.01
0.00
0.01
0.01
0.00
0.04
0.04
0.04
0.07
0.13
0.13
0.07
0.04
0.01
0.05
0.04
0.01
0.01
0.01
0.01
0.01
0.05
0.08
0.12
0.69
0.56
0.61
0.54
0.56
0.47
0.05
0.05
0.04
0.05
0.01
0.01
0.01
0.01
0.01
0.00
0.00
0.01
0.00
0.00
0.00
0.00
0.00
0.00
0.01
0.01
0.01
0.01
0.01
0.10
0.10
0.10
0.12
0.13
0.08
0.12
0.04
0.01
0.01
0.01
0.01
0.00
0.01
0.00
0.01
0.01
0.01
0.01
0.01
0.01
0.01
0.01
0.01
0.01
0.00
0.01
0.01
0.01
0.01
0.01
0.00
0.00
0.00
0.01
0.01
0.01
0.01
0.01
0.01
0.01
0.01
0.01
0.01
0.04
0.00
0.04
0.01
0.04
0.01
0.12
0.07
0.01
0.01
0.08
0.08
0.05
0.05
0.04
0.10
0.07
0.10
0.07
0.04
0.48
0.08
0.54
0.53
0.54
0.50
0.35
0.07
0.07
0.05
0.04
0.01
0.04
0.01
0.01
0.01
0.01
0.01
0.01
0.01
0.01
0.01
0.01
0.01
0.01
0.01
0.01
0.01
0.01
0.04
0.04
0.07
0.04
0.07
0.04
0.01
0.01
0.01
0.01
0.01
0.01
0.00
0.01
0.00
0.01
0.01
0.04
0.00
0.01
0.01
0.01
0.01
0.06
0.01
0.01
0.04
0.04
0.01
0.01
0.01
0.00
0.01
0.01
0.00
0.00
0.00
0.01
0.00
0.01
0.00
0.01
0.00
0.01
0.01
0.07
0.07
0.11
0.09
0.25
0.13
0.09
0.04
0.01
0.00
0.01
0.01
0.01
0.01
0.01
0.01
0.04
0.21
0.50
0.04
0.57
0.61
0.55
0.50
0.30
0.01
0.00
0.00
0.00
0.01
0.01
0.01
0.07
0.08
0.08
0.09
0.09
0.08
0.12
0.13
0.11
0.13
0.13
0.13
0.13
0.13
0.13
0.11
0.08
0.09
0.08
0.07
0.07
0.06
0.01
0.04
0.04
0.04
0.06
0.04
0.06
0.04
0.07
0.06
0.06
0.07
0.07
0.04
0.04
0.04
0.07
0.04
0.07
0.04
0.04
0.07
0.06
0.07
0.04
0.04
0.01
0.06
0.04
0.04
0.04
0.04
0.04
0.01
0.01
0.07
0.01
0.04
0.01
0.08
0.09
0.09
0.13
0.14
0.24
0.09
0.07
0.01
0.01
0.01
0.01
0.01
0.01
0.01
0.01
0.01
0.12
0.18
0.65
0.54
0.65
0.53
0.57
0.44
0.01
0.01
0.01
0.00
0.01
0.01
0.01
0.01
0.04
0.04
0.06
0.04
0.07
0.06
0.07
0.11
0.09
0.09
0.11
0.12
0.08
0.11
0.06
0.07
0.04
0.01
0.01
0.01
0.01
0.00
0.00
0.00
0.01
0.04
0.01
0.04
0.04
0.01
0.01
0.01
0.01
0.06
0.01
0.01
0.01
0.04
0.01
0.04
0.01
0.04
0.04
0.06
0.04
0.04
0.01
0.04
0.04
0.04
0.01
0.04
0.01
0.00
0.00
0.01
0.04
0.01
0.00
0.01
0.00
0.01
0.07
0.04
0.09
0.09
0.23
0.09
0.04
0.01
0.05
0.05
0.01
0.01
0.01
0.04
0.01
0.07
0.08
0.07
0.51
0.25
0.54
0.60
0.55
0.51
0.23
0.01
0.05
0.01
0.01
0.01
0.00
0.01
0.00
0.00
0.00
0.00
0.00
0.01
0.00
0.00
0.01
0.00
0.00
0.01
0.01
0.01
0.01
0.05
0.05
0.12
0.12
0.20
0.13
0.10
0.12
0.07
0.05
0.01
0.01
0.01
0.01
0.01
0.01
0.01
0.01
0.00
0.01
0.00
0.01
0.01
0.01
0.01
0.00
0.00
0.01
0.01
0.01
0.00
0.01
0.01
0.00
0.01
0.01
0.01
0.00
0.01
0.01
0.01
0.01
0.01
0.01
0.01
0.01
0.01
0.00
0.04
0.01
0.04
0.01
0.13
0.08
0.00
0.00
0.12
0.08
0.12
0.07
0.08
0.12
0.08
0.10
0.13
0.01
0.48
0.01
0.54
0.54
0.54
0.51
0.37
0.08
0.08
0.10
0.08
0.05
0.01
0.01
0.01
0.01
0.01
0.01
0.01
0.01
0.01
0.01
0.05
0.04
0.05
0.07
0.08
0.05
0.13
0.15
0.10
0.13
0.15
0.19
0.12
0.13
0.08
0.08
0.04
0.01
0.01
0.01
0.01
0.01
0.01
0.01
0.01
0.01
0.01
0.01
0.01
0.01
0.01
0.01
0.01
0.01
0.01
0.01
0.01
0.01
0.01
0.01
0.04
0.01
0.01
0.01
0.01
0.04
0.04
0.01
0.01
0.01
0.01
0.01
0.01
0.00
0.04
0.01
0.18
0.11
0.04
0.00
0.07
0.05
0.07
0.01
0.07
0.10
0.07
0.12
0.07
0.04
0.48
0.30
0.54
0.54
0.53
0.53
0.30
0.10
0.08
0.04
0.01
0.01
0.01
0.00
0.01
0.00
0.01
0.01
0.00
0.00
0.00
0.00
0.00
0.01
0.01
0.00
0.01
0.00
0.00
0.01
0.00
0.01
0.01
0.01
0.01
0.01
0.01
0.01
0.01
0.01
0.01
0.01
0.00
0.00
0.01
0.00
0.01
0.00
0.01
0.01
0.01
0.00
0.00
0.01
0.01
0.00
0.01
0.00
0.01
0.00
0.00
0.00
0.00
0.00
0.00
0.00
0.00
0.01
0.00
0.00
0.00
0.00
0.01
0.00
0.04
0.04
0.04
0.11
0.16
0.18
0.09
0.06
0.01
0.01
0.01
0.01
0.01
0.04
0.01
0.04
0.07
0.12
0.26
0.57
0.54
0.66
0.54
0.57
0.45
0.07
0.01
0.01
0.01
0.00
0.00
0.01
0.01
0.04
0.04
0.04
0.07
0.08
0.09
0.09
0.12
0.13
0.13
0.14
0.14
0.14
0.14
0.13
0.12
0.09
0.08
0.04
0.04
0.01
0.00
0.00
0.01
0.01
0.01
0.01
0.04
0.01
0.04
0.04
0.01
0.00
0.04
0.01
0.04
0.04
0.01
0.04
0.04
0.01
0.06
0.04
0.06
0.04
0.01
0.04
0.04
0.04
0.04
0.01
0.00
0.00
0.04
0.01
0.01
0.01
0.00
0.00
0.01
0.04
0.08
0.06
0.09
0.07
0.24
0.08
0.06
0.01
0.04
0.04
0.01
0.01
0.01
0.04
0.01
0.04
0.01
0.12
0.64
0.45
0.59
0.59
0.54
0.46
0.07
0.01
0.01
0.00
0.00
0.04
0.04
0.04
0.04
0.04
0.07
0.07
0.07
0.07
0.07
0.08
0.08
0.09
0.13
0.12
0.09
0.08
0.07
0.04
0.01
0.00
0.01
0.01
0.01
0.04
0.01
0.01
0.01
0.01
0.01
0.00
0.01
0.01
0.01
0.01
0.01
0.01
0.00
0.01
0.01
0.04
0.04
0.01
0.00
0.01
0.04
0.04
0.01
0.01
0.00
0.04
0.01
0.00
0.01
0.01
0.00
0.00
0.01
0.00
0.01
0.01
0.00
0.01
0.01
0.06
0.01
0.06
0.04
0.21
0.08
0.01
0.01
0.07
0.05
0.07
0.01
0.04
0.05
0.07
0.13
0.13
0.09
0.50
0.23
0.53
0.53
0.53
0.51
0.31
0.10
0.07
0.05
0.01
0.01
0.01
0.01
0.01
0.01
0.01
0.01
0.01
0.01
0.00
0.01
0.01
0.01
0.01
0.05
0.07
0.07
0.12
0.12
0.13
0.19
0.13
0.15
0.12
0.10
0.12
0.07
0.04
0.04
0.01
0.01
0.01
0.01
0.01
0.01
0.01
0.01
0.01
0.01
0.01
0.01
0.01
0.01
0.01
0.05
0.01
0.01
0.01
0.01
0.01
0.01
0.05
0.05
0.01
0.01
0.05
0.04
0.04
0.01
0.01
0.08
0.01
0.01
0.04
0.00
0.01
0.01
0.00
0.12
0.04
0.01
0.01
0.10
0.10
0.08
0.08
0.12
0.12
0.08
0.12
0.12
0.04
0.48
0.37
0.54
0.54
0.54
0.51
0.28
0.05
0.05
0.05
0.01
0.01
0.01
0.01
0.00
0.00
0.01
0.01
0.01
0.00
0.01
0.01
0.04
0.04
0.04
0.01
0.04
0.01
0.06
0.04
0.01
0.01
0.00
0.00
0.01
0.00
0.01
0.01
0.01
0.01
0.01
0.01
0.01
0.01
0.00
0.01
0.01
0.01
0.00
0.01
0.00
0.01
0.01
0.01
0.01
0.01
0.00
0.00
0.00
0.01
0.01
0.01
0.00
0.01
0.01
0.01
0.00
0.00
0.00
0.00
0.00
0.00
0.00
0.00
0.01
0.07
0.01
0.09
0.08
0.24
0.07
0.06
0.01
0.01
0.04
0.04
0.01
0.01
0.05
0.05
0.04
0.01
0.14
0.57
0.48
0.62
0.62
0.54
0.48
0.12
0.01
0.01
0.00
0.01
0.04
0.04
0.04
0.06
0.04
0.06
0.08
0.11
0.11
0.12
0.13
0.13
0.14
0.16
0.18
0.16
0.16
0.14
0.13
0.12
0.09
0.09
0.04
0.01
0.01
0.00
0.01
0.01
0.00
0.00
0.01
0.00
0.01
0.01
0.01
0.00
0.01
0.04
0.01
0.04
0.06
0.01
0.04
0.04
0.04
0.04
0.04
0.06
0.01
0.04
0.04
0.04
0.04
0.04
0.01
0.04
0.01
0.01
0.04
0.01
0.00
0.01
0.01
0.01
0.01
0.00
0.04
0.09
0.01
0.09
0.07
0.23
0.08
0.04
0.00
0.01
0.01
0.01
0.01
0.01
0.01
0.01
0.01
0.04
0.13
0.69
0.55
0.62
0.53
0.54
0.45
0.05
0.01
0.01
0.00
0.00
0.01
0.00
0.04
0.01
0.04
0.04
0.04
0.04
0.04
0.04
0.08
0.08
0.09
0.07
0.07
0.07
0.04
0.04
0.01
0.00
0.01
0.01
0.01
0.01
0.01
0.01
0.01
0.01
0.00
0.00
0.00
0.00
0.01
0.00
0.01
0.01
0.01
0.00
0.01
0.01
0.01
0.01
0.01
0.01
0.04
0.01
0.01
0.01
0.01
0.00
0.00
0.00
0.01
0.01
0.01
0.01
0.01
0.01
0.01
0.01
0.01
0.01
0.01
0.01
0.04
0.01
0.04
0.04
0.16
0.07
0.01
0.01
0.07
0.08
0.05
0.01
0.01
0.04
0.10
0.07
0.10
0.06
0.37
0.30
0.54
0.55
0.54
0.50
0.42
0.07
0.10
0.08
0.07
0.01
0.00
0.01
0.01
0.01
0.01
0.01
0.01
0.01
0.01
0.01
0.01
0.01
0.01
0.05
0.04
0.05
0.10
0.12
0.10
0.15
0.08
0.15
0.12
0.10
0.04
0.04
0.01
0.01
0.01
0.04
0.01
0.01
0.01
0.01
0.01
0.01
0.01
0.01
0.01
0.00
0.01
0.01
0.00
0.01
0.00
0.01
0.00
0.01
0.01
0.01
0.01
0.01
0.01
0.01
0.01
0.01
0.01
0.01
0.01
0.01
0.04
0.01
0.01
0.01
0.01
0.00
0.01
0.01
0.13
0.07
0.04
0.01
0.12
0.07
0.01
0.01
0.04
0.07
0.07
0.08
0.08
0.08
0.48
0.08
0.53
0.54
0.53
0.51
0.33
0.05
0.04
0.05
0.01
0.01
0.00
0.00
0.00
0.01
0.01
0.00
0.04
0.04
0.04
0.07
0.06
0.06
0.09
0.08
0.07
0.07
0.04
0.07
0.01
0.04
0.04
0.04
0.01
0.01
0.00
0.00
0.00
0.01
0.00
0.00
0.01
0.01
0.04
0.04
0.04
0.01
0.01
0.04
0.04
0.04
0.01
0.04
0.04
0.07
0.06
0.06
0.06
0.01
0.04
0.01
0.06
0.04
0.04
0.01
0.00
0.01
0.01
0.00
0.01
0.00
0.00
0.01
0.00
0.00
0.00
0.07
0.01
0.09
0.06
0.23
0.08
0.06
0.01
0.07
0.01
0.01
0.01
0.01
0.04
0.01
0.01
0.00
0.18
0.59
0.48
0.62
0.61
0.54
0.48
0.07
0.01
0.00
0.01
0.01
0.01
0.04
0.04
0.06
0.06
0.08
0.09
0.09
0.09
0.13
0.12
0.13
0.16
0.14
0.16
0.14
0.18
0.13
0.12
0.12
0.08
0.08
0.04
0.01
0.00
0.00
0.00
0.00
0.01
0.00
0.00
0.01
0.01
0.01
0.01
0.00
0.01
0.01
0.01
0.01
0.04
0.01
0.01
0.01
0.01
0.04
0.04
0.01
0.01
0.01
0.00
0.00
0.01
0.01
0.00
0.00
0.00
0.00
0.00
0.00
0.00
0.00
0.00
0.01
0.01
0.08
0.04
0.08
0.09
0.18
0.11
0.06
0.04
0.04
0.04
0.04
0.01
0.01
0.01
0.04
0.05
0.05
0.12
0.35
0.26
0.54
0.65
0.54
0.53
0.37
0.04
0.05
0.01
0.01
0.01
0.00
0.00
0.01
0.00
0.01
0.04
0.04
0.01
0.04
0.04
0.06
0.06
0.04
0.06
0.04
0.04
0.00
0.00
0.01
0.01
0.01
0.01
0.07
0.04
0.04
0.01
0.01
0.01
0.01
0.01
0.01
0.00
0.00
0.00
0.00
0.01
0.00
0.01
0.04
0.01
0.01
0.01
0.00
0.00
0.01
0.01
0.01
0.00
0.01
0.00
0.01
0.01
0.00
0.01
0.00
0.00
0.00
0.01
0.01
0.00
0.01
0.01
0.01
0.04
0.00
0.04
0.08
0.12
0.06
0.01
0.01
0.12
0.10
0.13
0.13
0.13
0.19
0.19
0.25
0.19
0.00
0.49
0.45
0.54
0.54
0.53
0.52
0.33
0.20
0.15
0.12
0.12
0.08
0.05
0.04
0.01
0.04
0.01
0.04
0.01
0.01
0.01
0.01
0.01
0.01
0.04
0.01
0.05
0.05
0.08
0.13
0.13
0.12
0.12
0.13
0.12
0.07
0.08
0.04
0.01
0.01
0.01
0.01
0.01
0.01
0.01
0.01
0.01
0.01
0.01
0.01
0.01
0.00
0.00
0.01
0.01
0.01
0.00
0.01
0.01
0.01
0.00
0.01
0.00
0.01
0.00
0.01
0.01
0.01
0.01
0.00
0.00
0.01
0.00
0.01
0.01
0.04
0.04
0.06
0.06
0.23
0.09
0.07
0.01
0.01
0.01
0.05
0.01
0.01
0.04
0.04
0.05
0.08
0.07
0.44
0.01
0.55
0.55
0.53
0.51
0.40
0.01
0.01
0.01
0.01
0.00
0.00
0.00
0.01
0.01
0.04
0.01
0.06
0.04
0.08
0.07
0.07
0.11
0.08
0.08
0.08
0.09
0.09
0.08
0.07
0.07
0.04
0.04
0.04
0.01
0.04
0.01
0.01
0.01
0.01
0.04
0.01
0.01
0.01
0.04
0.01
0.04
0.01
0.07
0.04
0.04
0.06
0.06
0.04
0.07
0.06
0.06
0.04
0.07
0.06
0.04
0.04
0.01
0.01
0.04
0.01
0.01
0.04
0.01
0.04
0.04
0.04
0.04
0.04
0.12
0.08
0.14
0.12
0.25
0.13
0.13
0.07
0.01
0.01
0.01
0.00
0.01
0.01
0.01
0.01
0.01
0.14
0.49
0.08
0.58
0.65
0.54
0.51
0.28
0.01
0.01
0.01
0.01
0.04
0.04
0.04
0.06
0.07
0.11
0.08
0.09
0.11
0.13
0.13
0.13
0.14
0.13
0.16
0.16
0.14
0.14
0.14
0.12
0.09
0.07
0.06
0.04
0.04
0.01
0.01
0.01
0.01
0.04
0.04
0.04
0.04
0.04
0.01
0.01
0.01
0.04
0.04
0.01
0.04
0.01
0.01
0.04
0.04
0.01
0.04
0.01
0.04
0.04
0.04
0.04
0.01
0.01
0.01
0.01
0.04
0.01
0.04
0.01
0.01
0.01
0.01
0.01
0.04
0.00
0.06
0.09
0.04
0.11
0.12
0.24
0.07
0.07
0.01
0.01
0.01
0.01
0.01
0.01
0.01
0.01
0.01
0.01
0.12
0.69
0.54
0.61
0.53
0.53
0.46
0.08
0.01
0.01
0.01
0.00
0.00
0.00
0.01
0.01
0.06
0.06
0.06
0.07
0.08
0.11
0.09
0.12
0.11
0.11
0.09
0.09
0.08
0.07
0.04
0.01
0.00
0.01
0.00
0.00
0.01
0.00
0.00
0.00
0.01
0.06
0.06
0.04
0.04
0.04
0.01
0.07
0.04
0.04
0.06
0.01
0.06
0.06
0.04
0.01
0.04
0.07
0.04
0.04
0.01
0.04
0.00
0.01
0.01
0.01
0.00
0.01
0.00
0.01
0.00
0.01
0.01
0.01
0.00
0.00
0.00
0.01
0.07
0.01
0.07
0.04
0.23
0.09
0.04
0.07
0.01
0.04
0.04
0.01
0.01
0.01
0.04
0.07
0.07
0.07
0.49
0.01
0.54
0.55
0.53
0.50
0.33
0.05
0.04
0.01
0.01
0.01
0.01
0.01
0.01
0.01
0.01
0.01
0.01
0.01
0.00
0.00
0.01
0.01
0.01
0.01
0.05
0.05
0.08
0.12
0.20
0.10
0.13
0.13
0.12
0.07
0.08
0.05
0.01
0.01
0.01
0.01
0.01
0.01
0.01
0.01
0.01
0.01
0.01
0.01
0.01
0.00
0.01
0.01
0.01
0.01
0.01
0.01
0.01
0.00
0.01
0.01
0.01
0.01
0.01
0.01
0.01
0.01
0.01
0.01
0.01
0.01
0.01
0.01
0.01
0.00
0.00
0.04
0.07
0.13
0.01
0.01
0.04
0.08
0.08
0.07
0.10
0.08
0.10
0.08
0.20
0.01
0.24
0.50
0.54
0.58
0.54
0.53
0.46
0.05
0.10
0.04
0.04
0.01
0.01
0.01
0.00
0.00
0.00
0.00
0.01
0.01
0.01
0.01
0.04
0.01
0.01
0.01
0.01
0.01
0.01
0.01
0.00
0.00
0.00
0.01
0.00
0.00
0.01
0.01
0.01
0.01
0.00
0.01
0.01
0.01
0.00
0.00
0.01
0.00
0.00
0.01
0.00
0.01
0.01
0.00
0.00
0.00
0.00
0.00
0.00
0.00
0.00
0.00
0.01
0.00
0.01
0.00
0.00
0.00
0.00
0.00
0.00
0.00
0.01
0.01
0.08
0.08
0.07
0.09
0.24
0.14
0.09
0.07
0.01
0.01
0.01
0.01
0.01
0.01
0.01
0.01
0.10
0.11
0.27
0.57
0.55
0.66
0.53
0.53
0.42
0.01
0.01
0.01
0.00
0.01
0.00
0.04
0.01
0.01
0.04
0.06
0.07
0.07
0.11
0.11
0.12
0.13
0.13
0.14
0.14
0.13
0.14
0.13
0.11
0.12
0.08
0.06
0.04
0.04
0.01
0.01
0.01
0.01
0.00
0.01
0.01
0.01
0.04
0.01
0.01
0.01
0.04
0.04
0.04
0.04
0.01
0.04
0.04
0.04
0.04
0.04
0.04
0.04
0.04
0.04
0.01
0.01
0.04
0.00
0.01
0.01
0.01
0.01
0.00
0.00
0.00
0.00
0.01
0.04
0.08
0.04
0.08
0.08
0.24
0.09
0.06
0.01
0.04
0.01
0.01
0.01
0.01
0.01
0.04
0.01
0.01
0.11
0.59
0.41
0.58
0.60
0.54
0.48
0.15
0.01
0.01
0.01
0.01
0.01
0.01
0.01
0.01
0.01
0.01
0.06
0.04
0.04
0.06
0.06
0.04
0.06
0.07
0.08
0.04
0.06
0.01
0.00
0.00
0.01
0.01
0.01
0.01
0.01
0.01
0.01
0.01
0.01
0.00
0.00
0.00
0.01
0.00
0.01
0.00
0.00
0.01
0.00
0.01
0.01
0.00
0.01
0.00
0.01
0.00
0.01
0.01
0.00
0.01
0.01
0.00
0.01
0.01
0.00
0.00
0.00
0.00
0.01
0.01
0.00
0.00
0.00
0.00
0.01
0.07
0.00
0.11
0.07
0.21
0.07
0.01
0.01
0.08
0.10
0.04
0.01
0.05
0.12
0.07
0.07
0.01
0.12
0.66
0.57
0.55
0.57
0.56
0.48
0.12
0.08
0.08
0.01
0.01
0.01
0.01
0.01
0.01
0.01
0.01
0.01
0.01
0.01
0.01
0.01
0.01
0.01
0.01
0.07
0.05
0.08
0.12
0.10
0.13
0.15
0.13
0.15
0.08
0.05
0.04
0.01
0.01
0.01
0.01
0.01
0.01
0.01
0.01
0.01
0.01
0.01
0.01
0.01
0.00
0.01
0.01
0.00
0.00
0.00
0.00
0.01
0.01
0.00
0.01
0.00
0.01
0.01
0.01
0.01
0.01
0.01
0.01
0.04
0.01
0.01
0.01
0.01
0.01
0.04
0.01
0.01
0.00
0.16
0.06
0.01
0.01
0.10
0.10
0.07
0.07
0.08
0.10
0.13
0.19
0.01
0.06
0.53
0.46
0.55
0.53
0.54
0.51
0.27
0.13
0.07
0.04
0.01
0.01
0.01
0.01
0.01
0.00
0.01
0.01
0.01
0.00
0.01
0.01
0.01
0.01
0.04
0.01
0.04
0.00
0.01
0.04
0.00
0.00
0.00
0.01
0.01
0.01
0.01
0.01
0.00
0.01
0.01
0.00
0.00
0.01
0.00
0.00
0.00
0.00
0.00
0.00
0.01
0.00
0.01
0.01
0.01
0.00
0.00
0.01
0.01
0.01
0.01
0.01
0.01
0.01
0.01
0.01
0.01
0.01
0.01
0.01
0.01
0.01
0.01
0.01
0.00
0.06
0.01
0.07
0.07
0.23
0.11
0.07
0.04
0.04
0.04
0.01
0.01
0.01
0.01
0.01
0.07
0.04
0.13
0.50
0.25
0.58
0.62
0.54
0.49
0.25
0.01
0.01
0.01
0.01
0.00
0.01
0.01
0.01
0.04
0.04
0.04
0.04
0.07
0.07
0.07
0.09
0.09
0.09
0.12
0.11
0.12
0.11
0.11
0.06
0.07
0.04
0.06
0.00
0.00
0.01
0.00
0.00
0.01
0.01
0.01
0.04
0.01
0.00
0.01
0.01
0.01
0.01
0.04
0.01
0.04
0.01
0.01
0.01
0.04
0.01
0.04
0.01
0.01
0.01
0.01
0.01
0.00
0.00
0.01
0.00
0.01
0.01
0.01
0.00
0.01
0.00
0.01
0.01
0.01
0.01
0.04
0.07
0.06
0.09
0.13
0.16
0.06
0.04
0.01
0.05
0.04
0.01
0.01
0.04
0.04
0.04
0.04
0.08
0.12
0.65
0.54
0.65
0.54
0.57
0.45
0.04
0.04
0.01
0.01
0.01
0.01
0.00
0.01
0.04
0.00
0.01
0.01
0.01
0.01
0.04
0.04
0.01
0.04
0.01
0.00
0.01
0.00
0.01
0.01
0.01
0.05
0.10
0.08
0.05
0.07
0.04
0.04
0.01
0.01
0.01
0.01
0.01
0.00
0.01
0.01
0.01
0.01
0.01
0.01
0.01
0.01
0.01
0.01
0.01
0.01
0.01
0.01
0.01
0.04
0.01
0.01
0.04
0.04
0.05
0.05
0.04
0.05
0.10
0.08
0.08
0.08
0.10
0.08
0.05
0.01
0.01
0.01
0.01
0.11
0.01
0.01
0.01
0.08
0.12
0.12
0.05
0.13
0.01
0.01
0.07
0.35
0.58
0.64
0.81
0.33
0.49
0.54
0.51
0.40
0.15
0.19
0.19
0.12
0.15
0.13
0.15
0.12
0.15
0.19
0.15
0.19
0.23
0.19
0.28
0.31
0.31
0.37
0.41
0.44
0.45
0.44
0.45
0.42
0.41
0.37
0.28
0.19
0.12
0.05
0.01
0.01
0.00
0.01
0.01
0.00
0.00
0.01
0.01
0.01
0.01
0.01
0.01
0.01
0.01
0.01
0.01
0.01
0.01
0.00
0.01
0.01
0.00
0.01
0.01
0.00
0.00
0.01
0.01
0.01
0.01
0.01
0.01
0.01
0.00
0.00
0.00
0.00
0.04
0.08
0.01
0.12
0.16
0.23
0.11
0.07
0.01
0.01
0.01
0.01
0.01
0.01
0.01
0.01
0.07
0.07
0.24
0.64
0.55
0.59
0.55
0.56
0.49
0.05
0.01
0.01
0.01
0.00
0.04
0.01
0.04
0.06
0.06
0.09
0.08
0.08
0.09
0.11
0.13
0.13
0.13
0.14
0.14
0.13
0.12
0.14
0.13
0.13
0.12
0.11
0.07
0.07
0.04
0.06
0.00
0.00
0.04
0.00
0.01
0.01
0.01
0.01
0.01
0.01
0.04
0.01
0.01
0.01
0.01
0.04
0.04
0.04
0.04
0.04
0.04
0.01
0.04
0.04
0.04
0.04
0.04
0.01
0.01
0.04
0.00
0.01
0.04
0.01
0.04
0.04
0.06
0.04
0.08
0.08
0.11
0.13
0.25
0.23
0.12
0.09
0.00
0.01
0.01
0.00
0.01
0.01
0.01
0.01
0.01
0.13
0.25
0.59
0.54
0.66
0.54
0.54
0.42
0.01
0.01
0.01
0.00
0.01
0.01
0.04
0.04
0.06
0.06
0.08
0.11
0.11
0.12
0.11
0.13
0.14
0.13
0.13
0.14
0.13
0.13
0.13
0.11
0.08
0.06
0.04
0.00
0.01
0.00
0.00
0.01
0.01
0.01
0.01
0.01
0.00
0.00
0.01
0.01
0.01
0.01
0.00
0.01
0.00
0.01
0.01
0.00
0.01
0.00
0.00
0.00
0.00
0.00
0.00
0.00
0.00
0.01
0.01
0.00
0.00
0.00
0.01
0.00
0.01
0.00
0.00
0.01
0.00
0.00
0.00
0.00
0.07
0.04
0.08
0.07
0.21
0.09
0.08
0.01
0.01
0.01
0.01
0.01
0.01
0.01
0.01
0.01
0.01
0.09
0.62
0.45
0.57
0.55
0.55
0.48
0.10
0.01
0.01
0.01
0.01
0.00
0.00
0.04
0.04
0.01
0.01
0.04
0.04
0.04
0.08
0.04
0.04
0.06
0.04
0.01
0.04
0.01
0.00
0.00
0.01
0.01
0.01
0.01
0.01
0.05
0.04
0.01
0.01
0.01
0.00
0.00
0.01
0.00
0.00
0.00
0.00
0.00
0.00
0.00
0.00
0.00
0.01
0.01
0.00
0.00
0.00
0.00
0.00
0.01
0.01
0.01
0.01
0.01
0.00
0.00
0.01
0.01
0.01
0.00
0.01
0.01
0.01
0.01
0.01
0.01
0.00
0.06
0.01
0.06
0.04
0.14
0.11
0.04
0.01
0.04
0.04
0.10
0.01
0.04
0.05
0.05
0.08
0.23
0.04
0.18
0.50
0.56
0.55
0.56
0.53
0.45
0.08
0.10
0.07
0.04
0.05
0.01
0.01
0.04
0.01
0.01
0.01
0.04
0.01
0.01
0.01
0.01
0.05
0.04
0.05
0.04
0.07
0.12
0.12
0.19
0.15
0.20
0.19
0.15
0.12
0.12
0.07
0.05
0.01
0.01
0.01
0.01
0.01
0.01
0.01
0.01
0.01
0.04
0.01
0.01
0.01
0.01
0.01
0.01
0.01
0.01
0.01
0.01
0.05
0.07
0.01
0.04
0.04
0.01
0.05
0.01
0.04
0.01
0.07
0.04
0.01
0.04
0.04
0.05
0.01
0.01
0.01
0.01
0.01
0.12
0.04
0.01
0.01
0.12
0.13
0.10
0.07
0.12
0.15
0.12
0.15
0.20
0.00
0.44
0.10
0.53
0.55
0.53
0.52
0.37
0.13
0.05
0.08
0.07
0.01
0.05
0.01
0.01
0.01
0.01
0.01
0.01
0.01
0.00
0.00
0.01
0.01
0.01
0.00
0.01
0.00
0.01
0.01
0.01
0.01
0.01
0.01
0.01
0.01
0.01
0.01
0.01
0.01
0.00
0.01
0.00
0.01
0.00
0.01
0.00
0.00
0.00
0.00
0.00
0.01
0.01
0.04
0.01
0.01
0.00
0.01
0.00
0.01
0.00
0.00
0.00
0.01
0.00
0.01
0.00
0.00
0.00
0.00
0.01
0.00
0.00
0.01
0.04
0.04
0.07
0.11
0.24
0.16
0.13
0.07
0.01
0.01
0.01
0.00
0.01
0.01
0.05
0.01
0.07
0.13
0.32
0.49
0.55
0.65
0.53
0.54
0.44
0.01
0.01
0.01
0.00
0.00
0.01
0.06
0.04
0.06
0.06
0.07
0.08
0.09
0.11
0.13
0.13
0.14
0.16
0.16
0.14
0.16
0.18
0.16
0.13
0.12
0.11
0.09
0.07
0.07
0.06
0.06
0.04
0.01
0.04
0.06
0.04
0.04
0.01
0.01
0.01
0.04
0.04
0.04
0.01
0.04
0.01
0.04
0.04
0.01
0.01
0.04
0.04
0.01
0.01
0.01
0.01
0.01
0.00
0.01
0.04
0.01
0.00
0.00
0.01
0.01
0.00
0.01
0.00
0.01
0.01
0.07
0.04
0.12
0.08
0.23
0.06
0.04
0.01
0.04
0.04
0.01
0.01
0.04
0.04
0.04
0.05
0.01
0.11
0.68
0.56
0.62
0.55
0.54
0.46
0.07
0.01
0.01
0.01
0.00
0.01
0.01
0.01
0.04
0.06
0.06
0.04
0.07
0.07
0.07
0.11
0.09
0.12
0.09
0.08
0.09
0.08
0.07
0.04
0.04
0.01
0.01
0.01
0.01
0.01
0.01
0.01
0.01
0.01
0.00
0.01
0.01
0.01
0.01
0.00
0.00
0.00
0.01
0.00
0.00
0.01
0.00
0.01
0.01
0.01
0.01
0.04
0.01
0.01
0.04
0.01
0.01
0.01
0.00
0.01
0.00
0.01
0.00
0.01
0.00
0.01
0.00
0.00
0.00
0.00
0.01
0.04
0.07
0.01
0.08
0.12
0.16
0.06
0.04
0.01
0.08
0.05
0.04
0.01
0.01
0.05
0.04
0.07
0.04
0.07
0.67
0.57
0.61
0.54
0.54
0.47
0.07
0.04
0.05
0.01
0.01
0.01
0.00
0.01
0.00
0.00
0.00
0.01
0.01
0.01
0.01
0.01
0.01
0.00
0.00
0.01
0.00
0.01
0.01
0.07
0.10
0.12
0.08
0.12
0.10
0.08
0.07
0.05
0.01
0.01
0.01
0.01
0.01
0.01
0.01
0.00
0.01
0.01
0.01
0.01
0.01
0.01
0.00
0.01
0.01
0.00
0.00
0.01
0.00
0.01
0.01
0.00
0.00
0.00
0.01
0.01
0.01
0.01
0.01
0.01
0.01
0.01
0.01
0.01
0.01
0.00
0.01
0.01
0.04
0.06
0.13
0.06
0.01
0.01
0.08
0.05
0.07
0.07
0.05
0.07
0.08
0.12
0.00
0.13
0.63
0.56
0.53
0.57
0.53
0.48
0.07
0.12
0.07
0.04
0.01
0.01
0.01
0.01
0.01
0.01
0.01
0.01
0.01
0.01
0.01
0.01
0.01
0.01
0.01
0.01
0.05
0.05
0.05
0.08
0.10
0.10
0.05
0.08
0.08
0.05
0.05
0.05
0.01
0.01
0.04
0.01
0.01
0.01
0.01
0.01
0.01
0.01
0.01
0.01
0.01
0.01
0.01
0.01
0.01
0.01
0.01
0.01
0.00
0.01
0.01
0.01
0.01
0.01
0.01
0.01
0.01
0.01
0.01
0.01
0.01
0.01
0.01
0.01
0.00
0.01
0.07
0.14
0.08
0.04
0.00
0.05
0.04
0.07
0.04
0.07
0.10
0.07
0.07
0.15
0.09
0.35
0.37
0.55
0.61
0.53
0.53
0.44
0.01
0.05
0.01
0.01
0.01
0.00
0.00
0.01
0.04
0.04
0.04
0.07
0.08
0.08
0.09
0.13
0.13
0.12
0.13
0.12
0.12
0.13
0.11
0.09
0.11
0.06
0.04
0.04
0.04
0.01
0.04
0.01
0.04
0.04
0.04
0.01
0.04
0.01
0.01
0.04
0.01
0.04
0.04
0.04
0.01
0.04
0.04
0.06
0.04
0.04
0.04
0.04
0.04
0.04
0.01
0.01
0.01
0.04
0.01
0.01
0.01
0.01
0.00
0.00
0.00
0.01
0.00
0.00
0.01
0.00
0.01
0.01
0.04
0.07
0.06
0.09
0.14
0.16
0.07
0.04
0.01
0.04
0.04
0.01
0.01
0.01
0.01
0.01
0.04
0.13
0.32
0.53
0.54
0.66
0.53
0.55
0.40
0.01
0.01
0.00
0.00
0.01
0.01
0.01
0.04
0.04
0.06
0.07
0.08
0.11
0.11
0.11
0.12
0.11
0.13
0.14
0.13
0.13
0.13
0.11
0.09
0.07
0.08
0.04
0.01
0.01
0.00
0.00
0.00
0.00
0.01
0.01
0.01
0.04
0.04
0.04
0.04
0.04
0.01
0.04
0.06
0.07
0.07
0.04
0.06
0.04
0.04
0.04
0.07
0.01
0.07
0.07
0.12
0.11
0.05
0.46
0.35
0.66
0.74
0.79
0.86
0.87
0.90
0.86
0.79
0.23
0.26
0.08
0.01
0.00
0.01
0.06
0.08
0.07
0.19
0.33
0.35
0.37
0.37
0.41
0.45
0.46
0.47
0.49
0.51
0.53
0.53
0.51
0.51
0.47
0.45
0.41
0.33
0.23
0.08
0.01
0.00
0.00
0.01
0.01
0.01
0.00
0.01
0.00
0.06
0.01
0.04
0.01
0.04
0.04
0.01
0.01
0.01
0.00
0.01
0.00
0.00
0.04
0.01
0.00
0.01
0.01
0.00
0.00
0.00
0.00
0.00
0.00
0.00
0.01
0.00
0.01
0.01
0.00
0.01
0.01
0.01
0.01
0.01
0.00
0.00
0.00
0.01
0.01
0.01
0.00
0.01
0.00
0.01
0.00
0.01
0.01
0.01
0.01
0.00
0.01
0.01
0.01
0.00
0.01
0.01
0.00
0.01
0.06
0.04
0.18
0.13
0.07
0.04
0.01
0.01
0.01
0.01
0.01
0.01
0.05
0.10
0.15
0.04
0.51
0.01
0.57
0.56
0.54
0.51
0.31
0.07
0.08
0.08
0.08
0.01
0.01
0.01
0.01
0.01
0.01
0.01
0.00
0.01
0.01
0.01
0.01
0.01
0.04
0.01
0.08
0.08
0.10
0.08
0.10
0.08
0.08
0.07
0.10
0.08
0.13
0.13
0.13
0.10
0.08
0.05
0.07
0.01
0.04
0.01
0.01
0.01
0.01
0.01
0.01
0.01
0.01
0.01
0.01
0.01
0.01
0.01
0.05
0.30
0.45
0.51
0.44
0.16
0.81
0.93
0.99
0.99
0.96
0.94
0.86
0.86
0.95
0.93
0.90
0.81
0.46
0.12
0.37
0.42
0.48
0.53
0.53
0.54
0.56
0.57
0.56
0.54
0.54
0.55
0.61
0.64
0.69
0.76
0.79
0.83
0.83
0.83
0.83
0.79
0.71
0.63
0.54
0.57
0.52
0.46
0.39
0.30
0.25
0.15
0.13
0.13
0.10
0.08
0.05
0.07
0.07
0.07
0.01
0.05
0.01
0.05
0.05
0.07
0.01
0.01
0.01
0.01
0.01
0.01
0.01
0.01
0.01
0.01
0.01
0.01
0.01
0.01
0.01
0.01
0.01
0.01
0.01
0.01
0.01
0.01
0.01
0.00
0.01
0.07
0.12
0.35
0.62
0.64
0.69
0.69
0.78
0.81
0.81
0.81
0.81
0.84
0.86
0.81
0.56
0.01
0.01
0.20
0.01
0.12
0.25
0.33
0.42
0.46
0.46
0.48
0.51
0.53
0.53
0.55
0.56
0.57
0.56
0.54
0.54
0.54
0.56
0.57
0.57
0.54
0.53
0.48
0.45
0.37
0.28
0.13
0.04
0.01
0.01
0.01
0.01
0.01
0.01
0.01
0.01
0.01
0.01
0.00
0.00
0.00
0.00
0.01
0.01
0.00
0.00
0.01
0.01
0.01
0.00
0.01
0.01
0.01
0.01
0.01
0.01
0.04
0.01
0.01
0.04
0.05
0.07
0.10
0.07
0.08
0.10
0.12
0.08
0.07
0.08
0.08
0.07
0.04
0.04
0.07
0.04
0.04
0.04
0.01
0.01
0.01
0.01
0.01
0.01
0.01
0.01
0.01
0.01
0.04
0.08
0.06
0.24
0.11
0.13
0.06
0.01
0.01
0.01
0.01
0.01
0.01
0.01
0.04
0.07
0.09
0.60
0.37
0.54
0.54
0.54
0.49
0.15
0.04
0.01
0.01
0.01
0.01
0.00
0.00
0.01
0.04
0.06
0.04
0.06
0.07
0.06
0.09
0.13
0.11
0.11
0.13
0.09
0.14
0.13
0.13
0.13
0.11
0.11
0.08
0.07
0.04
0.00
0.00
0.01
0.01
0.01
0.00
0.00
0.00
0.00
0.01
0.01
0.01
0.01
0.01
0.01
0.00
0.01
0.01
0.01
0.01
0.04
0.01
0.04
0.01
0.01
0.01
0.01
0.01
0.00
0.01
0.01
0.00
0.01
0.06
0.04
0.07
0.11
0.24
0.12
0.13
0.04
0.01
0.01
0.01
0.01
0.01
0.01
0.01
0.04
0.12
0.08
0.37
0.25
0.53
0.61
0.54
0.50
0.35
0.01
0.04
0.01
0.01
0.01
0.00
0.00
0.00
0.00
0.00
0.00
0.01
0.01
0.01
0.01
0.01
0.01
0.01
0.00
0.01
0.01
0.01
0.01
0.07
0.07
0.12
0.10
0.12
0.08
0.07
0.05
0.07
0.01
0.01
0.01
0.01
0.00
0.01
0.01
0.01
0.01
0.01
0.01
0.01
0.01
0.01
0.00
0.01
0.00
0.01
0.00
0.01
0.00
0.01
0.01
0.01
0.00
0.00
0.01
0.08
0.23
0.33
0.51
0.69
0.62
0.70
0.71
0.78
0.86
0.82
0.84
0.82
0.84
0.81
0.62
0.04
0.37
0.37
0.41
0.41
0.42
0.44
0.44
0.46
0.46
0.48
0.49
0.51
0.52
0.53
0.54
0.56
0.57
0.57
0.56
0.57
0.57
0.57
0.56
0.53
0.51
0.48
0.46
0.39
0.31
0.25
0.13
0.10
0.01
0.01
0.01
0.01
0.05
0.01
0.01
0.05
0.01
0.01
0.01
0.01
0.01
0.01
0.01
0.01
0.01
0.01
0.01
0.01
0.01
0.04
0.01
0.01
0.01
0.07
0.01
0.04
0.05
0.04
0.04
0.01
0.04
0.07
0.04
0.01
0.01
0.05
0.04
0.07
0.04
0.01
0.05
0.01
0.01
0.00
0.00
0.06
0.07
0.13
0.08
0.04
0.01
0.01
0.05
0.10
0.07
0.07
0.08
0.07
0.10
0.00
0.13
0.65
0.53
0.54
0.54
0.54
0.51
0.10
0.10
0.04
0.05
0.01
0.01
0.00
0.00
0.01
0.04
0.04
0.04
0.01
0.07
0.08
0.09
0.11
0.11
0.12
0.13
0.09
0.13
0.13
0.13
0.14
0.13
0.13
0.12
0.07
0.01
0.00
0.01
0.01
0.01
0.01
0.01
0.01
0.00
0.01
0.00
0.01
0.00
0.01
0.00
0.01
0.01
0.01
0.00
0.00
0.01
0.00
0.01
0.00
0.00
0.01
0.01
0.00
0.01
0.00
0.00
0.01
0.04
0.01
0.11
0.11
0.24
0.11
0.08
0.01
0.01
0.01
0.01
0.01
0.01
0.05
0.07
0.07
0.01
0.08
0.63
0.52
0.63
0.58
0.53
0.49
0.13
0.05
0.05
0.01
0.01
0.01
0.00
0.00
0.00
0.01
0.00
0.04
0.04
0.04
0.06
0.07
0.07
0.07
0.08
0.08
0.08
0.07
0.07
0.04
0.01
0.00
0.01
0.01
0.01
0.01
0.01
0.01
0.01
0.01
0.00
0.01
0.01
0.01
0.01
0.01
0.00
0.01
0.01
0.01
0.00
0.00
0.00
0.00
0.00
0.01
0.00
0.01
0.00
0.00
0.00
0.01
0.00
0.04
0.07
0.23
0.27
0.49
0.70
0.69
0.78
0.78
0.81
0.86
0.84
0.84
0.86
0.90
0.84
0.65
0.28
0.19
0.40
0.37
0.37
0.40
0.45
0.45
0.46
0.45
0.46
0.48
0.51
0.50
0.53
0.54
0.56
0.57
0.57
0.56
0.57
0.57
0.56
0.54
0.53
0.50
0.45
0.42
0.33
0.20
0.10
0.07
0.01
0.01
0.01
0.01
0.01
0.01
0.04
0.04
0.01
0.01
0.04
0.01
0.05
0.04
0.04
0.01
0.04
0.01
0.01
0.01
0.01
0.01
0.01
0.01
0.01
0.01
0.01
0.01
0.01
0.01
0.01
0.04
0.01
0.01
0.04
0.04
0.04
0.05
0.05
0.08
0.05
0.05
0.04
0.04
0.08
0.05
0.04
0.05
0.05
0.05
0.04
0.01
0.01
0.01
0.01
0.04
0.01
0.14
0.04
0.01
0.01
0.10
0.10
0.12
0.07
0.10
0.13
0.10
0.12
0.08
0.08
0.63
0.44
0.54
0.54
0.53
0.51
0.30
0.13
0.13
0.08
0.05
0.08
0.01
0.01
0.01
0.01
0.01
0.01
0.00
0.00
0.00
0.01
0.00
0.01
0.01
0.01
0.01
0.01
0.01
0.01
0.05
0.01
0.01
0.01
0.04
0.04
0.12
0.05
0.05
0.04
0.01
0.05
0.01
0.04
0.01
0.01
0.01
0.01
0.01
0.01
0.01
0.01
0.01
0.01
0.01
0.01
0.01
0.00
0.01
0.01
0.01
0.01
0.00
0.01
0.00
0.01
0.01
0.01
0.01
0.06
0.01
0.23
0.09
0.04
0.01
0.01
0.01
0.07
0.05
0.01
0.07
0.08
0.10
0.07
0.01
0.46
0.37
0.54
0.53
0.56
0.53
0.33
0.13
0.08
0.07
0.01
0.01
0.01
0.01
0.01
0.00
0.00
0.00
0.01
0.04
0.01
0.01
0.04
0.04
0.01
0.04
0.01
0.00
0.01
0.00
0.01
0.01
0.01
0.01
0.01
0.01
0.01
0.01
0.00
0.00
0.00
0.00
0.00
0.01
0.01
0.01
0.00
0.01
0.01
0.04
0.01
0.04
0.04
0.01
0.04
0.04
0.04
0.04
0.01
0.04
0.04
0.04
0.06
0.01
0.00
0.00
