0.14
0.14
0.09
0.02
0.06
0.00
0.01
0.12
0.00
0.02
0.14
0.38
0.40
0.33
0.33
0.24
0.38
0.38
0.33
0.02
0.76
0.91
0.71
0.98
0.97
0.95
0.61
0.49
0.20
0.14
0.09
0.01
0.01
0.00
0.00
0.02
0.04
0.04
0.08
0.25
0.25
0.30
0.38
0.52
0.55
0.63
0.66
0.66
0.66
0.69
0.68
0.66
0.65
0.64
0.49
0.22
0.12
0.00
0.00
0.01
0.05
0.05
0.05
0.06
0.05
0.09
0.05
0.14
0.05
0.06
0.05
0.06
0.02
0.02
0.02
0.02
0.02
0.02
0.01
0.01
0.06
0.02
0.06
0.02
0.09
0.05
0.09
0.18
0.09
0.11
0.14
0.11
0.14
0.09
0.09
0.09
0.09
0.02
0.06
0.01
0.00
0.22
0.19
0.00
0.01
0.18
0.20
0.24
0.14
0.18
0.20
0.18
0.24
0.29
0.63
0.89
0.87
0.97
0.97
0.97
0.80
0.57
0.20
0.18
0.05
0.01
0.01
0.00
0.02
0.12
0.19
0.22
0.30
0.38
0.41
0.55
0.60
0.66
0.68
0.71
0.74
0.76
0.78
0.78
0.79
0.80
0.78
0.75
0.71
0.65
0.52
0.25
0.12
0.01
0.01
0.00
0.00
0.00
0.01
0.00
0.00
0.00
0.01
0.04
0.01
0.04
0.02
0.02
0.02
0.04
0.04
0.04
0.04
0.04
0.00
0.01
0.01
0.00
0.00
0.01
0.01
0.01
0.02
0.01
0.01
0.01
0.02
0.02
0.02
0.02
0.02
0.02
0.00
0.01
0.01
0.16
0.22
0.30
0.02
0.00
0.06
0.24
0.20
0.18
0.18
0.11
0.14
0.14
0.11
0.08
0.77
0.89
0.77
0.98
0.98
0.97
0.61
0.46
0.01
0.00
0.02
0.16
0.19
0.25
0.25
0.30
0.41
0.49
0.52
0.58
0.63
0.66
0.68
0.70
0.72
0.75
0.77
0.79
0.80
0.81
0.80
0.81
0.80
0.77
0.74
0.66
0.55
0.38
0.22
0.12
0.04
0.04
0.04
0.04
0.02
0.04
0.04
0.02
0.01
0.01
0.01
0.02
0.02
0.01
0.01
0.00
0.02
0.02
0.02
0.02
0.01
0.00
0.00
0.00
0.00
0.00
0.01
0.01
0.02
0.06
0.05
0.06
0.06
0.05
0.02
0.00
0.02
0.01
0.04
0.25
0.22
0.02
0.01
0.29
0.38
0.33
0.33
0.33
0.29
0.33
0.29
0.20
0.63
0.85
0.87
0.97
0.98
0.97
0.90
0.59
0.02
0.02
0.01
0.00
0.02
0.08
0.12
0.19
0.19
0.25
0.30
0.38
0.38
0.52
0.52
0.58
0.65
0.68
0.71
0.73
0.73
0.74
0.74
0.74
0.73
0.69
0.63
0.49
0.30
0.12
0.01
0.00
0.01
0.02
0.02
0.05
0.05
0.05
0.09
0.06
0.06
0.11
0.05
0.05
0.02
0.02
0.02
0.02
0.02
0.02
0.02
0.02
0.06
0.05
0.05
0.06
0.09
0.11
0.11
0.09
0.18
0.11
0.18
0.14
0.06
0.01
0.05
0.01
0.02
0.22
0.22
0.00
0.02
0.18
0.29
0.24
0.24
0.33
0.29
0.24
0.29
0.29
0.12
0.77
0.90
0.94
0.98
0.97
0.95
0.59
0.29
0.11
0.05
0.02
0.00
0.02
0.04
0.04
0.08
0.19
0.16
0.30
0.30
0.41
0.45
0.58
0.63
0.64
0.68
0.70
0.71
0.72
0.72
0.71
0.71
0.70
0.66
0.58
0.34
0.19
0.04
0.00
0.01
0.01
0.00
0.01
0.01
0.01
0.01
0.02
0.02
0.02
0.05
0.05
0.02
0.02
0.05
0.02
0.06
0.05
0.02
0.01
0.01
0.02
0.02
0.02
0.02
0.05
0.05
0.06
0.09
0.06
0.14
0.14
0.06
0.05
0.11
0.01
0.01
0.04
0.01
0.09
0.18
0.49
0.51
0.49
0.45
0.49
0.49
0.49
0.49
0.49
0.52
0.86
0.80
0.97
0.98
0.97
0.80
0.57
0.33
0.33
0.11
0.14
0.06
0.05
0.02
0.00
0.00
0.00
0.01
0.08
0.04
0.12
0.19
0.16
0.25
0.41
0.38
0.49
0.55
0.55
0.55
0.63
0.49
0.45
0.34
0.19
0.12
0.00
0.01
0.05
0.05
0.02
0.06
0.06
0.09
0.09
0.14
0.06
0.09
0.11
0.11
0.09
0.11
0.06
0.11
0.09
0.06
0.06
0.11
0.09
0.11
0.09
0.09
0.14
0.11
0.18
0.14
0.14
0.20
0.24
0.14
0.02
0.06
0.11
0.01
0.04
0.12
0.00
0.05
0.14
0.40
0.38
0.29
0.40
0.38
0.40
0.40
0.42
0.11
0.60
0.89
0.02
0.97
0.97
0.95
0.71
0.61
0.20
0.24
0.18
0.09
0.05
0.02
0.01
0.01
0.00
0.00
0.04
0.04
0.22
0.30
0.38
0.49
0.60
0.65
0.68
0.70
0.71
0.74
0.73
0.72
0.71
0.68
0.63
0.38
0.19
0.04
0.00
0.00
0.02
0.02
0.02
0.02
0.02
0.02
0.01
0.02
0.02
0.01
0.02
0.02
0.02
0.02
0.01
0.02
0.02
0.02
0.02
0.02
0.02
0.06
0.11
0.06
0.06
0.05
0.06
0.06
0.09
0.09
0.09
0.06
0.01
0.02
0.01
0.02
0.16
0.16
0.00
0.02
0.14
0.38
0.33
0.33
0.33
0.29
0.40
0.33
0.33
0.01
0.75
0.89
0.92
0.98
0.98
0.97
0.61
0.50
0.09
0.06
0.01
0.00
0.01
0.02
0.08
0.19
0.19
0.30
0.34
0.41
0.55
0.63
0.66
0.68
0.72
0.75
0.77
0.79
0.80
0.82
0.82
0.80
0.78
0.75
0.71
0.65
0.45
0.25
0.12
0.02
0.01
0.01
0.01
0.01
0.00
0.01
0.00
0.00
0.00
0.01
0.01
0.01
0.04
0.02
0.04
0.02
0.04
0.02
0.02
0.02
0.04
0.02
0.01
0.00
0.00
0.01
0.00
0.01
0.01
0.01
0.02
0.00
0.01
0.01
0.04
0.08
0.34
0.19
0.00
0.02
0.20
0.24
0.20
0.20
0.20
0.24
0.24
0.24
0.20
0.58
0.83
0.83
0.98
0.98
0.97
0.91
0.57
0.20
0.18
0.09
0.02
0.01
0.01
0.01
0.02
0.08
0.19
0.22
0.30
0.41
0.41
0.55
0.60
0.64
0.68
0.69
0.71
0.72
0.74
0.74
0.73
0.71
0.70
0.66
0.52
0.30
0.16
0.04
0.00
0.00
0.01
0.00
0.00
0.00
0.00
0.01
0.00
0.00
0.00
0.00
0.00
0.00
0.01
0.00
0.01
0.02
0.01
0.00
0.02
0.00
0.00
0.00
0.00
0.01
0.01
0.01
0.02
0.02
0.01
0.02
0.02
0.02
0.02
0.01
0.00
0.02
0.00
0.16
0.08
0.34
0.19
0.00
0.02
0.29
0.24
0.24
0.24
0.18
0.24
0.20
0.20
0.18
0.68
0.89
0.52
0.98
0.98
0.97
0.67
0.58
0.06
0.11
0.06
0.02
0.01
0.01
0.00
0.00
0.02
0.04
0.16
0.19
0.19
0.30
0.41
0.49
0.55
0.58
0.65
0.68
0.68
0.68
0.68
0.68
0.66
0.64
0.49
0.34
0.12
0.02
0.01
0.00
0.01
0.01
0.01
0.01
0.01
0.00
0.01
0.00
0.00
0.01
0.01
0.00
0.01
0.00
0.01
0.00
0.01
0.01
0.00
0.00
0.01
0.01
0.01
0.02
0.02
0.06
0.05
0.06
0.05
0.09
0.06
0.11
0.09
0.06
0.01
0.05
0.00
0.01
0.19
0.08
0.02
0.14
0.45
0.40
0.40
0.29
0.06
0.40
0.33
0.38
0.45
0.55
0.87
0.82
0.97
0.97
0.96
0.78
0.56
0.29
0.38
0.20
0.14
0.05
0.02
0.02
0.02
0.01
0.00
0.01
0.01
0.02
0.04
0.19
0.22
0.25
0.38
0.41
0.45
0.52
0.55
0.55
0.55
0.38
0.41
0.25
0.16
0.01
0.00
0.02
0.02
0.05
0.02
0.06
0.05
0.05
0.06
0.09
0.09
0.06
0.09
0.09
0.06
0.09
0.05
0.06
0.05
0.11
0.05
0.05
0.06
0.06
0.06
0.09
0.06
0.11
0.11
0.18
0.20
0.14
0.20
0.24
0.29
0.24
0.11
0.05
0.14
0.01
0.01
0.02
0.01
0.06
0.20
0.46
0.42
0.42
0.46
0.45
0.45
0.42
0.42
0.20
0.64
0.89
0.49
0.97
0.97
0.97
0.78
0.57
0.18
0.20
0.09
0.02
0.00
0.01
0.01
0.04
0.02
0.16
0.19
0.30
0.34
0.41
0.52
0.60
0.64
0.68
0.69
0.71
0.74
0.74
0.74
0.74
0.71
0.68
0.63
0.41
0.19
0.04
0.00
0.01
0.02
0.09
0.06
0.09
0.06
0.09
0.11
0.09
0.11
0.09
0.11
0.09
0.11
0.09
0.06
0.11
0.09
0.18
0.11
0.09
0.11
0.11
0.09
0.11
0.06
0.09
0.11
0.11
0.09
0.09
0.06
0.02
0.02
0.05
0.01
0.04
0.22
0.01
0.01
0.09
0.33
0.29
0.24
0.24
0.18
0.24
0.29
0.29
0.06
0.73
0.89
0.61
0.98
0.98
0.97
0.64
0.56
0.24
0.20
0.14
0.06
0.05
0.02
0.02
0.02
0.00
0.01
0.02
0.08
0.19
0.25
0.34
0.34
0.52
0.64
0.68
0.68
0.71
0.71
0.71
0.72
0.69
0.66
0.55
0.41
0.19
0.04
0.00
0.01
0.01
0.01
0.01
0.01
0.01
0.01
0.02
0.01
0.02
0.02
0.02
0.02
0.01
0.02
0.02
0.02
0.02
0.06
0.06
0.05
0.09
0.11
0.11
0.18
0.20
0.24
0.24
0.29
0.24
0.14
0.14
0.18
0.02
0.00
0.02
0.02
0.09
0.38
0.45
0.40
0.40
0.40
0.38
0.45
0.42
0.45
0.09
0.69
0.87
0.63
0.98
0.97
0.96
0.64
0.55
0.40
0.29
0.18
0.11
0.05
0.02
0.02
0.01
0.01
0.01
0.00
0.02
0.16
0.16
0.25
0.34
0.49
0.58
0.63
0.63
0.64
0.65
0.66
0.64
0.60
0.38
0.25
0.08
0.01
0.01
0.02
0.02
0.02
0.02
0.02
0.02
0.01
0.02
0.02
0.02
0.02
0.02
0.02
0.01
0.01
0.01
0.01
0.02
0.01
0.02
0.01
0.01
0.01
0.18
0.00
0.19
0.73
0.69
0.12
0.19
0.96
0.99
1.00
1.00
1.00
1.00
1.00
1.00
0.95
0.45
0.01
0.50
0.55
0.60
0.61
0.57
0.56
0.60
0.60
0.61
0.63
0.69
0.75
0.81
0.88
0.92
0.93
0.94
0.94
0.95
0.95
0.94
0.92
0.88
0.70
0.61
0.61
0.56
0.49
0.29
0.33
0.20
0.18
0.20
0.20
0.20
0.20
0.20
0.20
0.18
0.18
0.24
0.24
0.18
0.20
0.24
0.29
0.24
0.24
0.29
0.24
0.20
0.24
0.24
0.24
0.29
0.38
0.38
0.45
0.42
0.45
0.46
0.46
0.49
0.49
0.46
0.49
0.49
0.49
0.53
0.50
0.50
0.50
0.53
0.51
0.53
0.54
0.51
0.50
0.50
0.51
0.45
0.42
0.42
0.24
0.09
0.09
0.14
0.29
0.45
0.49
0.50
0.50
0.51
0.51
0.54
0.51
0.54
0.05
0.58
0.80
0.71
0.97
0.97
0.93
0.78
0.61
0.53
0.49
0.45
0.38
0.24
0.18
0.14
0.11
0.09
0.05
0.05
0.01
0.01
0.00
0.01
0.01
0.16
0.34
0.49
0.63
0.65
0.68
0.71
0.71
0.72
0.68
0.63
0.38
0.01
0.02
0.18
0.24
0.20
0.33
0.33
0.33
0.24
0.24
0.20
0.20
0.24
0.24
0.20
0.11
0.18
0.14
0.09
0.09
0.11
0.05
0.05
0.09
0.05
0.14
0.56
0.61
0.57
0.09
0.92
1.00
1.00
1.00
1.00
1.00
1.00
1.00
1.00
1.00
1.00
0.94
0.76
0.58
0.58
0.64
0.73
0.82
0.88
0.90
0.92
0.93
0.94
0.96
0.97
0.97
0.98
0.98
0.98
0.98
0.98
0.98
0.98
0.98
0.98
0.98
0.98
0.97
0.96
0.90
0.71
0.60
0.57
0.60
0.55
0.56
0.53
0.53
0.53
0.51
0.51
0.49
0.51
0.51
0.50
0.49
0.50
0.49
0.50
0.49
0.50
0.50
0.50
0.49
0.49
0.49
0.49
0.46
0.49
0.46
0.45
0.45
0.46
0.46
0.45
0.45
0.42
0.45
0.45
0.42
0.42
0.45
0.40
0.42
0.42
0.40
0.40
0.42
0.40
0.29
0.14
0.24
0.06
0.01
0.00
0.06
0.11
0.38
0.49
0.49
0.51
0.51
0.50
0.53
0.54
0.53
0.24
0.64
0.86
0.70
0.98
0.98
0.97
0.71
0.61
0.54
0.45
0.40
0.38
0.38
0.18
0.14
0.11
0.02
0.02
0.00
0.01
0.08
0.12
0.22
0.34
0.52
0.63
0.68
0.68
0.71
0.74
0.74
0.74
0.75
0.69
0.66
0.49
0.16
0.01
0.02
0.11
0.20
0.20
0.14
0.20
0.11
0.18
0.20
0.14
0.18
0.24
0.11
0.18
0.09
0.18
0.09
0.11
0.11
0.06
0.09
0.20
0.02
0.11
0.09
0.14
0.09
0.02
0.06
0.20
0.00
0.01
0.04
0.02
0.42
0.14
0.49
0.33
0.49
0.56
0.01
0.56
0.50
0.50
0.54
0.64
0.89
0.30
0.98
0.97
0.97
0.67
0.61
0.50
0.56
0.40
0.05
0.46
0.65
0.11
0.14
0.00
0.02
0.01
0.00
0.14
0.74
0.19
0.02
0.82
0.02
0.58
0.58
0.63
0.55
0.58
0.30
0.45
0.75
0.01
0.64
0.11
0.45
0.19
0.04
0.50
0.02
0.30
0.45
0.02
0.18
0.14
0.16
0.61
0.52
0.49
0.87
0.57
0.12
0.49
0.63
0.05
0.45
0.24
0.82
0.53
0.68
0.60
0.74
0.54
0.65
0.60
0.14
0.80
0.01
0.89
0.01
0.51
0.94
0.57
0.89
0.24
0.45
0.01
0.49
0.02
0.71
0.02
0.89
0.99
0.90
0.92
0.93
0.77
0.52
0.40
0.80
0.60
0.99
0.59
0.78
0.90
0.20
0.76
0.86
0.85
0.73
0.87
0.92
0.56
0.94
0.73
0.92
0.84
0.34
0.85
0.86
0.96
0.87
0.82
0.89
0.04
0.95
0.63
0.78
0.82
0.66
0.96
0.29
0.89
0.22
0.94
0.89
0.66
0.82
0.86
0.65
0.97
0.40
0.94
0.04
0.93
0.02
0.82
0.93
0.70
0.41
0.89
0.66
0.89
0.92
0.74
0.68
0.82
0.94
0.76
0.87
0.89
0.75
0.87
0.58
0.76
0.72
0.89
0.55
0.66
0.82
0.68
0.82
0.95
0.86
0.69
0.57
0.69
0.93
0.16
0.38
0.60
0.71
0.94
0.85
0.11
0.92
0.89
0.72
0.45
0.96
0.92
0.61
0.85
0.71
0.94
0.08
0.94
0.71
0.83
0.75
0.91
0.73
0.58
0.99
0.24
0.79
0.87
0.20
0.94
0.20
0.80
0.76
0.87
0.68
0.71
0.68
0.63
0.95
0.69
0.56
0.82
0.38
0.79
0.94
0.00
0.49
0.95
0.45
0.94
0.74
0.16
0.94
0.45
0.74
0.89
0.60
0.87
0.49
0.95
0.89
0.89
0.94
0.56
0.94
0.51
0.92
0.56
0.89
0.85
0.61
0.82
0.12
0.94
0.69
0.97
0.94
0.97
0.92
0.57
0.20
0.11
0.97
0.02
0.58
0.74
0.38
0.66
0.22
0.89
0.56
0.55
0.71
0.24
0.82
0.41
0.19
0.82
0.87
0.63
0.74
0.85
0.06
0.93
0.51
0.68
0.49
0.73
0.19
0.09
0.66
0.92
0.01
0.74
0.05
0.60
0.12
0.63
0.56
0.87
0.57
0.65
0.50
0.95
0.50
0.80
0.61
0.82
0.51
0.95
0.06
0.38
0.52
0.61
0.89
0.38
0.56
0.76
0.25
0.76
0.40
0.58
0.92
0.68
0.61
0.05
0.45
0.58
0.02
0.50
0.53
0.58
0.42
0.49
0.71
0.75
0.82
0.97
0.98
0.92
0.61
0.57
0.02
0.53
0.59
0.53
0.45
0.49
0.16
0.57
0.92
0.63
0.60
0.56
0.38
0.38
0.74
0.76
0.59
0.05
0.01
0.45
0.20
0.82
0.20
0.11
0.06
0.01
0.75
0.57
0.06
0.85
0.70
0.00
0.50
0.40
0.45
0.34
0.49
0.46
0.61
0.08
0.58
0.90
0.56
0.60
0.66
0.40
0.00
0.57
0.09
0.02
0.09
0.58
0.61
0.45
0.22
0.01
0.61
0.08
0.01
0.29
0.38
0.09
0.61
0.01
0.61
0.68
0.61
0.61
0.50
0.61
0.71
0.61
0.14
0.19
0.49
0.98
0.98
0.96
0.87
0.61
0.56
0.61
0.24
0.58
0.46
0.05
0.01
0.61
0.55
0.55
0.78
0.89
0.22
0.18
0.51
0.01
0.38
0.46
0.02
0.05
0.02
0.60
0.58
0.40
0.20
0.30
0.02
0.53
0.51
0.56
0.12
0.61
0.49
0.49
0.33
0.06
0.40
0.18
0.61
0.49
0.25
0.65
0.56
0.45
0.49
0.20
0.56
0.61
0.01
0.61
0.00
0.61
0.01
0.60
0.83
0.81
0.92
0.63
0.12
0.34
0.52
0.61
0.61
0.58
0.58
0.14
0.58
0.61
0.61
0.58
0.63
0.64
0.30
0.01
0.70
0.98
0.98
0.94
0.61
0.71
0.49
0.60
0.22
0.57
0.53
0.11
0.06
0.30
0.63
0.55
0.49
0.14
0.02
0.60
0.02
0.56
0.68
0.49
0.65
0.92
0.01
0.24
0.40
0.01
0.49
0.42
0.55
0.30
0.24
0.56
0.58
0.46
0.71
0.45
0.57
0.51
0.06
0.58
0.52
0.58
0.49
0.49
0.11
0.02
0.61
0.54
0.61
0.58
0.45
0.45
0.61
0.05
0.56
0.24
0.38
0.56
0.34
0.16
0.57
0.06
0.22
0.61
0.60
0.42
0.60
0.56
0.40
0.24
0.58
0.61
0.56
0.68
0.01
0.57
0.98
0.98
0.93
0.61
0.58
0.57
0.08
0.54
0.49
0.61
0.58
0.14
0.06
0.55
0.09
0.06
0.51
0.29
0.76
0.61
0.11
0.24
0.02
0.01
0.02
0.46
0.02
0.71
0.33
0.18
0.41
0.06
0.45
0.50
0.38
0.49
0.40
0.09
0.61
0.68
0.49
0.50
0.56
0.02
0.51
0.14
0.01
0.56
0.14
0.29
0.49
0.00
0.55
0.06
0.16
0.40
0.58
0.06
0.41
0.22
0.61
0.63
0.46
0.12
0.77
0.58
0.24
0.56
0.55
0.50
0.01
0.22
0.01
0.02
0.57
0.64
0.02
0.89
0.96
0.94
0.08
0.61
0.55
0.60
0.56
0.22
0.58
0.56
0.56
0.55
0.58
0.46
0.56
0.58
0.61
0.61
0.24
0.60
0.59
0.61
0.73
0.57
0.61
0.57
0.67
0.61
0.62
0.63
0.20
0.59
0.38
0.02
0.04
0.50
0.56
0.05
0.05
0.46
0.53
0.02
0.46
0.24
0.49
0.11
0.24
0.24
0.11
0.46
0.71
0.50
0.29
0.41
0.14
0.01
0.56
0.20
0.05
0.33
0.09
0.09
0.05
0.01
0.29
0.22
0.14
0.18
0.29
0.14
0.11
0.61
0.46
0.14
0.56
0.49
0.09
0.61
0.68
0.64
0.49
0.98
0.98
0.94
0.70
0.56
0.40
0.53
0.55
0.00
0.46
0.49
0.01
0.09
0.04
0.00
0.40
0.45
0.54
0.00
0.00
0.02
0.68
0.29
0.02
0.01
0.65
0.01
0.30
0.08
0.08
0.02
0.12
0.49
0.11
0.20
0.38
0.19
0.29
0.58
0.19
0.46
0.01
0.38
0.29
0.40
0.42
0.09
0.01
0.20
0.00
0.45
0.09
0.20
0.49
0.60
0.71
0.14
0.42
0.09
0.01
0.09
0.04
0.01
0.16
0.01
0.04
0.22
0.33
0.01
0.18
0.61
0.66
0.96
0.97
0.99
0.97
0.99
1.00
1.00
0.78
0.16
0.38
0.19
0.56
0.58
0.61
0.57
0.59
0.61
0.58
0.61
0.62
0.77
0.75
0.78
0.90
0.92
0.93
0.92
0.97
0.97
0.95
0.97
0.97
0.94
0.88
0.88
0.61
0.57
0.55
0.24
0.58
0.09
0.00
0.09
0.18
0.01
0.11
0.01
0.25
0.38
0.06
0.04
0.38
0.04
0.05
0.18
0.22
0.08
0.40
0.06
0.02
0.09
0.09
0.38
0.38
0.40
0.25
0.02
0.06
0.72
0.38
0.02
0.64
0.41
0.12
0.64
0.06
0.30
0.29
0.38
0.01
0.58
0.76
0.45
0.20
0.12
0.49
0.89
0.60
0.98
0.98
0.94
0.61
0.06
0.24
0.02
0.19
0.09
0.02
0.16
0.02
0.41
0.02
0.25
0.00
0.68
0.09
0.74
0.08
0.38
0.49
0.68
0.60
0.76
0.02
0.86
0.68
0.60
0.64
0.75
0.34
0.60
0.49
0.08
0.22
0.29
0.75
0.16
0.06
0.66
0.06
0.08
0.04
0.34
0.11
0.19
0.16
0.69
0.11
0.63
0.08
0.19
0.08
0.68
0.04
0.02
0.08
0.41
0.06
0.74
0.09
0.60
0.64
0.45
0.45
0.02
0.24
0.25
0.06
0.02
0.02
0.01
0.11
0.05
0.05
0.09
0.80
0.82
0.01
0.97
0.97
0.87
0.61
0.49
0.20
0.63
0.20
0.01
0.16
0.55
0.01
0.12
0.02
0.41
0.02
0.68
0.02
0.74
0.11
0.64
0.25
0.75
0.00
0.22
0.58
0.68
0.08
0.87
0.02
0.22
0.08
0.30
0.00
0.30
0.00
0.16
0.01
0.19
0.00
0.00
0.52
0.08
0.11
0.38
0.09
0.08
0.22
0.02
0.02
0.05
0.30
0.04
0.08
0.02
0.66
0.20
0.08
0.33
0.34
0.08
0.19
0.02
0.04
0.25
0.55
0.04
0.58
0.01
0.33
0.29
0.18
0.02
0.33
0.18
0.02
0.20
0.14
0.71
0.83
0.33
0.97
0.97
0.89
0.61
0.55
0.11
0.05
0.02
0.00
0.14
0.00
0.30
0.24
0.65
0.00
0.60
0.05
0.01
0.41
0.00
0.22
0.22
0.55
0.19
0.49
0.12
0.22
0.30
0.52
0.08
0.66
0.09
0.22
0.08
0.02
0.19
0.04
0.01
0.02
0.19
0.08
0.02
0.01
0.38
0.20
0.25
0.34
0.00
0.34
0.02
0.08
0.04
0.01
0.71
0.38
0.12
0.19
0.34
0.16
0.05
0.30
0.02
0.38
0.22
0.65
0.38
0.01
0.71
0.42
0.24
0.11
0.40
0.52
0.40
0.20
0.20
0.12
0.12
0.72
0.85
0.97
0.97
0.93
0.70
0.59
0.06
0.02
0.18
0.02
0.20
0.64
0.42
0.45
0.06
0.00
0.00
0.00
0.01
0.12
0.19
0.00
0.00
0.19
0.00
0.16
0.25
0.01
0.25
0.12
0.00
0.00
0.01
0.02
0.02
0.01
0.02
0.02
0.02
0.02
0.01
0.01
0.02
0.01
0.02
0.00
0.02
0.01
0.05
0.02
0.02
0.05
0.01
0.02
0.02
0.02
0.01
0.01
0.05
0.06
0.02
0.00
0.02
0.02
0.01
0.38
0.16
0.02
0.00
0.05
0.11
0.11
0.14
0.05
0.18
0.14
0.14
0.09
0.02
0.68
0.87
0.58
0.94
0.94
0.84
0.59
0.51
0.24
0.24
0.05
0.11
0.01
0.01
0.01
0.14
0.02
0.01
0.02
0.00
0.02
0.01
0.01
0.00
0.02
0.00
0.01
0.00
0.00
0.02
0.04
0.01
0.01
0.08
0.05
0.02
0.11
0.02
0.01
0.02
0.01
0.01
0.04
0.01
0.04
0.02
0.00
0.01
0.01
0.05
0.05
0.02
0.06
0.02
0.06
0.06
0.09
0.09
0.05
0.06
0.06
0.05
0.01
0.00
0.00
0.04
0.19
0.41
0.08
0.01
0.06
0.14
0.20
0.20
0.14
0.14
0.18
0.14
0.11
0.09
0.66
0.89
0.64
0.97
0.97
0.93
0.61
0.56
0.06
0.02
0.01
0.01
0.01
0.12
0.16
0.12
0.16
0.08
0.34
0.34
0.34
0.41
0.49
0.55
0.58
0.63
0.64
0.65
0.66
0.65
0.65
0.58
0.60
0.52
0.34
0.25
0.08
0.22
0.12
0.12
0.08
0.08
0.08
0.08
0.12
0.12
0.08
0.04
0.04
0.12
0.16
0.16
0.04
0.19
0.22
0.16
0.12
0.12
0.08
0.04
0.02
0.02
0.19
0.12
0.16
0.25
0.49
0.55
0.22
0.01
0.00
0.05
0.06
0.05
0.05
0.02
0.05
0.01
0.05
0.16
0.75
0.90
0.50
0.97
0.97
0.92
0.57
0.40
0.02
0.00
0.01
0.00
0.04
0.02
0.08
0.16
0.19
0.19
0.25
0.30
0.30
0.41
0.45
0.52
0.55
0.63
0.63
0.60
0.68
0.66
0.64
0.65
0.60
0.58
0.45
0.34
0.34
0.25
0.30
0.25
0.19
0.25
0.30
0.22
0.16
0.22
0.25
0.16
0.19
0.19
0.19
0.25
0.25
0.16
0.25
0.34
0.19
0.34
0.16
0.19
0.16
0.34
0.22
0.30
0.45
0.58
0.63
0.52
0.19
0.19
0.05
0.00
0.01
0.02
0.00
0.02
0.00
0.01
0.02
0.76
0.92
0.61
0.97
0.97
0.92
0.57
0.18
0.02
0.04
0.08
0.19
0.30
0.25
0.45
0.34
0.38
0.52
0.55
0.49
0.55
0.58
0.60
0.65
0.64
0.65
0.68
0.65
0.68
0.64
0.65
0.55
0.58
0.45
0.30
0.22
0.12
0.16
0.19
0.16
0.12
0.16
0.16
0.16
0.12
0.08
0.04
0.02
0.22
0.16
0.19
0.12
0.38
0.22
0.22
0.19
0.16
0.25
0.19
0.16
0.38
0.38
0.19
0.52
0.45
0.68
0.49
0.41
0.25
0.02
0.01
0.01
0.01
0.01
0.00
0.02
0.00
0.02
0.68
0.87
0.92
0.97
0.97
0.93
0.66
0.58
0.00
0.02
0.02
0.02
0.12
0.04
0.12
0.08
0.25
0.25
0.22
0.34
0.25
0.45
0.49
0.45
0.55
0.58
0.55
0.65
0.58
0.68
0.52
0.58
0.49
0.45
0.38
0.25
0.22
0.16
0.22
0.16
0.12
0.34
0.16
0.22
0.19
0.25
0.16
0.16
0.19
0.19
0.22
0.19
0.16
0.25
0.22
0.16
0.25
0.22
0.16
0.25
0.34
0.25
0.49
0.45
0.58
0.68
0.52
0.30
0.19
0.01
0.01
0.01
0.01
0.02
0.00
0.00
0.02
0.00
0.69
0.85
0.91
0.97
0.98
0.94
0.81
0.61
0.02
0.01
0.01
0.02
0.12
0.16
0.19
0.25
0.30
0.34
0.34
0.41
0.38
0.41
0.52
0.52
0.58
0.58
0.64
0.58
0.68
0.58
0.41
0.58
0.38
0.30
0.16
0.08
0.08
0.00
0.02
0.00
0.00
0.00
0.02
0.01
0.00
0.00
0.01
0.12
0.09
0.01
0.00
0.00
0.01
0.01
0.01
0.00
0.02
0.06
0.08
0.01
0.01
0.34
0.05
0.25
0.00
0.41
0.19
0.09
0.01
0.02
0.49
0.33
0.20
0.00
0.24
0.45
0.01
0.58
0.30
0.78
0.75
0.97
0.98
0.97
0.94
0.61
0.38
0.12
0.33
0.49
0.06
0.08
0.01
0.12
0.34
0.05
0.00
0.25
0.49
0.24
0.66
0.22
0.55
0.02
0.75
0.55
0.74
0.65
0.68
0.65
0.49
0.41
0.81
0.49
0.14
0.38
0.11
0.00
0.18
0.00
0.38
0.18
0.02
0.02
0.02
0.05
0.06
0.06
0.56
0.02
0.00
0.29
0.09
0.01
0.14
0.45
0.01
0.45
0.00
0.01
0.11
0.14
0.45
0.01
0.02
0.11
0.49
0.42
0.53
0.46
0.61
0.06
0.38
0.40
0.54
0.19
0.65
0.82
0.84
0.98
0.97
0.93
0.61
0.61
0.24
0.20
0.11
0.11
0.18
0.01
0.02
0.02
0.22
0.18
0.02
0.00
0.22
0.41
0.22
0.19
0.58
0.45
0.66
0.68
0.52
0.55
0.68
0.22
0.65
0.41
0.22
0.02
0.02
0.02
0.09
0.06
0.46
0.45
0.56
0.02
0.09
0.45
0.00
0.33
0.14
0.02
0.02
0.29
0.02
0.05
0.24
0.14
0.20
0.05
0.09
0.11
0.09
0.02
0.06
0.02
0.45
0.49
0.33
0.06
0.29
0.51
0.49
0.49
0.29
0.51
0.51
0.42
0.29
0.25
0.87
0.61
0.98
0.98
0.96
0.81
0.58
0.49
0.24
0.11
0.18
0.02
0.02
0.02
0.01
0.22
0.01
0.34
0.68
0.01
0.41
0.30
0.41
0.74
0.69
0.68
0.80
0.73
0.74
0.82
0.72
0.68
0.70
0.02
0.66
0.02
0.22
0.29
0.18
0.02
0.02
0.14
0.05
0.40
0.02
0.01
0.00
0.00
0.09
0.01
0.09
0.02
0.20
0.02
0.08
0.01
0.42
0.00
0.02
0.25
0.18
0.38
0.08
0.22
0.02
0.05
0.00
0.33
0.29
0.58
0.20
0.49
0.49
0.20
0.49
0.50
0.00
0.71
0.71
0.93
0.98
0.98
0.97
0.78
0.50
0.00
0.51
0.00
0.06
0.22
0.38
0.01
0.16
0.16
0.30
0.02
0.68
0.41
0.16
0.63
0.76
0.34
0.82
0.84
0.60
0.78
0.83
0.79
0.75
0.68
0.80
0.38
0.45
0.05
0.09
0.00
0.11
0.42
0.60
0.55
0.40
0.12
0.06
0.06
0.40
0.04
0.49
0.40
0.04
0.20
0.33
0.20
0.33
0.22
0.51
0.01
0.02
0.00
0.01
0.50
0.38
0.02
0.34
0.14
0.12
0.14
0.18
0.53
0.51
0.08
0.55
0.42
0.46
0.02
0.56
0.73
0.83
0.58
0.98
0.98
0.97
0.69
0.61
0.12
0.29
0.14
0.02
0.11
0.30
0.08
0.09
0.04
0.34
0.00
0.01
0.71
0.01
0.70
0.49
0.68
0.12
0.74
0.64
0.65
0.76
0.58
0.00
0.74
0.25
0.01
0.16
0.18
0.05
0.02
0.55
0.45
0.02
0.18
0.29
0.00
0.29
0.11
0.50
0.16
0.50
0.01
0.42
0.05
0.11
0.29
0.04
0.18
0.42
0.05
0.38
0.11
0.01
0.38
0.42
0.00
0.52
0.38
0.02
0.05
0.58
0.09
0.58
0.56
0.02
0.58
0.50
0.33
0.55
0.25
0.87
0.14
0.98
0.98
0.97
0.78
0.59
0.01
0.24
0.18
0.02
0.54
0.45
0.02
0.11
0.38
0.06
0.08
0.08
0.02
0.55
0.06
0.34
0.38
0.49
0.66
0.66
0.49
0.69
0.68
0.41
0.25
0.00
0.02
0.49
0.02
0.18
0.01
0.06
0.18
0.33
0.05
0.01
0.45
0.02
0.38
0.33
0.08
0.06
0.40
0.65
0.55
0.01
0.11
0.02
0.09
0.14
0.05
0.56
0.08
0.14
0.14
0.22
0.16
0.01
0.11
0.02
0.02
0.49
0.49
0.18
0.50
0.24
0.18
0.49
0.46
0.00
0.34
0.82
0.59
0.98
0.97
0.95
0.88
0.59
0.11
0.09
0.38
0.40
0.01
0.01
0.14
0.40
0.52
0.56
0.01
0.08
0.08
0.01
0.08
0.00
0.34
0.04
0.63
0.04
0.68
0.04
0.58
0.52
0.22
0.04
0.14
0.02
0.01
0.42
0.46
0.45
0.25
0.51
0.45
0.02
0.24
0.38
0.01
0.01
0.61
0.05
0.18
0.20
0.06
0.58
0.42
0.38
0.53
0.33
0.01
0.20
0.00
0.09
0.18
0.06
0.14
0.42
0.08
0.05
0.42
0.56
0.33
0.56
0.38
0.49
0.60
0.49
0.61
0.33
0.01
0.66
0.12
0.98
0.97
0.97
0.92
0.61
0.53
0.60
0.40
0.42
0.09
0.45
0.14
0.56
0.19
0.61
0.14
0.02
0.01
0.14
0.11
0.20
0.00
0.76
0.05
0.34
0.16
0.22
0.00
0.72
0.05
0.20
0.38
0.05
0.42
0.49
0.38
0.38
0.56
0.58
0.18
0.49
0.58
0.46
0.50
0.38
0.58
0.11
0.33
0.58
0.46
0.29
0.42
0.49
0.51
0.29
0.61
0.01
0.58
0.29
0.38
0.53
0.04
0.54
0.42
0.25
0.24
0.50
0.22
0.61
0.49
0.29
0.38
0.58
0.54
0.50
0.46
0.50
0.04
0.80
0.58
0.98
0.98
0.97
0.85
0.61
0.02
0.54
0.38
0.50
0.02
0.00
0.04
0.14
0.30
0.12
0.01
0.55
0.38
0.49
0.58
0.69
0.69
0.75
0.68
0.86
0.69
0.76
0.83
0.34
0.82
0.52
0.66
0.06
0.41
0.18
0.01
0.20
0.02
0.04
0.14
0.38
0.22
0.09
0.29
0.02
0.18
0.05
0.02
0.01
0.11
0.19
0.38
0.12
0.02
0.05
0.00
0.33
0.00
0.00
0.01
0.09
0.19
0.05
0.01
0.14
0.55
0.04
0.01
0.14
0.06
0.61
0.12
0.18
0.14
0.50
0.45
0.02
0.01
0.65
0.84
0.78
0.97
0.97
0.94
0.63
0.53
0.01
0.53
0.34
0.01
0.29
0.02
0.05
0.01
0.25
0.30
0.08
0.30
0.16
0.19
0.34
0.49
0.02
0.49
0.70
0.30
0.00
0.41
0.58
0.29
0.55
0.45
0.05
0.05
0.01
0.16
0.45
0.09
0.19
0.02
0.01
0.02
0.14
0.12
0.11
0.00
0.25
0.02
0.14
0.09
0.38
0.01
0.00
0.09
0.34
0.24
0.25
0.02
0.38
0.18
0.08
0.55
0.01
0.00
0.00
0.49
0.52
0.68
0.45
0.70
0.69
0.02
0.57
0.58
0.68
0.81
0.92
0.98
0.97
0.99
0.97
0.92
0.38
0.12
0.20
0.42
0.50
0.46
0.40
0.33
0.58
0.40
0.57
0.55
0.57
0.57
0.60
0.61
0.70
0.75
0.63
0.90
0.78
0.73
0.78
0.70
0.60
0.61
0.58
0.56
0.20
0.01
0.02
0.05
0.60
0.09
0.45
0.25
0.22
0.16
0.02
0.60
0.02
0.45
0.41
0.01
0.08
0.12
0.49
0.01
0.45
0.04
0.00
0.19
0.41
0.00
0.19
0.02
0.04
0.30
0.01
0.08
0.00
0.25
0.04
0.08
0.01
0.52
0.34
0.41
0.55
0.66
0.25
0.41
0.58
0.00
0.25
0.18
0.60
0.02
0.12
0.02
0.38
0.05
0.68
0.87
0.52
0.94
0.97
0.92
0.57
0.55
0.64
0.01
0.02
0.22
0.60
0.16
0.63
0.16
0.52
0.66
0.65
0.63
0.66
0.71
0.19
0.58
0.75
0.74
0.66
0.74
0.69
0.65
0.38
0.68
0.60
0.65
0.41
0.34
0.38
0.49
0.25
0.12
0.41
0.22
0.52
0.08
0.52
0.01
0.45
0.49
0.49
0.25
0.38
0.01
0.63
0.45
0.41
0.58
0.30
0.52
0.58
0.09
0.73
0.04
0.25
0.69
0.22
0.49
0.58
0.66
0.64
0.64
0.72
0.49
0.65
0.08
0.01
0.16
0.01
0.16
0.19
0.16
0.33
0.70
0.64
0.86
0.12
0.94
0.92
0.73
0.59
0.29
0.19
0.00
0.22
0.01
0.66
0.00
0.45
0.16
0.55
0.04
0.25
0.38
0.41
0.60
0.02
0.49
0.70
0.52
0.55
0.66
0.25
0.52
0.52
0.34
0.34
0.00
0.60
0.25
0.30
0.34
0.41
0.22
0.49
0.04
0.01
0.68
0.58
0.52
0.49
0.45
0.52
0.52
0.45
0.34
0.45
0.72
0.52
0.22
0.49
0.38
0.08
0.41
0.25
0.06
0.45
0.55
0.12
0.55
0.41
0.66
0.16
0.73
0.68
0.69
0.64
0.38
0.02
0.25
0.19
0.08
0.58
0.08
0.22
0.04
0.19
0.78
0.90
0.09
0.97
0.97
0.93
0.61
0.11
0.01
0.02
0.66
0.49
0.30
0.64
0.08
0.58
0.69
0.69
0.58
0.71
0.73
0.74
0.74
0.75
0.70
0.76
0.76
0.78
0.76
0.72
0.75
0.76
0.70
0.66
0.38
0.22
0.58
0.16
0.34
0.55
0.12
0.12
0.45
0.08
0.38
0.45
0.02
0.38
0.38
0.00
0.30
0.45
0.19
0.60
0.38
0.45
0.38
0.41
0.16
0.60
0.02
0.60
0.49
0.19
0.38
0.16
0.49
0.41
0.63
0.30
0.69
0.66
0.45
0.63
0.25
0.01
0.01
0.04
0.01
0.04
0.00
0.18
0.41
0.49
0.82
0.94
0.92
0.97
0.97
0.92
0.61
0.09
0.00
0.06
0.25
0.25
0.16
0.30
0.16
0.38
0.38
0.34
0.30
0.66
0.19
0.65
0.64
0.58
0.55
0.49
0.49
0.60
0.58
0.45
0.34
0.38
0.16
0.01
0.00
0.01
0.04
0.01
0.06
0.30
0.02
0.12
0.01
0.00
0.00
0.01
0.00
0.01
0.01
0.01
0.01
0.01
0.02
0.02
0.02
0.12
0.00
0.04
0.12
0.00
0.04
0.02
0.02
0.19
0.06
0.01
0.01
0.06
0.01
0.00
0.01
0.02
0.49
0.22
0.34
0.04
0.00
0.09
0.18
0.05
0.09
0.09
0.29
0.24
0.38
0.34
0.74
0.86
0.78
0.95
0.93
0.71
0.57
0.20
0.11
0.02
0.05
0.00
0.00
0.16
0.19
0.02
0.12
0.38
0.25
0.30
0.45
0.45
0.63
0.41
0.65
0.64
0.60
0.55
0.68
0.55
0.66
0.49
0.41
0.22
0.19
0.12
0.01
0.04
0.00
0.00
0.02
0.12
0.01
0.02
0.01
0.00
0.12
0.12
0.01
0.12
0.12
0.04
0.12
0.08
0.08
0.04
0.00
0.22
0.01
0.02
0.02
0.19
0.02
0.02
0.00
0.06
0.02
0.01
0.00
0.05
0.12
0.01
0.00
0.16
0.38
0.19
0.04
0.04
0.05
0.14
0.18
0.18
0.20
0.20
0.20
0.24
0.01
0.34
0.77
0.84
0.97
0.98
0.97
0.92
0.57
0.20
0.20
0.24
0.01
0.14
0.02
0.19
0.05
0.08
0.04
0.19
0.19
0.25
0.30
0.38
0.49
0.66
0.63
0.65
0.71
0.65
0.66
0.69
0.60
0.64
0.22
0.25
0.08
0.02
0.02
0.02
0.00
0.09
0.01
0.01
0.01
0.02
0.02
0.00
0.01
0.01
0.05
0.02
0.02
0.04
0.01
0.05
0.02
0.02
0.00
0.01
0.02
0.00
0.05
0.02
0.01
0.06
0.02
0.09
0.06
0.06
0.02
0.18
0.00
0.06
0.04
0.04
0.12
0.09
0.05
0.40
0.18
0.38
0.20
0.38
0.40
0.18
0.38
0.01
0.71
0.89
0.93
0.97
0.97
0.94
0.63
0.53
0.49
0.46
0.14
0.11
0.20
0.18
0.20
0.01
0.09
0.11
0.06
0.06
0.02
0.01
0.02
0.02
0.00
0.02
0.02
0.01
0.02
0.14
0.02
0.18
0.29
0.38
0.42
0.38
0.20
0.33
0.33
0.38
0.11
0.20
0.18
0.45
0.06
0.24
0.38
0.20
0.02
0.58
0.01
0.38
0.11
0.18
0.05
0.14
0.11
0.06
0.09
0.01
0.14
0.09
0.20
0.05
0.29
0.24
0.24
0.02
0.45
0.20
0.20
0.01
0.20
0.14
0.00
0.00
0.04
0.00
0.11
0.18
0.49
0.40
0.49
0.20
0.40
0.46
0.49
0.51
0.04
0.80
0.30
0.97
0.96
0.95
0.88
0.57
0.20
0.54
0.05
0.51
0.00
0.14
0.05
0.09
0.02
0.00
0.01
0.00
0.02
0.22
0.01
0.02
0.25
0.60
0.22
0.30
0.30
0.34
0.49
0.16
0.30
0.04
0.01
0.01
0.01
0.29
0.02
0.14
0.40
0.00
0.18
0.06
0.00
0.45
0.38
0.01
0.06
0.02
0.02
0.11
0.00
0.14
0.02
0.01
0.05
0.02
0.00
0.02
0.01
0.01
0.05
0.01
0.02
0.05
0.00
0.02
0.14
0.01
0.24
0.02
0.05
0.02
0.02
0.00
0.02
0.16
0.12
0.30
0.01
0.14
0.00
0.20
0.18
0.18
0.38
0.14
0.56
0.38
0.16
0.55
0.82
0.58
0.98
0.98
0.97
0.69
0.54
0.24
0.11
0.05
0.00
0.02
0.08
0.01
0.02
0.22
0.16
0.45
0.30
0.41
0.58
0.63
0.19
0.73
0.64
0.75
0.74
0.69
0.71
0.41
0.65
0.64
0.41
0.19
0.04
0.12
0.02
0.22
0.02
0.04
0.00
0.00
0.00
0.00
0.00
0.01
0.09
0.01
0.02
0.01
0.01
0.00
0.00
0.00
0.00
0.00
0.00
0.02
0.08
0.00
0.00
0.01
0.02
0.06
0.49
0.00
0.01
0.02
0.08
0.01
0.12
0.02
0.12
0.12
0.49
0.38
0.19
0.16
0.02
0.29
0.02
0.18
0.02
0.46
0.02
0.18
0.06
0.45
0.75
0.92
0.90
0.97
0.97
0.93
0.57
0.29
0.02
0.06
0.01
0.02
0.02
0.05
0.22
0.12
0.04
0.02
0.25
0.16
0.19
0.22
0.22
0.34
0.34
0.38
0.30
0.12
0.38
0.45
0.08
0.19
0.04
0.02
0.00
0.01
0.01
0.01
0.00
0.02
0.12
0.01
0.12
0.09
0.12
0.29
0.22
0.01
0.00
0.01
0.00
0.04
0.00
0.01
0.41
0.12
0.30
0.34
0.19
0.04
0.60
0.02
0.12
0.38
0.01
0.25
0.22
0.04
0.08
0.12
0.22
0.01
0.66
0.77
0.34
0.04
0.30
0.08
0.66
0.68
0.41
0.22
0.16
0.02
0.08
0.41
0.09
0.63
0.00
0.00
0.01
0.45
0.69
0.91
0.01
0.95
0.94
0.87
0.61
0.58
0.16
0.30
0.34
0.75
0.25
0.60
0.69
0.69
0.81
0.34
0.65
0.71
0.73
0.68
0.70
0.84
0.73
0.83
0.75
0.69
0.82
0.68
0.85
0.76
0.82
0.70
0.30
0.84
0.02
0.66
0.71
0.75
0.01
0.72
0.60
0.80
0.25
0.55
0.34
0.68
0.78
0.68
0.82
0.41
0.72
0.55
0.64
0.65
0.75
0.71
0.55
0.68
0.66
0.64
0.82
0.64
0.63
0.60
0.71
0.72
0.68
0.73
0.19
0.60
0.75
0.74
0.74
0.58
0.84
0.78
0.71
0.64
0.55
0.89
0.18
0.71
0.16
0.49
0.45
0.34
0.75
0.34
0.68
0.82
0.92
0.46
0.78
0.90
0.77
0.58
0.01
0.02
0.71
0.12
0.45
0.49
0.49
0.58
0.71
0.01
0.58
0.60
0.45
0.60
0.41
0.49
0.58
0.65
0.58
0.55
0.49
0.49
0.52
0.38
0.25
0.12
0.08
0.08
0.16
0.00
0.01
0.58
0.14
0.65
0.01
0.55
0.18
0.12
0.16
0.02
0.00
0.49
0.02
0.22
0.22
0.12
0.34
0.16
0.08
0.08
0.68
0.58
0.45
0.16
0.08
0.00
0.00
0.16
0.04
0.22
0.12
0.08
0.12
0.12
0.45
0.04
0.25
0.34
0.49
0.45
0.19
0.19
0.01
0.01
0.02
0.01
0.05
0.01
0.11
0.01
0.09
0.00
0.45
0.82
0.55
0.78
0.85
0.78
0.58
0.42
0.20
0.09
0.18
0.06
0.02
0.06
0.06
0.02
0.09
0.05
0.02
0.06
0.01
0.05
0.05
0.02
0.09
0.09
0.24
0.14
0.20
0.38
0.46
0.40
0.45
0.49
0.45
0.46
0.42
0.38
0.33
0.20
0.24
0.18
0.29
0.24
0.29
0.20
0.42
0.09
0.38
0.29
0.33
0.33
0.33
0.18
0.29
0.33
0.40
0.29
0.40
0.40
0.29
0.24
0.38
0.42
0.29
0.29
0.29
0.40
0.33
0.40
0.40
0.33
0.33
0.33
0.20
0.24
0.24
0.14
0.02
0.00
0.01
0.11
0.14
0.38
0.45
0.45
0.45
0.49
0.51
0.49
0.49
0.49
0.33
0.02
0.68
0.61
0.87
0.92
0.88
0.65
0.58
0.54
0.50
0.42
0.45
0.46
0.45
0.38
0.42
0.45
0.40
0.45
0.42
0.33
0.38
0.42
0.40
0.38
0.45
0.42
0.49
0.45
0.53
0.54
0.55
0.55
0.56
0.56
0.56
0.56
0.49
0.50
0.46
0.50
0.38
0.49
0.45
0.40
0.38
0.42
0.42
0.51
0.42
0.46
0.40
0.46
0.46
0.49
0.40
0.49
0.40
0.46
0.45
0.46
0.46
0.45
0.49
0.11
0.49
0.24
0.50
0.14
0.49
0.42
0.33
0.29
0.24
0.29
0.06
0.09
0.01
0.06
0.14
0.20
0.46
0.42
0.46
0.49
0.49
0.46
0.54
0.11
0.54
0.06
0.01
0.74
0.71
0.86
0.87
0.78
0.59
0.49
0.45
0.45
0.18
0.38
0.18
0.18
0.24
0.09
0.11
0.11
0.06
0.29
0.02
0.09
0.01
0.20
0.55
0.46
0.24
0.06
0.46
0.50
0.46
0.49
0.38
0.56
0.20
0.56
0.11
0.40
0.09
0.09
0.00
0.24
0.01
0.29
0.02
0.05
0.00
0.20
0.09
0.05
0.09
0.09
0.01
0.14
0.06
0.02
0.00
0.33
0.11
0.06
0.14
0.09
0.24
0.00
0.11
0.00
0.24
0.09
0.02
0.18
0.09
0.09
0.05
0.09
0.01
0.02
0.04
0.00
0.22
0.25
0.19
0.02
0.02
0.06
0.02
0.20
0.14
0.20
0.11
0.06
0.24
0.08
0.52
0.75
0.61
0.80
0.69
0.61
0.58
0.33
0.09
0.24
0.09
0.01
0.18
0.30
0.38
0.45
0.50
0.09
0.02
0.14
0.05
0.09
0.06
0.06
0.01
0.11
0.33
0.20
0.33
0.09
0.55
0.53
0.40
0.49
0.33
0.40
0.20
0.33
0.05
0.02
0.02
0.05
0.01
0.05
0.00
0.00
0.01
0.00
0.01
0.02
0.01
0.02
0.01
0.01
0.01
0.02
0.00
0.02
0.01
0.01
0.00
0.02
0.05
0.02
0.02
0.01
0.01
0.02
0.01
0.01
0.01
0.02
0.08
0.00
0.25
0.08
0.49
0.19
0.04
0.02
0.02
0.06
0.09
0.11
0.05
0.11
0.11
0.14
0.20
0.08
0.41
0.82
0.59
0.66
0.65
0.61
0.58
0.18
0.14
0.09
0.18
0.02
0.06
0.06
0.05
0.02
0.02
0.02
0.02
0.01
0.06
0.02
0.02
0.18
0.06
0.06
0.20
0.20
0.29
0.33
0.38
0.42
0.49
0.45
0.38
0.29
0.20
0.06
0.09
0.02
0.01
0.01
0.00
0.05
0.00
0.02
0.00
0.01
0.01
0.01
0.00
0.01
0.00
0.00
0.00
0.01
0.00
0.02
0.01
0.01
0.00
0.01
0.00
0.02
0.00
0.01
0.01
0.02
0.01
0.00
0.01
0.01
0.01
0.00
0.04
0.12
0.08
0.19
0.38
0.34
0.19
0.12
0.01
0.05
0.02
0.02
0.06
0.06
0.11
0.09
0.09
0.02
0.04
0.87
0.51
0.63
0.64
0.69
0.57
0.40
0.14
0.14
0.09
0.06
0.06
0.06
0.01
0.09
0.01
0.05
0.05
0.02
0.01
0.09
0.11
0.06
0.18
0.11
0.29
0.29
0.38
0.40
0.45
0.49
0.49
0.46
0.49
0.40
0.24
0.29
0.14
0.09
0.05
0.06
0.05
0.02
0.02
0.02
0.01
0.01
0.02
0.00
0.02
0.01
0.02
0.02
0.01
0.01
0.02
0.01
0.00
0.01
0.01
0.00
0.00
0.00
0.01
0.00
0.00
0.00
0.01
0.08
0.00
0.09
0.05
0.02
0.00
0.01
0.04
0.22
0.25
0.12
0.16
0.02
0.06
0.02
0.20
0.06
0.09
0.11
0.38
0.40
0.38
0.01
0.66
0.70
0.60
0.63
0.77
0.59
0.56
0.38
0.24
0.29
0.18
0.18
0.14
0.09
0.05
0.06
0.06
0.05
0.05
0.05
0.06
0.09
0.05
0.09
0.11
0.20
0.24
0.29
0.38
0.33
0.45
0.40
0.40
0.42
0.24
0.20
0.09
0.06
0.02
0.05
0.01
0.02
0.02
0.02
0.00
0.02
0.02
0.01
0.02
0.01
0.02
0.01
0.01
0.01
0.00
0.00
0.00
0.00
0.01
0.01
0.00
0.01
0.01
0.00
0.00
0.00
0.00
0.00
0.01
0.00
0.00
0.00
0.00
0.00
0.04
0.01
0.02
0.02
0.41
0.38
0.22
0.08
0.00
0.01
0.02
0.01
0.02
0.01
0.02
0.01
0.05
0.04
0.30
0.89
0.53
0.59
0.63
0.61
0.59
0.09
0.06
0.09
0.02
0.02
0.02
0.05
0.01
0.02
0.01
0.02
0.00
0.00
0.01
0.01
0.00
0.02
0.02
0.02
0.06
0.05
0.20
0.24
0.29
0.40
0.33
0.40
0.38
0.38
0.33
0.20
0.18
0.14
0.11
0.18
0.02
0.09
0.20
0.14
0.20
0.14
0.20
0.29
0.38
0.24
0.18
0.24
0.29
0.33
0.24
0.24
0.20
0.20
0.14
0.20
0.09
0.14
0.14
0.05
0.06
0.09
0.01
0.02
0.00
0.02
0.01
0.01
0.01
0.00
0.00
0.01
0.12
0.30
0.22
0.41
0.04
0.00
0.01
0.02
0.01
0.01
0.01
0.02
0.02
0.06
0.02
0.22
0.76
0.63
0.59
0.61
0.64
0.57
0.42
0.06
0.02
0.02
0.02
0.01
0.01
0.00
0.00
0.00
0.00
0.00
0.00
0.01
0.00
0.01
0.01
0.00
0.01
0.01
0.02
0.06
0.02
0.20
0.14
0.29
0.18
0.33
0.20
0.20
0.06
0.06
0.05
0.01
0.00
0.01
0.00
0.01
0.00
0.00
0.05
0.00
0.01
0.00
0.00
0.01
0.00
0.01
0.00
0.00
0.00
0.01
0.02
0.02
0.05
0.02
0.05
0.05
0.09
0.01
0.02
0.05
0.06
0.06
0.02
0.05
0.02
0.02
0.01
0.01
0.08
0.00
0.22
0.16
0.08
0.12
0.06
0.02
0.02
0.05
0.09
0.14
0.18
0.09
0.33
0.01
0.04
0.79
0.55
0.60
0.58
0.57
0.57
0.42
0.29
0.11
0.18
0.06
0.11
0.02
0.02
0.06
0.06
0.05
0.02
0.06
0.11
0.06
0.14
0.11
0.11
0.24
0.24
0.38
0.33
0.46
0.49
0.49
0.49
0.49
0.46
0.40
0.33
0.14
0.09
0.09
0.02
0.02
0.02
0.01
0.00
0.01
0.01
0.01
0.01
0.00
0.00
0.01
0.01
0.01
0.01
0.02
0.01
0.02
0.01
0.00
0.00
0.02
0.00
0.01
0.01
0.00
0.00
0.00
0.00
0.00
0.00
0.02
0.01
0.00
0.08
0.19
0.02
0.34
0.30
0.55
0.30
0.19
0.04
0.01
0.02
0.01
0.00
0.01
0.01
0.01
0.00
0.01
0.38
0.70
0.72
0.60
0.73
0.64
0.57
0.53
0.02
0.02
0.00
0.01
0.08
0.12
0.08
0.16
0.16
0.19
0.25
0.25
0.22
0.19
0.30
0.12
0.22
0.19
0.16
0.12
0.08
0.04
0.00
0.00
0.00
0.00
0.01
0.01
0.00
0.04
0.04
0.08
0.19
0.16
0.25
0.30
0.25
0.34
0.25
0.25
0.30
0.22
0.25
0.25
0.22
0.25
0.25
0.25
0.30
0.30
0.30
0.30
0.34
0.25
0.30
0.30
0.38
0.30
0.25
0.30
0.25
0.30
0.25
0.30
0.22
0.34
0.45
0.34
0.55
0.41
0.66
0.58
0.52
0.38
0.04
0.08
0.12
0.04
0.01
0.08
0.04
0.02
0.04
0.41
0.65
0.92
0.56
0.61
0.61
0.63
0.61
0.01
0.01
0.02
0.08
0.12
0.16
0.12
0.12
0.04
0.04
0.08
0.12
0.12
0.08
0.08
0.16
0.16
0.16
0.04
0.08
0.02
0.01
0.00
0.01
0.02
0.02
0.05
0.05
0.02
0.02
0.01
0.00
0.08
0.04
0.08
0.19
0.16
0.16
0.12
0.12
0.12
0.12
0.12
0.12
0.02
0.19
0.12
0.16
0.12
0.22
0.16
0.12
0.16
0.12
0.08
0.12
0.04
0.12
0.12
0.08
0.04
0.12
0.16
0.16
0.16
0.16
0.16
0.19
0.19
0.25
0.25
0.45
0.34
0.52
0.45
0.64
0.52
0.52
0.22
0.04
0.16
0.08
0.16
0.16
0.08
0.04
0.04
0.02
0.58
0.71
0.89
0.61
0.61
0.61
0.59
0.58
0.01
0.00
0.01
0.01
0.02
0.02
0.04
0.08
0.04
0.04
0.12
0.16
0.16
0.19
0.22
0.12
0.16
0.16
0.08
0.12
0.02
0.01
0.01
0.00
0.01
0.01
0.02
0.01
0.01
0.01
0.01
0.08
0.19
0.16
0.25
0.22
0.22
0.19
0.22
0.19
0.12
0.19
0.16
0.08
0.19
0.02
0.16
0.16
0.16
0.04
0.08
0.19
0.12
0.16
0.16
0.08
0.12
0.19
0.19
0.16
0.12
0.08
0.12
0.12
0.08
0.04
0.19
0.22
0.22
0.25
0.45
0.52
0.38
0.30
0.04
0.00
0.00
0.00
0.01
0.01
0.01
0.01
0.02
0.01
0.41
0.82
0.12
0.57
0.61
0.70
0.57
0.42
0.09
0.09
0.02
0.06
0.02
0.02
0.02
0.06
0.02
0.02
0.02
0.02
0.01
0.01
0.02
0.01
0.01
0.02
0.05
0.05
0.11
0.09
0.24
0.29
0.24
0.20
0.18
0.18
0.09
0.09
0.02
0.01
0.00
0.01
0.00
0.01
0.04
0.01
0.08
0.02
0.01
0.02
0.01
0.02
0.01
0.04
0.01
0.02
0.01
0.02
0.02
0.04
0.01
0.01
0.01
0.01
0.02
0.01
0.00
0.00
0.00
0.00
0.00
0.00
0.01
0.02
0.08
0.02
0.12
0.22
0.52
0.19
0.25
0.02
0.02
0.02
0.01
0.02
0.02
0.02
0.06
0.06
0.01
0.19
0.70
0.38
0.57
0.60
0.63
0.57
0.58
0.38
0.20
0.11
0.14
0.11
0.14
0.05
0.09
0.11
0.02
0.09
0.06
0.20
0.06
0.11
0.18
0.18
0.29
0.33
0.38
0.42
0.45
0.45
0.50
0.51
0.49
0.49
0.45
0.29
0.29
0.24
0.09
0.06
0.02
0.05
0.06
0.02
0.02
0.02
0.02
0.02
0.01
0.02
0.02
0.02
0.02
0.02
0.02
0.05
0.05
0.06
0.05
0.06
0.06
0.06
0.09
0.11
0.11
0.09
0.09
0.14
0.11
0.11
0.11
0.18
0.11
0.02
0.06
0.00
0.02
0.12
0.02
0.01
0.02
0.06
0.18
0.11
0.11
0.09
0.18
0.11
0.11
0.18
0.01
0.22
0.79
0.61
0.70
0.65
0.61
0.59
0.38
0.11
0.09
0.02
0.05
0.06
0.02
0.01
0.02
0.01
0.01
0.01
0.01
0.00
0.00
0.01
0.01
0.02
0.02
0.01
0.01
0.24
0.08
0.33
0.18
0.14
0.18
0.06
0.09
0.05
0.02
0.01
0.00
0.08
0.12
0.08
0.08
0.12
0.19
0.04
0.08
0.12
0.01
0.22
0.12
0.08
0.12
0.02
0.25
0.12
0.04
0.08
0.19
0.04
0.25
0.01
0.02
0.19
0.04
0.08
0.08
0.12
0.08
0.04
0.04
0.19
0.08
0.41
0.16
0.41
0.25
0.63
0.25
0.22
0.04
0.00
0.01
0.00
0.01
0.00
0.01
0.00
0.01
0.01
0.45
0.66
0.76
0.58
0.71
0.64
0.60
0.53
0.01
0.18
0.00
0.01
0.01
0.08
0.01
0.01
0.01
0.02
0.08
0.04
0.08
0.12
0.08
0.04
0.04
0.00
0.00
0.01
0.01
0.02
0.02
0.11
0.14
0.01
0.20
0.05
0.06
0.01
0.01
0.01
0.02
0.04
0.04
0.02
0.04
0.04
0.01
0.02
0.00
0.02
0.00
0.01
0.12
0.00
0.02
0.00
0.12
0.02
0.22
0.02
0.01
0.01
0.01
0.00
0.01
0.00
0.00
0.00
0.00
0.00
0.01
0.12
0.00
0.00
0.04
0.25
0.08
0.19
0.08
0.52
0.34
0.12
0.22
0.00
0.00
0.00
0.01
0.12
0.05
0.01
0.01
0.01
0.38
0.34
0.89
0.61
0.63
0.60
0.60
0.58
0.01
0.02
0.02
0.02
0.01
0.04
0.01
0.04
0.01
0.01
0.04
0.04
0.00
0.02
0.02
0.01
0.00
0.00
0.01
0.01
0.01
0.02
0.18
0.11
0.18
0.18
0.09
0.14
0.06
0.02
0.01
0.04
0.01
0.08
0.04
0.12
0.16
0.02
0.08
0.01
0.01
0.01
0.04
0.00
0.01
0.04
0.00
0.02
0.04
0.02
0.04
0.08
0.04
0.02
0.01
0.02
0.04
0.00
0.00
0.02
0.00
0.02
0.00
0.02
0.01
0.01
0.12
0.12
0.00
0.19
0.08
0.34
0.34
0.08
0.16
0.00
0.00
0.01
0.01
0.02
0.01
0.01
0.02
0.02
0.02
0.55
0.83
0.61
0.61
0.59
0.57
0.60
0.05
0.05
0.02
0.02
0.02
0.01
0.00
0.01
0.01
0.01
0.00
0.00
0.02
0.02
0.02
0.02
0.02
0.09
0.18
0.18
0.11
0.40
0.29
0.45
0.46
0.20
0.33
0.38
0.20
0.11
0.14
0.05
0.05
0.01
0.01
0.02
0.01
0.02
0.00
0.01
0.01
0.01
0.05
0.01
0.02
0.01
0.00
0.01
0.00
0.06
0.01
0.02
0.02
0.01
0.01
0.01
0.00
0.01
0.02
0.01
0.01
0.00
0.00
0.00
0.01
0.12
0.01
0.02
0.16
0.22
0.22
0.01
0.01
0.05
0.00
0.20
0.02
0.09
0.11
0.11
0.06
0.29
0.01
0.16
0.76
0.56
0.64
0.63
0.61
0.60
0.49
0.24
0.09
0.11
0.09
0.02
0.02
0.01
0.09
0.01
0.02
0.02
0.01
0.02
0.02
0.02
0.02
0.01
0.18
0.09
0.05
0.20
0.20
0.24
0.33
0.33
0.33
0.40
0.24
0.09
0.09
0.06
0.02
0.01
0.00
0.01
0.04
0.00
0.01
0.00
0.00
0.01
0.01
0.01
0.00
0.01
0.00
0.01
0.01
0.01
0.01
0.01
0.02
0.01
0.01
0.01
0.00
0.01
0.06
0.00
0.01
0.01
0.00
0.06
0.01
0.04
0.00
0.08
0.02
0.19
0.25
0.04
0.04
0.01
0.00
0.01
0.01
0.02
0.05
0.02
0.01
0.02
0.19
0.25
0.89
0.56
0.60
0.61
0.61
0.59
0.05
0.02
0.06
0.01
0.01
0.01
0.00
0.01
0.02
0.01
0.01
0.01
0.01
0.00
0.01
0.00
0.01
0.00
0.02
0.05
0.14
0.18
0.18
0.24
0.33
0.33
0.38
0.24
0.24
0.05
0.09
0.02
0.01
0.00
0.00
0.00
0.00
0.01
0.00
0.01
0.00
0.01
0.00
0.02
0.01
0.04
0.04
0.12
0.08
0.00
0.08
0.16
0.04
0.02
0.02
0.04
0.04
0.04
0.01
0.02
0.01
0.01
0.04
0.02
0.19
0.08
0.01
0.25
0.01
0.38
0.16
0.16
0.01
0.06
0.30
0.11
0.00
0.01
0.04
0.18
0.08
0.02
0.38
0.69
0.77
0.58
0.60
0.61
0.57
0.50
0.01
0.02
0.00
0.00
0.01
0.01
0.01
0.01
0.01
0.41
0.05
0.02
0.00
0.02
0.01
0.01
0.01
0.01
0.05
0.06
0.11
0.11
0.20
0.29
0.40
0.46
0.11
0.18
0.29
0.02
0.01
0.00
0.01
0.00
0.04
0.02
0.02
0.01
0.16
0.02
0.01
0.00
0.01
0.22
0.05
0.04
0.01
0.04
0.01
0.01
0.19
0.04
0.00
0.08
0.02
0.00
0.01
0.01
0.00
0.01
0.01
0.00
0.01
0.01
0.16
0.18
0.02
0.01
0.12
0.12
0.01
0.19
0.22
0.02
0.04
0.09
0.01
0.02
0.06
0.14
0.01
0.06
0.06
0.02
0.08
0.66
0.02
0.61
0.61
0.61
0.58
0.56
0.02
0.05
0.05
0.02
0.01
0.01
0.05
0.04
0.02
0.25
0.14
0.02
0.02
0.02
0.02
0.06
0.09
0.11
0.14
0.24
0.20
0.33
0.40
0.45
0.02
0.49
0.40
0.24
0.33
0.05
0.05
0.02
0.01
0.01
0.01
0.00
0.02
0.01
0.38
0.18
0.02
0.04
0.02
0.01
0.02
0.01
0.02
0.01
0.02
0.05
0.06
0.02
0.05
0.06
0.11
0.02
0.11
0.09
0.05
0.06
0.06
0.02
0.09
0.05
0.06
0.09
0.01
0.00
0.01
0.01
0.01
0.16
0.02
0.01
0.00
0.09
0.12
0.24
0.02
0.05
0.09
0.05
0.02
0.14
0.22
0.49
0.76
0.61
0.82
0.64
0.60
0.61
0.09
0.06
0.02
0.02
0.02
0.00
0.01
0.00
0.02
0.01
0.01
0.01
0.00
0.00
0.00
0.00
0.00
0.00
0.01
0.01
0.01
0.02
0.11
0.11
0.14
0.29
0.20
0.24
0.20
0.09
0.05
0.02
0.02
0.00
0.01
0.01
0.00
0.01
0.00
0.01
0.01
0.02
0.00
0.00
0.00
0.01
0.01
0.00
0.01
0.12
0.00
0.02
0.02
0.00
0.00
0.00
0.00
0.00
0.01
0.00
0.00
0.00
0.01
0.00
0.05
0.01
0.02
0.08
0.01
0.19
0.12
0.34
0.16
0.04
0.00
0.01
0.02
0.01
0.05
0.02
0.05
0.01
0.06
0.09
0.16
0.70
0.12
0.61
0.73
0.70
0.57
0.50
0.01
0.24
0.05
0.05
0.06
0.02
0.01
0.02
0.02
0.01
0.01
0.00
0.01
0.02
0.01
0.00
0.02
0.05
0.01
0.11
0.18
0.09
0.33
0.45
0.20
0.38
0.29
0.46
0.24
0.11
0.06
0.06
0.02
0.02
0.00
0.00
0.02
0.00
0.01
0.00
0.04
0.01
0.02
0.09
0.08
0.00
0.01
0.02
0.02
0.02
0.04
0.06
0.02
0.01
0.01
0.05
0.02
0.02
0.00
0.02
0.02
0.02
0.02
0.01
0.01
0.02
0.02
0.08
0.01
0.04
0.02
0.25
0.02
0.04
0.00
0.09
0.09
0.02
0.14
0.05
0.06
0.09
0.02
0.24
0.38
0.08
0.83
0.57
0.65
0.61
0.61
0.57
0.20
0.20
0.20
0.18
0.02
0.14
0.11
0.11
0.09
0.11
0.06
0.09
0.11
0.09
0.06
0.14
0.20
0.18
0.20
0.49
0.42
0.50
0.53
0.53
0.56
0.56
0.55
0.56
0.50
0.49
0.42
0.40
0.33
0.18
0.18
0.20
0.24
0.05
0.33
0.18
0.18
0.14
0.18
0.18
0.18
0.20
0.18
0.14
0.33
0.20
0.20
0.24
0.14
0.29
0.29
0.42
0.14
0.40
0.24
0.33
0.46
0.29
0.42
0.38
0.29
0.33
0.45
0.42
0.33
0.29
0.14
0.29
0.11
0.29
0.05
0.14
0.11
0.40
0.45
0.50
0.45
0.49
0.42
0.46
0.45
0.42
0.50
0.09
0.00
0.30
0.61
0.65
0.63
0.61
0.61
0.55
0.51
0.51
0.49
0.29
0.46
0.49
0.42
0.50
0.56
0.25
0.53
0.49
0.14
0.56
0.49
0.58
0.58
0.55
0.61
0.60
0.58
0.61
0.61
0.58
0.61
0.55
0.49
0.56
0.14
0.56
0.49
0.68
0.61
0.05
0.14
0.38
0.01
0.33
0.50
0.11
0.24
0.20
0.09
0.14
0.01
0.11
0.34
0.38
0.18
0.58
0.58
0.01
0.06
0.51
0.24
0.02
0.05
0.18
0.05
0.25
0.22
0.40
0.33
0.01
0.00
0.01
0.00
0.11
0.72
0.20
0.49
0.60
0.55
0.18
0.30
0.02
0.20
0.09
0.68
0.40
0.30
0.75
0.75
0.71
0.57
0.61
0.78
0.65
0.57
0.56
0.66
0.00
0.02
0.68
0.58
0.02
0.22
0.45
0.00
0.75
0.16
0.02
0.76
0.02
0.41
0.87
0.29
0.01
0.38
0.55
0.34
0.66
0.19
0.00
0.30
0.02
0.24
0.60
0.05
0.22
0.70
0.02
0.71
0.18
0.08
0.00
0.49
0.87
0.53
0.25
0.58
0.73
0.40
0.02
0.71
0.75
0.14
0.22
0.75
0.06
0.38
0.58
0.16
0.38
0.75
0.12
0.02
0.60
0.41
0.60
0.55
0.02
0.02
0.71
0.64
0.30
0.66
0.58
0.86
0.61
0.74
0.45
0.75
0.06
0.25
0.55
0.06
0.02
0.52
0.69
0.06
0.74
0.52
0.73
0.70
0.90
0.63
0.59
0.49
0.38
0.00
0.12
0.04
0.00
0.45
0.04
0.74
0.76
0.02
0.58
0.70
0.11
0.71
0.34
0.74
0.38
0.72
0.00
0.75
0.30
0.00
0.45
0.55
0.78
0.01
0.05
0.25
0.45
0.00
0.55
0.02
0.16
0.02
0.69
0.00
0.74
0.04
0.34
0.64
0.02
0.65
0.40
0.66
0.66
0.19
0.58
0.02
0.25
0.52
0.38
0.58
0.82
0.49
0.74
0.55
0.01
0.34
0.19
0.08
0.76
0.02
0.22
0.76
0.63
0.66
0.68
0.01
0.71
0.01
0.38
0.01
0.66
0.30
0.19
0.12
0.00
0.19
0.12
0.86
0.04
0.64
0.92
0.65
0.63
0.77
0.86
0.40
0.49
0.16
0.38
0.70
0.14
0.80
0.11
0.04
0.19
0.08
0.69
0.09
0.64
0.52
0.64
0.64
0.60
0.30
0.04
0.02
0.25
0.74
0.01
0.41
0.22
0.41
0.00
0.49
0.72
0.50
0.02
0.41
0.64
0.53
0.79
0.12
0.69
0.58
0.34
0.38
0.70
0.25
0.41
0.30
0.12
0.05
0.01
0.82
0.58
0.89
0.02
0.55
0.11
0.52
0.76
0.19
0.14
0.68
0.12
0.00
0.34
0.75
0.04
0.76
0.29
0.66
0.40
0.80
0.00
0.52
0.82
0.38
0.78
0.56
0.41
0.01
0.40
0.83
0.56
0.01
0.72
0.75
0.85
0.67
0.82
0.60
0.64
0.53
0.68
0.38
0.49
0.30
0.01
0.71
0.02
0.38
0.66
0.71
0.11
0.02
0.74
0.34
0.38
0.75
0.55
0.02
0.60
0.71
0.11
0.00
0.45
0.69
0.06
0.29
0.00
0.09
0.16
0.66
0.52
0.34
0.45
0.68
0.64
0.68
0.01
0.02
0.71
0.58
0.02
0.71
0.54
0.71
0.02
0.34
0.73
0.16
0.00
0.64
0.41
0.25
0.30
0.19
0.68
0.45
0.08
0.02
0.01
0.77
0.16
0.52
0.25
0.38
0.64
0.55
0.52
0.78
0.09
0.14
0.25
0.64
0.11
0.52
0.30
0.52
0.09
0.34
0.41
0.79
0.02
0.61
0.61
0.77
0.57
0.06
0.38
0.60
0.40
0.55
0.79
0.55
0.58
0.18
0.52
0.06
0.64
0.06
0.00
0.34
0.55
0.60
0.01
0.34
0.49
0.54
0.25
0.53
0.38
0.01
0.51
0.02
0.42
0.01
0.18
0.01
0.63
0.22
0.45
0.02
0.78
0.45
0.46
0.34
0.19
0.29
0.19
0.02
0.01
0.16
0.01
0.01
0.01
0.25
0.12
0.04
0.19
0.02
0.45
0.55
0.02
0.24
0.02
0.45
0.18
0.34
0.04
0.19
0.25
0.60
0.22
0.02
0.19
0.80
0.56
0.42
0.16
0.01
0.38
0.49
0.25
0.05
0.40
0.08
0.52
0.82
0.61
0.81
0.71
0.60
0.56
0.09
0.18
0.20
0.02
0.05
0.18
0.02
0.24
0.02
0.11
0.29
0.11
0.02
0.14
0.20
0.29
0.11
0.14
0.45
0.24
0.55
0.18
0.56
0.40
0.54
0.53
0.58
0.51
0.51
0.33
0.38
0.40
0.18
0.09
0.14
0.18
0.24
0.02
0.24
0.24
0.29
0.24
0.40
0.02
0.45
0.24
0.14
0.29
0.40
0.06
0.38
0.14
0.24
0.46
0.38
0.05
0.33
0.24
0.33
0.05
0.18
0.38
0.24
0.11
0.08
0.06
0.18
0.29
0.38
0.51
0.46
0.40
0.49
0.20
0.51
0.14
0.45
0.09
0.06
0.83
0.57
0.69
0.71
0.71
0.66
0.18
0.54
0.42
0.50
0.46
0.40
0.33
0.40
0.33
0.45
0.38
0.42
0.33
0.29
0.40
0.38
0.42
0.46
0.45
0.56
0.38
0.56
0.55
0.56
0.58
0.58
0.58
0.55
0.55
0.55
0.49
0.49
0.42
0.46
0.38
0.49
0.42
0.40
0.45
0.42
0.24
0.40
0.24
0.38
0.29
0.33
0.33
0.33
0.38
0.45
0.20
0.33
0.33
0.33
0.38
0.29
0.29
0.24
0.29
0.24
0.24
0.20
0.40
0.11
0.24
0.01
0.00
0.14
0.33
0.42
0.46
0.49
0.19
0.56
0.29
0.56
0.49
0.54
0.01
0.02
0.82
0.53
0.60
0.61
0.60
0.56
0.54
0.55
0.49
0.51
0.55
0.60
0.20
0.49
0.54
0.56
0.58
0.58
0.56
0.58
0.51
0.55
0.58
0.61
0.61
0.61
0.59
0.57
0.57
0.58
0.61
0.61
0.61
0.59
0.58
0.58
0.50
0.46
0.20
0.54
0.40
0.38
0.45
0.33
0.40
0.33
0.20
0.50
0.06
0.46
0.40
0.33
0.40
0.42
0.42
0.45
0.33
0.50
0.38
0.45
0.40
0.50
0.46
0.54
0.45
0.42
0.38
0.45
0.38
0.45
0.20
0.45
0.01
0.20
0.24
0.45
0.46
0.55
0.51
0.38
0.61
0.01
0.60
0.14
0.58
0.46
0.49
0.33
0.75
0.80
0.80
0.64
0.61
0.53
0.49
0.50
0.46
0.42
0.29
0.45
0.46
0.38
0.40
0.49
0.09
0.40
0.45
0.33
0.38
0.42
0.45
0.20
0.56
0.49
0.53
0.56
0.53
0.56
0.53
0.55
0.45
0.56
0.06
0.38
0.29
0.40
0.02
0.20
0.18
0.18
0.09
0.14
0.14
0.11
0.20
0.09
0.14
0.11
0.11
0.09
0.14
0.11
0.14
0.11
0.11
0.14
0.05
0.24
0.05
0.14
0.11
0.20
0.14
0.02
0.06
0.14
0.01
0.02
0.01
0.00
0.02
0.02
0.14
0.29
0.18
0.14
0.20
0.18
0.18
0.18
0.24
0.00
0.00
0.79
0.05
0.61
0.80
0.82
0.61
0.56
0.33
0.33
0.14
0.45
0.01
0.20
0.14
0.11
0.11
0.09
0.14
0.06
0.09
0.05
0.18
0.18
0.02
0.20
0.18
0.33
0.38
0.49
0.24
0.46
0.49
0.49
0.45
0.45
0.33
0.33
0.02
0.09
0.05
0.02
0.01
0.05
0.02
0.01
0.02
0.01
0.02
0.02
0.00
0.00
0.01
0.02
0.01
0.01
0.01
0.00
0.02
0.09
0.01
0.02
0.01
0.02
0.05
0.02
0.05
0.06
0.02
0.01
0.02
0.01
0.02
0.19
0.00
0.01
0.05
0.14
0.14
0.33
0.11
0.14
0.24
0.24
0.14
0.29
0.04
0.19
0.89
0.56
0.71
0.70
0.75
0.59
0.49
0.29
0.24
0.38
0.11
0.38
0.01
0.11
0.01
0.29
0.05
0.09
0.49
0.01
0.18
0.14
0.18
0.20
0.33
0.46
0.53
0.45
0.29
0.58
0.56
0.53
0.55
0.58
0.00
0.61
0.06
0.01
0.58
0.02
0.06
0.49
0.04
0.05
0.40
0.38
0.06
0.06
0.11
0.06
0.20
0.04
0.49
0.00
0.46
0.58
0.06
0.14
0.09
0.04
0.11
0.45
0.05
0.14
0.11
0.11
0.29
0.05
0.05
0.02
0.09
0.02
0.02
0.30
0.42
0.18
0.38
0.02
0.46
0.02
0.45
0.20
0.24
0.01
0.18
0.38
0.12
0.76
0.46
0.60
0.88
0.90
0.64
0.00
0.61
0.56
0.14
0.20
0.24
0.11
0.29
0.11
0.29
0.19
0.42
0.33
0.24
0.25
0.45
0.24
0.01
0.40
0.20
0.45
0.42
0.24
0.33
0.58
0.00
0.57
0.49
0.46
0.45
0.38
0.45
0.55
0.01
0.06
0.38
0.06
0.02
0.01
0.14
0.01
0.18
0.00
0.14
0.06
0.02
0.01
0.00
0.05
0.45
0.72
0.58
0.02
0.02
0.02
0.01
0.01
0.24
0.00
0.00
0.01
0.02
0.02
0.16
0.30
0.25
0.45
0.58
0.04
0.00
0.19
0.12
0.01
0.01
0.08
0.04
0.08
0.16
0.01
0.12
0.25
0.55
0.65
0.89
0.49
0.57
0.59
0.59
0.55
0.01
0.25
0.22
0.38
0.34
0.52
0.49
0.58
0.63
0.60
0.63
0.66
0.66
0.58
0.64
0.63
0.63
0.64
0.60
0.52
0.52
0.41
0.30
0.25
0.30
0.22
0.12
0.19
0.34
0.52
0.41
0.65
0.65
0.70
0.68
0.69
0.71
0.70
0.71
0.71
0.71
0.72
0.71
0.70
0.72
0.72
0.71
0.72
0.75
0.74
0.76
0.71
0.77
0.74
0.74
0.74
0.68
0.75
0.75
0.73
0.76
0.75
0.72
0.76
0.75
0.75
0.75
0.79
0.79
0.82
0.80
0.78
0.74
0.72
0.71
0.72
0.74
0.71
0.73
0.74
0.68
0.70
0.82
0.81
0.92
0.02
0.42
0.60
0.20
0.20
0.63
0.66
0.68
0.66
0.65
0.71
0.70
0.68
0.66
0.64
0.69
0.58
0.68
0.64
0.60
0.58
0.65
0.63
0.52
0.08
0.38
0.16
0.19
0.08
0.22
0.00
0.30
0.30
0.58
0.49
0.64
0.55
0.66
0.69
0.63
0.68
0.68
0.69
0.69
0.68
0.55
0.72
0.64
0.66
0.66
0.71
0.68
0.45
0.64
0.65
0.65
0.60
0.65
0.60
0.66
0.49
0.66
0.63
0.65
0.49
0.60
0.49
0.68
0.68
0.65
0.68
0.66
0.76
0.71
0.66
0.71
0.22
0.55
0.41
0.34
0.65
0.25
0.34
0.30
0.30
0.64
0.76
0.89
0.58
0.58
0.63
0.61
0.56
0.25
0.02
0.16
0.25
0.16
0.45
0.41
0.30
0.38
0.41
0.41
0.34
0.38
0.45
0.30
0.52
0.41
0.34
0.34
0.22
0.19
0.19
0.04
0.00
0.01
0.00
0.01
0.02
0.01
0.12
0.22
0.19
0.22
0.19
0.30
0.34
0.38
0.34
0.19
0.41
0.25
0.25
0.25
0.22
0.19
0.34
0.16
0.12
0.22
0.08
0.16
0.12
0.08
0.01
0.38
0.12
0.04
0.22
0.04
0.19
0.19
0.19
0.19
0.30
0.41
0.25
0.55
0.41
0.63
0.52
0.34
0.22
0.00
0.04
0.02
0.02
0.08
0.01
0.02
0.01
0.00
0.64
0.73
0.82
0.61
0.88
0.78
0.61
0.58
0.01
0.01
0.01
0.02
0.04
0.02
0.12
0.08
0.12
0.12
0.22
0.19
0.22
0.22
0.30
0.19
0.38
0.30
0.30
0.22
0.12
0.04
0.04
0.02
0.02
0.00
0.01
0.02
0.01
0.01
0.01
0.02
0.19
0.16
0.22
0.19
0.22
0.34
0.19
0.16
0.04
0.19
0.16
0.25
0.08
0.12
0.04
0.12
0.12
0.16
0.08
0.12
0.12
0.08
0.04
0.08
0.01
0.02
0.04
0.04
0.02
0.00
0.04
0.16
0.08
0.16
0.12
0.45
0.49
0.12
0.12
0.01
0.02
0.00
0.01
0.02
0.02
0.00
0.00
0.00
0.12
0.45
0.87
0.09
0.61
0.85
0.88
0.59
0.45
0.02
0.02
0.02
0.00
0.00
0.00
0.00
0.00
0.00
0.12
0.04
0.04
0.02
0.12
0.12
0.08
0.16
0.02
0.01
0.01
0.02
0.02
0.14
0.09
0.20
0.18
0.20
0.20
0.11
0.06
0.02
0.01
0.02
0.01
0.00
0.00
0.00
0.01
0.01
0.00
0.01
0.01
0.02
0.00
0.01
0.01
0.01
0.00
0.01
0.01
0.01
0.01
0.01
0.02
0.02
0.01
0.01
0.02
0.06
0.01
0.05
0.01
0.05
0.05
0.01
0.00
0.02
0.01
0.00
0.12
0.16
0.01
0.00
0.14
0.14
0.11
0.09
0.20
0.09
0.09
0.14
0.06
0.08
0.12
0.87
0.56
0.61
0.78
0.87
0.58
0.45
0.20
0.18
0.14
0.05
0.06
0.05
0.01
0.05
0.00
0.01
0.01
0.02
0.05
0.02
0.02
0.02
0.09
0.18
0.18
0.18
0.42
0.45
0.46
0.53
0.50
0.51
0.50
0.46
0.33
0.24
0.09
0.11
0.02
0.05
0.02
0.02
0.09
0.02
0.00
0.05
0.11
0.05
0.02
0.06
0.06
0.02
0.09
0.02
0.01
0.01
0.02
0.02
0.06
0.02
0.02
0.05
0.02
0.02
0.02
0.05
0.11
0.02
0.05
0.00
0.00
0.02
0.08
0.02
0.25
0.08
0.01
0.00
0.06
0.09
0.18
0.06
0.20
0.11
0.11
0.14
0.29
0.02
0.45
0.72
0.60
0.63
0.71
0.60
0.57
0.20
0.33
0.24
0.06
0.09
0.09
0.05
0.02
0.05
0.06
0.06
0.02
0.06
0.02
0.05
0.09
0.02
0.14
0.06
0.11
0.18
0.14
0.24
0.33
0.40
0.38
0.33
0.29
0.09
0.09
0.11
0.01
0.01
0.00
0.00
0.00
0.01
0.02
0.02
0.02
0.00
0.00
0.00
0.02
0.01
0.02
0.00
0.00
0.01
0.02
0.01
0.02
0.01
0.00
0.02
0.00
0.01
0.01
0.01
0.00
0.02
0.01
0.00
0.02
0.04
0.16
0.08
0.22
0.19
0.45
0.19
0.08
0.12
0.02
0.01
0.05
0.01
0.02
0.01
0.01
0.01
0.00
0.45
0.65
0.87
0.61
0.82
0.75
0.61
0.61
0.05
0.02
0.01
0.00
0.04
0.02
0.02
0.08
0.16
0.16
0.12
0.16
0.16
0.19
0.30
0.25
0.25
0.30
0.25
0.22
0.19
0.08
0.08
0.02
0.01
0.00
0.01
0.01
0.01
0.02
0.01
0.04
0.00
0.08
0.16
0.08
0.12
0.25
0.19
0.12
0.12
0.04
0.12
0.08
0.08
0.08
0.02
0.02
0.02
0.02
0.01
0.00
0.02
0.01
0.08
0.00
0.02
0.00
0.02
0.00
0.01
0.01
0.01
0.02
0.08
0.04
0.04
0.16
0.38
0.25
0.02
0.08
0.01
0.05
0.01
0.01
0.02
0.00
0.01
0.02
0.02
0.02
0.30
0.81
0.01
0.64
0.81
0.85
0.59
0.46
0.06
0.02
0.02
0.00
0.01
0.01
0.01
0.00
0.00
0.16
0.00
0.00
0.02
0.12
0.01
0.02
0.01
0.00
0.01
0.00
0.06
0.09
0.11
0.20
0.20
0.29
0.29
0.24
0.20
0.11
0.05
0.02
0.02
0.00
0.00
0.01
0.00
0.01
0.01
0.01
0.01
0.01
0.05
0.01
0.18
0.42
0.42
0.61
0.61
0.18
0.79
0.93
0.98
0.99
0.97
0.95
0.96
0.97
0.97
0.93
0.74
0.52
0.22
0.49
0.49
0.46
0.55
0.53
0.58
0.50
0.58
0.61
0.57
0.60
0.61
0.70
0.70
0.78
0.86
0.89
0.89
0.89
0.88
0.81
0.70
0.61
0.57
0.61
0.56
0.49
0.40
0.29
0.06
0.05
0.09
0.02
0.05
0.02
0.06
0.00
0.02
0.02
0.01
0.02
0.06
0.02
0.02
0.05
0.05
0.06
0.11
0.06
0.06
0.05
0.06
0.09
0.05
0.02
0.09
0.06
0.02
0.02
0.02
0.05
0.05
0.05
0.06
0.02
0.02
0.06
0.05
0.02
0.02
0.02
0.05
0.00
0.02
0.05
0.01
0.02
0.02
0.02
0.01
0.02
0.02
0.01
0.01
0.02
0.01
0.02
0.02
0.01
0.09
0.02
0.02
0.05
0.09
0.05
0.02
0.02
0.02
0.02
0.01
0.30
0.08
0.01
0.00
0.06
0.05
0.11
0.09
0.05
0.06
0.09
0.05
0.24
0.00
0.58
0.72
0.63
0.63
0.70
0.61
0.57
0.20
0.29
0.06
0.09
0.05
0.02
0.01
0.01
0.02
0.00
0.00
0.00
0.01
0.00
0.02
0.04
0.01
0.00
0.00
0.00
0.01
0.01
0.00
0.00
0.00
0.01
0.05
0.06
0.24
0.18
0.24
0.18
0.18
0.14
0.11
0.02
0.05
0.02
0.06
0.05
0.02
0.06
0.01
0.02
0.02
0.02
0.01
0.02
0.01
0.02
0.02
0.02
0.02
0.06
0.00
0.02
0.05
0.02
0.01
0.02
0.02
0.02
0.02
0.01
0.01
0.04
0.00
0.16
0.08
0.30
0.12
0.01
0.00
0.18
0.06
0.06
0.06
0.06
0.11
0.09
0.11
0.14
0.25
0.63
0.79
0.70
0.90
0.82
0.66
0.57
0.18
0.24
0.06
0.05
0.05
0.01
0.02
0.01
0.01
0.00
0.01
0.00
0.00
0.00
0.04
0.01
0.02
0.00
0.02
0.01
0.02
0.06
0.14
0.20
0.24
0.29
0.42
0.42
0.42
0.29
0.18
0.14
0.18
0.06
0.09
0.02
0.06
0.01
0.06
0.02
0.05
0.02
0.02
0.02
0.02
0.02
0.01
0.02
0.02
0.01
0.02
0.01
0.01
0.02
0.01
0.02
0.01
0.01
0.06
0.01
0.02
0.02
0.01
0.01
0.00
0.01
0.01
0.08
0.19
0.01
0.01
0.06
0.20
0.14
0.14
0.20
0.20
0.18
0.24
0.18
0.05
0.16
0.78
0.08
0.70
0.89
0.88
0.61
0.56
0.14
0.18
0.18
0.02
0.18
0.05
0.02
0.09
0.01
0.05
0.01
0.01
0.01
0.01
0.01
0.02
0.02
0.05
0.11
0.11
0.29
0.24
0.42
0.42
0.46
0.49
0.38
0.38
0.38
0.29
0.06
0.05
0.01
0.06
0.00
0.01
0.01
0.01
0.01
0.01
0.02
0.02
0.00
0.02
0.01
0.01
0.01
0.02
0.01
0.01
0.02
0.01
0.02
0.01
0.02
0.01
0.02
0.01
0.02
0.00
0.02
0.02
0.00
0.01
0.01
0.08
0.01
0.12
0.00
0.34
0.30
0.16
0.04
0.02
0.01
0.05
0.05
0.01
0.02
0.05
0.05
0.02
0.04
0.49
0.82
0.61
0.60
0.69
0.58
0.58
0.33
0.09
0.06
0.05
0.06
0.02
0.01
0.05
0.06
0.02
0.01
0.02
0.02
0.09
0.06
0.02
0.09
0.11
0.11
0.29
0.33
0.42
0.42
0.45
0.42
0.42
0.42
0.24
0.18
0.09
0.02
0.01
0.01
0.00
0.00
0.01
0.01
0.00
0.01
0.01
0.08
0.00
0.08
0.01
0.02
0.01
0.01
0.02
0.00
0.00
0.00
0.00
0.01
0.01
0.06
0.00
0.05
0.01
0.02
0.05
0.02
0.02
0.06
0.05
0.09
0.02
0.00
0.02
0.00
0.02
0.22
0.01
0.01
0.02
0.14
0.11
0.18
0.11
0.06
0.05
0.06
0.02
0.05
0.25
0.55
0.89
0.61
0.89
0.87
0.80
0.58
0.29
0.06
0.02
0.01
0.01
0.01
0.02
0.08
0.00
0.08
0.04
0.08
0.16
0.12
0.19
0.19
0.19
0.25
0.19
0.08
0.25
0.08
0.02
0.01
0.02
0.02
0.11
0.14
0.11
0.20
0.09
0.14
0.02
0.09
0.05
0.02
0.05
0.01
0.01
0.02
0.01
0.00
0.01
0.02
0.01
0.01
0.00
0.00
0.01
0.00
0.00
0.12
0.02
0.12
0.04
0.04
0.02
0.08
0.02
0.08
0.01
0.01
0.01
0.00
0.12
0.16
0.04
0.25
0.08
0.38
0.12
0.12
0.00
0.09
0.02
0.02
0.02
0.06
0.01
0.06
0.01
0.01
0.49
0.71
0.76
0.73
0.94
0.88
0.61
0.58
0.02
0.06
0.01
0.02
0.00
0.02
0.00
0.00
0.02
0.01
0.01
0.08
0.00
0.01
0.00
0.04
0.01
0.00
0.00
0.01
0.02
0.02
0.09
0.18
0.20
0.38
0.29
0.29
0.29
0.24
0.11
0.11
0.06
0.05
0.09
0.02
0.06
0.06
0.09
0.09
0.06
0.05
0.09
0.06
0.05
0.06
0.06
0.06
0.06
0.02
0.02
0.02
0.05
0.11
0.02
0.05
0.09
0.09
0.09
0.20
0.11
0.18
0.09
0.20
0.09
0.18
0.14
0.11
0.11
0.05
0.02
0.05
0.02
0.01
0.01
0.01
0.02
0.05
0.29
0.24
0.29
0.11
0.20
0.29
0.24
0.14
0.02
0.22
0.76
0.16
0.64
0.92
0.90
0.61
0.58
0.14
0.29
0.09
0.11
0.11
0.02
0.05
0.02
0.09
0.14
0.02
0.06
0.09
0.05
0.20
0.09
0.14
0.24
0.40
0.49
0.49
0.50
0.56
0.58
0.56
0.58
0.56
0.51
0.46
0.38
0.24
0.02
0.06
0.01
0.06
0.00
0.18
0.14
0.02
0.11
0.11
0.06
0.14
0.14
0.14
0.18
0.11
0.06
0.06
0.02
0.06
0.01
0.09
0.11
0.06
0.05
0.02
0.05
0.11
0.09
0.06
0.09
0.09
0.20
0.24
0.05
0.05
0.14
0.20
0.18
0.18
0.05
0.11
0.01
0.06
0.01
0.00
0.04
0.04
0.01
0.05
0.09
0.20
0.05
0.20
0.11
0.20
0.24
0.11
0.06
0.01
0.04
0.65
0.61
0.65
0.61
0.61
0.61
0.20
0.11
0.33
0.05
0.09
0.06
0.14
0.09
0.02
0.02
0.14
0.11
0.09
0.06
0.02
0.06
0.02
0.18
0.09
0.09
0.24
0.14
0.49
0.33
0.40
0.49
0.38
0.24
0.14
0.05
0.02
0.01
0.00
0.04
0.16
0.04
0.19
0.08
0.08
0.16
0.12
0.25
0.22
0.16
0.22
0.25
0.16
0.25
0.02
0.34
0.08
0.12
0.16
0.02
0.12
0.08
0.04
0.04
0.04
0.12
0.12
0.08
0.04
0.02
0.19
0.01
0.12
0.02
0.12
0.01
0.04
0.00
0.04
0.19
0.22
0.08
0.19
0.16
0.38
0.19
0.16
0.08
0.01
0.06
0.01
0.01
0.00
0.00
0.01
0.00
0.01
0.64
0.73
0.84
0.61
0.88
0.70
0.61
0.58
0.08
0.12
0.22
0.34
0.30
0.38
0.45
0.41
0.58
0.52
0.55
0.65
0.64
0.58
0.65
0.64
0.60
0.68
0.60
0.64
0.58
0.58
0.58
0.30
0.16
0.25
0.16
0.30
0.00
0.04
0.16
0.22
0.41
0.30
0.30
0.34
0.41
0.38
0.34
0.22
0.38
0.19
0.34
0.19
0.16
0.25
0.22
0.25
0.22
0.19
0.22
0.19
0.34
0.19
0.12
0.19
0.34
0.08
0.30
0.12
0.19
0.19
0.01
0.19
0.16
0.08
0.08
0.08
0.08
0.08
0.19
0.12
0.22
0.41
0.25
0.45
0.49
0.52
0.34
0.38
0.08
0.16
0.01
0.04
0.08
0.19
0.02
0.22
0.08
0.25
0.69
0.76
0.75
0.59
0.85
0.71
0.56
0.53
0.04
0.12
0.22
0.19
0.30
0.38
0.34
0.52
0.34
0.55
0.41
0.49
0.41
0.63
0.45
0.58
0.55
0.45
0.52
0.41
0.25
0.19
0.08
0.00
0.00
0.01
0.00
0.06
0.01
0.00
0.02
0.16
0.08
0.16
0.34
0.25
0.30
0.30
0.22
0.19
0.38
0.19
0.25
0.25
0.25
0.19
0.25
0.22
0.22
0.30
0.12
0.25
0.30
0.25
0.25
0.12
0.30
0.19
0.34
0.19
0.30
0.12
0.19
0.19
0.19
0.25
0.16
0.16
0.16
0.19
0.12
0.08
0.12
0.04
0.19
0.12
0.30
0.02
0.34
0.30
0.52
0.22
0.22
0.22
0.01
0.00
0.08
0.00
0.01
0.00
0.01
0.00
0.04
0.30
0.55
0.89
0.56
0.64
0.71
0.78
0.57
0.29
0.01
0.02
0.02
0.00
0.02
0.16
0.04
0.08
0.08
0.12
0.12
0.02
0.12
0.19
0.16
0.08
0.16
0.04
0.08
0.00
0.01
0.02
0.06
0.33
0.14
0.29
0.18
0.24
0.09
0.11
0.02
0.02
0.01
0.01
0.01
0.02
0.00
0.01
0.04
0.00
0.02
0.00
0.00
0.00
0.00
0.01
0.01
0.01
0.08
0.02
0.00
0.02
0.00
0.01
0.01
0.00
0.02
0.02
0.00
0.01
0.01
0.00
0.00
0.01
0.02
0.00
0.00
0.02
0.01
0.00
0.01
0.00
0.12
0.08
0.12
0.12
0.41
0.22
0.19
0.04
0.02
0.06
0.05
0.00
0.01
0.06
0.05
0.05
0.00
0.00
0.08
0.71
0.12
0.63
0.63
0.64
0.58
0.56
0.01
0.05
0.02
0.01
0.00
0.04
0.01
0.00
0.01
0.08
0.02
0.00
0.00
0.01
0.00
0.00
0.01
0.02
0.02
0.18
0.20
0.14
0.40
0.45
0.40
0.45
0.42
0.29
0.20
0.11
0.11
0.02
0.02
0.05
0.00
0.00
0.01
0.00
0.01
0.08
0.01
0.19
0.02
0.08
0.04
0.08
0.08
0.02
0.02
0.16
0.01
0.04
0.02
0.00
0.02
0.12
0.00
0.04
0.00
0.01
0.00
0.01
0.01
0.00
0.01
0.04
0.08
0.00
0.30
0.19
0.19
0.25
0.38
0.63
0.55
0.38
0.22
0.24
0.51
0.57
0.61
0.56
0.61
0.61
0.02
0.20
0.02
0.61
0.59
0.57
0.49
0.02
0.05
0.00
0.01
0.01
0.01
0.01
0.00
0.00
0.01
0.01
0.01
0.05
0.01
0.06
0.02
0.02
0.01
0.02
0.25
0.45
0.58
0.63
0.68
0.66
0.65
0.58
0.49
0.22
0.19
0.12
0.16
0.00
0.01
0.08
0.00
0.12
0.02
0.02
0.08
0.02
0.04
0.01
0.02
0.12
0.01
0.16
0.00
0.02
0.01
0.00
0.12
0.01
0.02
0.02
0.00
0.01
0.00
0.01
0.02
0.00
0.01
0.01
0.02
0.00
0.00
0.00
0.00
0.01
0.01
0.02
0.12
0.12
0.02
0.25
0.25
0.45
0.25
0.19
0.08
0.02
0.01
0.01
0.02
0.01
0.05
0.01
0.00
0.00
0.25
0.66
0.87
0.60
0.80
0.71
0.70
0.61
0.06
0.06
0.02
0.05
0.00
0.02
0.12
0.00
0.25
0.02
0.19
0.19
0.16
0.25
0.30
0.16
0.22
0.04
0.34
0.16
0.04
0.00
0.00
0.05
0.06
0.06
0.20
0.29
0.18
0.38
0.24
0.14
0.01
0.05
0.00
0.01
0.06
0.00
0.01
0.00
0.00
0.02
0.00
0.01
0.01
0.02
0.00
0.02
0.12
0.02
0.01
0.08
0.02
0.14
0.00
0.01
0.14
0.60
0.61
0.53
0.75
0.87
0.89
0.94
0.95
0.97
0.95
0.92
0.41
0.22
0.01
0.02
0.06
0.29
0.45
0.20
0.51
0.33
0.49
0.51
0.56
0.58
0.58
0.61
0.57
0.58
0.59
0.59
0.59
0.58
0.56
0.57
0.58
0.56
0.49
0.38
0.14
0.06
0.06
0.05
0.02
0.02
0.14
0.06
0.14
0.09
0.06
0.05
0.14
0.11
0.06
0.05
0.18
0.11
0.14
0.11
0.09
0.18
0.14
0.20
0.24
0.18
0.18
0.40
0.09
0.18
0.33
0.24
0.24
0.29
0.20
0.20
0.29
0.20
0.14
0.40
0.14
0.33
0.33
0.38
0.29
0.40
0.33
0.46
0.29
0.38
0.20
0.46
0.40
0.24
0.33
0.20
0.38
0.40
0.33
0.24
0.29
0.24
0.38
0.20
0.24
0.09
0.14
0.09
0.06
0.12
0.00
0.02
0.02
0.20
0.24
0.18
0.18
0.33
0.29
0.40
0.40
0.49
0.18
0.09
0.68
0.60
0.61
0.70
0.61
0.59
0.56
0.51
0.51
0.33
0.42
0.42
0.40
0.29
0.40
0.42
0.40
0.29
0.29
0.33
0.45
0.46
0.42
0.40
0.42
0.49
0.40
0.56
0.49
0.51
0.50
0.49
0.54
0.54
0.54
0.53
0.49
0.42
0.42
0.45
0.38
0.29
0.40
0.18
0.20
0.20
0.18
0.20
0.24
0.20
0.20
0.29
0.33
0.20
0.24
0.29
0.33
0.38
0.29
0.40
0.20
0.42
0.49
0.38
0.49
0.45
0.55
0.61
0.66
0.60
0.64
0.86
0.89
0.94
0.95
0.96
0.95
0.89
0.25
0.14
0.49
0.53
0.55
0.58
0.61
0.61
0.57
0.57
0.59
0.60
0.61
0.64
0.69
0.77
0.82
0.90
0.90
0.92
0.92
0.92
0.86
0.82
0.70
0.62
0.61
0.57
0.58
0.53
0.42
0.40
0.29
0.24
0.18
0.24
0.14
0.18
0.14
0.24
0.20
0.20
0.29
0.20
0.18
0.24
0.24
0.29
0.20
0.14
0.18
0.18
0.20
0.18
0.18
0.11
0.11
0.18
0.06
0.14
0.14
0.11
0.14
0.20
0.14
0.06
0.14
0.20
0.14
0.14
0.24
0.11
0.18
0.18
0.11
0.18
0.14
0.11
0.09
0.09
0.05
0.01
0.01
0.00
0.04
0.08
0.02
0.00
0.14
0.14
0.29
0.29
0.18
0.18
0.29
0.29
0.24
0.18
0.00
0.83
0.18
0.69
0.90
0.86
0.63
0.56
0.24
0.24
0.20
0.05
0.05
0.02
0.02
0.01
0.01
0.00
0.00
0.00
0.01
0.00
0.02
0.00
0.01
0.00
0.01
0.01
0.02
0.01
0.06
0.09
0.14
0.18
0.24
0.38
0.33
0.33
0.18
0.29
0.06
0.05
0.09
0.02
0.01
0.05
0.02
0.05
0.02
0.02
0.01
0.02
0.09
0.02
0.06
0.06
0.05
0.02
0.02
0.02
0.02
0.05
0.01
0.02
0.01
0.02
0.00
0.00
0.02
0.01
0.12
0.02
0.25
0.00
0.00
0.02
0.02
0.42
0.50
0.61
0.61
0.78
0.77
0.71
0.73
0.64
0.14
0.02
0.11
0.57
0.56
0.24
0.05
0.00
0.00
0.00
0.08
0.02
0.00
0.00
0.01
0.01
0.01
0.00
0.02
0.01
0.01
0.01
0.01
0.00
0.02
0.08
0.19
0.34
0.30
0.45
0.45
0.38
0.38
0.22
0.19
0.16
0.12
0.08
0.12
0.04
0.12
0.12
0.08
0.04
0.16
0.08
0.19
0.02
0.16
0.08
0.16
0.08
0.12
0.08
0.12
0.16
0.08
0.02
0.19
0.12
0.12
0.02
0.16
0.02
0.04
0.02
0.08
0.01
0.04
0.02
0.19
0.12
0.08
0.38
0.49
0.52
0.49
0.25
0.16
0.02
0.02
0.01
0.02
0.00
0.02
0.01
0.00
0.01
0.49
0.86
0.30
0.57
0.69
0.78
0.57
0.24
0.05
0.00
0.01
0.00
0.01
0.08
0.04
0.08
0.16
0.01
0.12
0.02
0.16
0.08
0.12
0.01
0.04
0.01
0.01
0.00
0.11
0.14
0.24
0.29
0.24
0.29
0.38
0.20
0.20
0.05
0.06
0.00
0.01
0.04
0.16
0.19
0.19
0.19
0.16
0.25
0.19
0.19
0.08
0.16
0.22
0.12
0.22
0.12
0.16
0.19
0.30
0.19
0.16
0.25
0.22
0.30
0.34
0.25
0.22
0.45
0.16
0.12
0.25
0.34
0.34
0.49
0.38
0.63
0.34
0.41
0.34
0.16
0.02
0.49
0.61
0.61
0.71
0.84
0.80
0.82
0.88
0.42
0.01
0.02
0.58
0.54
0.29
0.06
0.02
0.08
0.08
0.19
0.12
0.12
0.19
0.08
0.12
0.02
0.08
0.04
0.12
0.00
0.04
0.25
0.12
0.16
0.30
0.30
0.52
0.63
0.58
0.60
0.63
0.55
0.49
0.34
0.41
0.22
0.34
0.30
0.19
0.19
0.22
0.08
0.30
0.25
0.25
0.16
0.19
0.25
0.08
0.25
0.22
0.30
0.30
0.22
0.22
0.22
0.25
0.25
0.16
0.19
0.12
0.22
0.16
0.12
0.25
0.19
0.22
0.25
0.12
0.22
0.16
0.19
0.19
0.45
0.45
0.45
0.60
0.63
0.63
0.66
0.55
0.34
0.25
0.16
0.19
0.08
0.01
0.12
0.04
0.04
0.12
0.45
0.81
0.01
0.58
0.60
0.61
0.61
0.38
0.01
0.01
0.08
0.08
0.08
0.16
0.04
0.25
0.12
0.22
0.19
0.22
0.19
0.19
0.16
0.22
0.08
0.12
0.04
0.04
0.00
0.00
0.02
0.06
0.05
0.05
0.11
0.09
0.01
0.02
0.02
0.01
0.00
0.01
0.12
0.01
0.04
0.04
0.04
0.08
0.08
0.02
0.04
0.01
0.01
0.04
0.02
0.08
0.02
0.16
0.02
0.01
0.08
0.04
0.16
0.08
0.16
0.16
0.16
0.12
0.12
0.22
0.30
0.04
0.49
0.58
0.63
0.38
0.05
0.56
0.61
0.57
0.58
0.58
0.61
0.00
0.18
0.09
0.57
0.60
0.59
0.53
0.06
0.12
0.08
0.16
0.19
0.19
0.19
0.34
0.19
0.25
0.19
0.12
0.02
0.19
0.02
0.04
0.04
0.22
0.38
0.49
0.58
0.64
0.66
0.69
0.68
0.68
0.64
0.49
0.38
0.34
0.19
0.12
0.12
0.08
0.08
0.04
0.12
0.12
0.12
0.16
0.16
0.04
0.16
0.22
0.19
0.08
0.22
0.16
0.12
0.19
0.08
0.16
0.22
0.08
0.08
0.08
0.12
0.19
0.04
0.19
0.16
0.08
0.12
0.19
0.04
0.08
0.12
0.16
0.16
0.08
0.04
0.08
0.22
0.25
0.19
0.30
0.52
0.52
0.49
0.25
0.04
0.00
0.01
0.00
0.02
0.01
0.05
0.01
0.02
0.02
0.19
0.78
0.52
0.57
0.64
0.78
0.58
0.53
0.11
0.11
0.11
0.06
0.09
0.01
0.09
0.01
0.02
0.01
0.01
0.01
0.00
0.01
0.00
0.02
0.02
0.02
0.14
0.11
0.20
0.33
0.42
0.45
0.45
0.49
0.46
0.50
0.45
0.40
0.09
0.14
0.05
0.02
0.01
0.00
0.00
0.00
0.01
0.04
0.00
0.00
0.02
0.01
0.00
0.01
0.02
0.01
0.00
0.01
0.00
0.00
0.02
0.01
0.02
0.00
0.02
0.05
0.14
0.00
0.01
0.01
0.53
0.56
0.61
0.61
0.62
0.57
0.61
0.38
0.73
0.55
0.45
0.66
0.67
0.62
0.58
0.38
0.20
0.11
0.02
0.02
0.01
0.02
0.00
0.06
0.01
0.09
0.06
0.06
0.11
0.11
0.06
0.09
0.02
0.01
0.08
0.30
0.38
0.55
0.58
0.60
0.52
0.41
0.30
0.16
0.12
0.08
0.00
0.00
0.04
0.04
0.01
0.00
0.04
0.01
0.04
0.08
0.08
0.01
0.04
0.08
0.12
0.02
0.04
0.02
0.12
0.08
0.08
0.01
0.16
0.08
0.04
0.02
0.04
0.01
0.04
0.02
0.01
0.02
0.00
0.01
0.01
0.00
0.02
0.01
0.01
0.00
0.01
0.01
0.01
0.00
0.00
0.01
0.02
0.01
0.01
0.00
0.05
0.02
0.09
0.02
0.01
0.02
0.05
0.02
0.01
0.30
0.22
0.08
0.04
0.02
0.18
0.14
0.14
0.24
0.24
0.33
0.38
0.51
0.20
0.08
0.52
0.63
0.61
0.71
0.61
0.58
0.40
0.42
0.24
0.20
0.11
0.09
0.06
0.06
0.09
0.05
0.02
0.11
0.11
0.05
0.18
0.02
0.20
0.14
0.24
0.24
0.38
0.38
0.45
0.45
0.49
0.49
0.45
0.49
0.46
0.38
0.40
0.24
0.14
0.14
0.02
0.02
0.05
0.02
0.05
0.00
0.02
0.02
0.02
0.01
0.01
0.01
0.01
0.00
0.01
0.00
0.00
0.00
0.00
0.02
0.18
0.09
0.14
0.01
0.14
0.46
0.58
0.25
0.86
0.93
0.93
0.95
0.97
0.98
0.98
0.95
0.68
0.52
0.24
0.40
0.40
0.49
0.54
0.55
0.58
0.58
0.60
0.61
0.57
0.59
0.61
0.63
0.70
0.78
0.84
0.87
0.88
0.88
0.86
0.71
0.67
0.61
0.57
0.61
0.55
0.42
0.24
0.20
0.11
0.05
0.01
0.02
0.02
0.02
0.02
0.02
0.01
0.01
0.02
0.00
0.02
0.01
0.01
0.00
0.02
0.01
0.02
0.00
0.02
0.01
0.00
0.01
0.00
0.01
0.02
0.00
0.02
0.01
0.02
0.01
0.02
0.02
0.02
0.01
0.01
0.02
0.00
0.01
0.02
0.00
0.01
0.00
0.01
0.01
0.00
0.00
0.01
0.00
0.02
0.01
0.02
0.04
0.12
0.12
0.25
0.30
0.58
0.38
0.34
0.22
0.12
0.01
0.00
0.01
0.02
0.02
0.06
0.02
0.06
0.19
0.41
0.90
0.60
0.80
0.78
0.73
0.57
0.29
0.09
0.11
0.09
0.02
0.02
0.00
0.01
0.01
0.00
0.01
0.02
0.04
0.04
0.12
0.02
0.08
0.08
0.01
0.02
0.00
0.01
0.06
0.02
0.14
0.05
0.20
0.20
0.38
0.20
0.33
0.09
0.05
0.05
0.01
0.00
0.00
0.00
0.00
0.00
0.01
0.00
0.00
0.01
0.01
0.00
0.01
0.00
0.01
0.00
0.00
0.00
0.01
0.00
0.01
0.00
0.01
0.01
0.01
0.01
0.01
0.04
0.04
0.00
0.12
0.12
0.41
0.25
0.19
0.12
0.00
0.01
0.02
0.02
0.01
0.02
0.01
0.01
0.02
0.02
0.30
0.78
0.38
0.59
0.73
0.77
0.60
0.56
0.20
0.18
0.06
0.06
0.02
0.05
0.02
0.02
0.02
0.02
0.02
0.02
0.00
0.02
0.05
0.02
0.06
0.14
0.14
0.29
0.45
0.49
0.49
0.54
0.54
0.54
0.51
0.49
0.46
0.29
0.18
0.11
0.02
0.01
0.01
0.01
0.01
0.00
0.00
0.01
0.00
0.02
0.00
0.01
0.04
0.02
0.04
0.01
0.02
0.02
0.02
0.00
0.01
0.02
0.00
0.00
0.01
0.01
0.01
0.01
0.02
0.00
0.00
0.00
0.01
0.01
0.01
0.01
0.04
0.25
0.01
0.55
0.25
0.25
0.12
0.01
0.05
0.05
0.01
0.02
0.50
0.58
0.61
0.78
0.90
0.93
0.57
0.70
0.53
0.29
0.45
0.55
0.01
0.02
0.02
0.01
0.00
0.04
0.00
0.04
0.01
0.08
0.00
0.02
0.08
0.02
0.01
0.08
0.02
0.00
0.01
0.01
0.02
0.00
0.04
0.16
0.22
0.41
0.30
0.45
0.30
0.45
0.22
0.34
0.16
0.16
0.04
0.04
0.04
0.04
0.02
0.04
0.01
0.08
0.02
0.00
0.04
0.02
0.04
0.16
0.02
0.12
0.02
0.12
0.08
0.04
0.08
0.08
0.04
0.12
0.01
0.02
0.12
0.12
0.01
0.22
0.08
0.04
0.30
0.16
0.41
0.49
0.58
0.58
0.41
0.34
0.04
0.08
0.04
0.01
0.01
0.01
0.01
0.01
0.02
0.19
0.63
0.77
0.57
0.59
0.62
0.57
0.61
0.14
0.06
0.05
0.02
0.01
0.01
0.02
0.00
0.01
0.00
0.00
0.00
0.00
0.00
0.00
0.00
0.00
0.02
0.05
0.02
0.06
0.14
0.24
0.24
0.40
0.42
0.38
0.33
0.24
0.24
0.11
0.02
0.00
0.01
0.01
0.01
0.08
0.12
0.04
0.02
0.08
0.04
0.02
0.01
0.01
0.02
0.00
0.06
0.01
0.02
0.19
0.00
0.06
0.25
0.76
0.91
0.97
0.97
0.96
0.95
0.96
0.95
0.94
0.85
0.66
0.02
0.40
0.29
0.45
0.33
0.49
0.46
0.55
0.58
0.57
0.57
0.57
0.63
0.62
0.67
0.75
0.80
0.86
0.89
0.90
0.90
0.88
0.80
0.69
0.61
0.58
0.58
0.56
0.38
0.24
0.14
0.11
0.05
0.06
0.05
0.02
0.02
0.02
0.05
0.02
0.02
0.02
0.02
0.02
0.06
0.05
0.06
0.05
0.11
0.02
0.02
0.02
0.02
0.05
0.09
0.02
0.06
0.05
0.06
0.18
0.05
0.09
0.06
0.05
0.06
0.05
0.05
0.05
0.06
0.11
0.06
0.09
0.09
0.02
0.06
0.09
0.05
0.06
0.06
0.09
0.05
0.06
0.06
0.05
0.14
0.02
0.02
0.09
0.05
0.05
0.05
0.05
0.00
0.00
0.16
0.04
0.25
0.25
0.02
0.02
0.09
0.24
0.05
0.14
0.14
0.20
0.14
0.18
0.24
0.02
0.30
0.89
0.59
0.61
0.67
0.64
0.56
0.38
0.40
0.38
0.29
0.14
0.14
0.24
0.14
0.20
0.09
0.14
0.11
0.09
0.09
0.09
0.14
0.18
0.11
0.24
0.29
0.40
0.33
0.40
0.49
0.49
0.51
0.49
0.56
0.54
0.49
0.50
0.45
0.38
0.33
0.18
0.20
0.06
0.11
0.09
0.11
0.05
0.11
0.09
0.11
0.11
0.11
0.11
0.11
0.14
0.05
0.09
0.14
0.40
0.02
0.24
0.29
0.61
0.69
0.95
0.92
0.56
0.25
0.85
0.94
0.95
0.95
0.93
0.78
0.58
0.53
0.45
0.24
0.40
0.29
0.20
0.24
0.29
0.40
0.38
0.42
0.42
0.46
0.56
0.56
0.55
0.58
0.58
0.58
0.58
0.56
0.55
0.45
0.45
0.38
0.14
0.09
0.11
0.05
0.18
0.14
0.18
0.09
0.11
0.09
0.09
0.18
0.09
0.11
0.06
0.09
0.02
0.02
0.09
0.05
0.09
0.09
0.09
0.02
0.05
0.09
0.02
0.02
0.06
0.02
0.09
0.02
0.09
0.00
0.05
0.05
0.02
0.01
0.06
0.05
0.05
0.02
0.05
0.05
0.01
0.02
0.02
0.01
0.01
0.01
0.06
0.00
0.02
0.08
0.02
0.00
0.00
0.02
0.00
0.00
0.00
0.16
0.01
0.22
0.19
0.63
0.55
0.45
0.30
0.00
0.12
0.00
0.00
0.01
0.16
0.29
0.01
0.01
0.02
0.01
0.49
0.66
0.61
0.58
0.56
0.56
0.00
0.02
0.12
0.00
0.00
0.30
0.25
0.22
0.08
0.22
0.22
0.25
0.02
0.12
0.16
0.01
0.16
0.16
0.38
0.02
0.08
0.02
0.00
0.05
0.02
0.00
0.05
0.08
0.06
0.00
0.01
0.01
0.30
0.16
0.41
0.19
0.34
0.45
0.49
0.45
0.63
0.45
0.60
0.55
0.55
0.64
0.58
0.58
0.52
0.65
0.49
0.68
0.66
0.63
0.65
0.49
0.58
0.69
0.55
0.52
0.65
0.63
0.68
0.55
0.69
0.71
0.68
0.71
0.64
0.71
0.49
0.52
0.58
0.45
0.58
0.45
0.45
0.55
0.45
0.71
0.79
0.82
0.57
0.70
0.60
0.58
0.49
0.45
0.34
0.41
0.52
0.52
0.55
0.41
0.60
0.52
0.55
0.52
0.55
0.64
0.34
0.55
0.45
0.58
0.60
0.41
0.34
0.30
0.22
0.12
0.12
0.04
0.02
0.02
0.02
0.02
0.25
0.22
0.25
0.38
0.55
0.52
0.58
0.45
0.60
0.52
0.58
0.49
0.60
0.45
0.45
0.30
0.34
0.52
0.66
0.72
0.70
0.68
0.75
0.82
0.92
0.97
0.98
0.97
0.98
0.95
0.95
0.89
0.77
0.79
0.01
0.34
0.34
0.19
0.16
0.00
0.05
0.05
0.42
0.33
0.50
0.55
0.58
0.57
0.59
0.58
0.61
0.61
0.62
0.63
0.61
0.63
0.57
0.61
0.54
0.40
0.02
0.02
0.08
0.12
0.25
0.12
0.38
0.30
0.30
0.30
0.30
0.34
0.22
0.25
0.30
0.34
0.22
0.25
0.34
0.25
0.19
0.41
0.25
0.30
0.38
0.38
0.30
0.30
0.49
0.41
0.25
0.45
0.19
0.25
0.49
0.30
0.38
0.41
0.30
0.34
0.41
0.30
0.45
0.12
0.30
0.34
0.22
0.38
0.30
0.30
0.41
0.22
0.22
0.22
0.25
0.25
0.16
0.34
0.30
0.19
0.38
0.19
0.30
0.25
0.34
0.34
0.49
0.41
0.64
0.68
0.49
0.66
0.58
0.41
0.25
0.41
0.08
0.08
0.16
0.04
0.25
0.04
0.04
0.34
0.80
0.68
0.61
0.61
0.64
0.59
0.45
0.04
0.01
0.04
0.25
0.08
0.19
0.30
0.16
0.25
0.38
0.41
0.38
0.34
0.38
0.38
0.49
0.30
0.25
0.19
0.30
0.19
0.08
0.04
0.01
0.01
0.00
0.00
0.06
0.01
0.05
0.02
0.01
0.00
0.12
0.12
0.16
0.22
0.12
0.16
0.16
0.12
0.12
0.00
0.08
0.12
0.04
0.04
0.04
0.08
0.19
0.01
0.02
0.16
0.12
0.12
0.08
0.04
0.08
0.12
0.08
0.12
0.19
0.16
0.19
0.41
0.52
0.25
0.08
0.01
0.02
0.02
0.11
0.24
0.02
0.01
0.02
0.11
0.01
0.76
0.92
0.90
0.22
0.06
0.50
0.61
0.49
0.14
0.06
0.20
0.09
0.02
0.11
0.09
0.18
0.20
0.20
0.38
0.20
0.45
0.45
0.50
0.50
0.55
0.58
0.61
0.61
0.61
0.61
0.57
0.57
0.61
0.61
0.58
0.51
0.46
0.11
0.02
0.01
0.00
0.08
0.01
0.12
0.02
0.02
0.08
0.04
0.02
0.02
0.01
0.01
0.04
0.04
0.01
0.02
0.01
0.01
0.00
0.02
0.02
0.01
0.01
0.01
0.05
0.09
0.25
0.00
0.38
0.02
0.57
0.80
0.65
0.56
0.60
0.89
0.95
0.95
0.95
0.92
0.87
0.02
0.49
0.46
0.42
0.20
0.20
0.38
0.33
0.49
0.49
0.53
0.55
0.58
0.61
0.61
0.57
0.58
0.59
0.60
0.60
0.61
0.57
0.57
0.60
0.58
0.53
0.40
0.29
0.09
0.02
0.01
0.00
0.04
0.01
0.00
0.00
0.00
0.01
0.00
0.01
0.02
0.02
0.01
0.00
0.02
0.02
0.02
0.04
0.01
0.00
0.02
0.00
0.01
0.00
0.00
0.01
0.00
0.02
0.00
0.12
0.01
0.12
0.02
0.04
0.00
0.08
0.08
0.02
0.04
0.02
0.02
0.16
0.02
0.01
0.04
0.12
0.08
0.30
0.22
0.34
0.65
0.45
0.49
0.25
0.12
0.08
0.00
0.02
0.01
0.01
0.00
0.01
0.01
0.12
0.34
0.87
0.05
0.61
0.71
0.78
0.57
0.33
0.02
0.02
0.01
0.01
0.00
0.12
0.02
0.04
0.02
0.12
0.19
0.16
0.16
0.16
0.12
0.25
0.19
0.08
0.25
0.02
0.02
0.01
0.01
0.01
0.02
0.05
0.09
0.11
0.14
0.06
0.02
0.01
0.00
0.01
0.08
0.12
0.12
0.02
0.08
0.04
0.16
0.00
0.01
0.01
0.01
0.02
0.02
0.25
0.38
0.52
0.19
0.41
0.71
0.89
0.95
0.98
0.97
0.97
0.97
0.97
0.97
0.94
0.87
0.76
0.00
0.24
0.38
0.49
0.58
0.58
0.56
0.61
0.57
0.57
0.56
0.60
0.61
0.67
0.71
0.78
0.85
0.88
0.90
0.90
0.90
0.87
0.80
0.70
0.61
0.57
0.58
0.50
0.33
0.18
0.02
0.01
0.01
0.01
0.01
0.01
0.00
0.01
0.00
0.00
0.00
0.01
0.00
0.04
0.04
0.01
0.04
0.00
0.04
0.01
0.01
0.12
0.01
0.04
0.01
0.00
0.01
0.08
0.01
0.00
0.00
0.00
0.00
0.00
0.00
0.00
0.00
0.01
0.00
0.02
0.00
0.02
0.01
0.00
0.01
0.01
0.00
0.01
0.02
0.00
0.01
0.01
0.00
0.01
0.02
0.00
0.01
0.04
0.16
0.08
0.41
0.38
0.52
0.45
0.22
0.08
0.00
0.00
0.00
0.02
0.01
0.02
0.01
0.02
0.11
0.04
0.78
0.12
0.57
0.61
0.73
0.59
0.51
0.29
0.09
0.14
0.02
0.02
0.01
0.01
0.00
0.00
0.00
0.00
0.00
0.00
0.00
0.02
0.02
0.02
0.01
0.05
0.11
0.20
0.14
0.14
0.24
0.24
0.40
0.33
0.42
0.40
0.24
0.29
0.20
0.11
0.05
0.02
0.02
0.00
0.02
0.02
0.00
0.02
0.02
0.02
0.01
0.01
0.01
0.02
0.02
0.01
0.00
0.00
0.02
0.00
0.01
0.00
0.00
0.01
0.00
0.01
0.08
0.00
0.02
0.01
0.30
0.16
0.04
0.00
0.01
0.02
0.02
0.01
0.06
0.11
0.09
0.06
0.06
0.06
0.01
0.68
0.01
0.60
0.63
0.69
0.57
0.46
0.14
0.11
0.09
0.09
0.06
0.05
0.09
0.11
0.05
0.06
0.09
0.14
0.14
0.18
0.14
0.14
0.38
0.33
0.42
0.38
0.50
0.51
0.56
0.55
0.55
0.50
0.51
0.45
0.24
0.33
0.09
0.06
0.00
0.00
0.02
0.00
0.01
0.01
0.01
0.00
0.02
0.01
0.01
0.08
0.01
0.08
0.00
0.00
0.00
0.02
0.01
0.08
0.00
0.00
0.01
0.00
0.00
0.02
0.01
0.00
0.01
0.01
0.01
0.00
0.04
0.16
0.22
0.19
0.08
0.01
0.02
0.06
0.06
0.20
0.05
0.01
0.09
0.40
0.56
0.60
0.60
0.02
0.70
0.58
0.00
0.61
0.58
0.24
0.06
0.05
0.02
0.09
0.01
0.02
0.02
0.02
0.02
0.01
0.02
0.02
0.02
0.05
0.05
0.09
0.09
0.11
0.24
0.29
0.29
0.29
0.33
0.18
0.20
0.11
0.05
0.02
0.01
0.01
0.00
0.01
0.00
0.01
0.01
0.00
0.01
0.01
0.02
0.01
0.05
0.00
0.01
0.00
0.00
0.00
0.00
0.00
0.01
0.02
0.00
0.01
0.04
0.08
0.00
0.04
0.00
0.02
0.02
0.02
0.01
0.04
0.02
0.04
0.16
0.04
0.19
0.16
0.49
0.25
0.08
0.02
0.01
0.01
0.01
0.02
0.05
0.01
0.02
0.02
0.02
0.34
0.49
0.89
0.57
0.71
0.71
0.70
0.57
0.20
0.09
0.11
0.02
0.00
0.02
0.01
0.00
0.00
0.01
0.00
0.01
0.04
0.02
0.04
0.01
0.02
0.00
0.01
0.01
0.02
0.11
0.09
0.29
0.20
0.38
0.40
0.40
0.33
0.20
0.09
0.09
0.02
0.02
0.00
0.01
0.01
0.00
0.01
0.02
0.01
0.01
0.00
0.00
0.02
0.09
0.01
0.09
0.08
0.22
0.49
0.30
0.19
0.68
0.83
0.94
0.98
0.98
0.97
0.96
0.97
0.97
0.95
0.87
0.74
0.00
0.24
0.18
0.45
0.24
0.45
0.54
0.55
0.61
0.57
0.57
0.57
0.63
0.64
0.67
0.78
0.85
0.86
0.90
0.90
0.89
0.88
0.78
0.66
0.61
0.58
0.58
0.49
0.38
0.11
0.02
0.01
0.01
0.02
0.01
0.02
0.00
0.05
0.02
0.01
0.05
0.02
0.02
0.00
0.00
0.01
0.01
0.01
0.01
0.01
0.01
0.01
0.01
0.01
0.00
0.01
0.02
0.01
0.00
0.01
0.02
0.01
0.01
0.02
0.02
0.01
0.00
0.00
0.01
0.00
0.01
0.01
0.02
0.02
0.02
0.06
0.05
0.02
0.11
0.01
0.06
0.09
0.05
0.05
0.18
0.02
0.06
0.14
0.05
0.02
0.06
0.02
0.05
0.05
0.01
0.02
0.02
0.01
0.01
0.22
0.00
0.01
0.01
0.29
0.14
0.11
0.33
0.06
0.09
0.14
0.14
0.24
0.01
0.73
0.30
0.57
0.62
0.75
0.59
0.58
0.40
0.38
0.33
0.18
0.05
0.09
0.09
0.09
0.11
0.14
0.05
0.14
0.02
0.18
0.05
0.11
0.18
0.24
0.20
0.29
0.40
0.38
0.45
0.42
0.49
0.51
0.45
0.49
0.50
0.42
0.40
0.29
0.20
0.18
0.09
0.00
0.09
0.05
0.06
0.01
0.06
0.02
0.09
0.09
0.09
0.05
0.05
0.06
0.02
0.09
0.06
0.05
0.06
0.02
0.14
0.05
0.02
0.18
0.33
0.20
0.24
0.14
0.56
0.55
0.71
0.61
0.02
0.78
0.89
0.92
0.93
0.95
0.92
0.83
0.22
0.38
0.20
0.46
0.51
0.53
0.56
0.55
0.58
0.58
0.61
0.57
0.59
0.57
0.59
0.61
0.63
0.65
0.70
0.71
0.81
0.73
0.73
0.65
0.61
0.57
0.57
0.60
0.56
0.49
0.49
0.18
0.33
0.14
0.11
0.14
0.20
0.09
0.14
0.11
0.14
0.11
0.24
0.20
0.02
0.09
0.06
0.02
0.11
0.09
0.06
0.02
0.06
0.05
0.09
0.02
0.09
0.09
0.09
0.06
0.09
0.09
0.24
0.14
0.14
0.18
0.18
0.33
0.24
0.42
0.24
0.40
0.40
0.45
0.45
0.45
0.49
0.49
0.40
0.40
0.18
0.40
0.06
0.14
0.24
0.33
0.51
0.50
0.54
0.49
0.51
0.38
0.56
0.61
0.59
0.64
0.71
0.49
0.78
0.71
0.24
0.56
0.58
0.29
0.05
0.02
0.02
0.02
0.01
0.00
0.01
0.02
0.16
0.02
0.12
0.12
0.16
0.16
0.19
0.22
0.12
0.04
0.22
0.02
0.04
0.19
0.04
0.12
0.19
0.16
0.19
0.22
0.08
0.19
0.08
0.02
0.02
0.00
0.01
0.01
0.01
0.01
0.00
0.00
0.01
0.01
0.02
0.00
0.00
0.01
0.00
0.02
0.02
0.04
0.00
0.01
0.02
0.02
0.02
0.00
0.02
0.16
0.22
0.12
0.04
0.45
0.30
0.58
0.25
0.30
0.12
0.01
0.08
0.02
0.00
0.01
0.00
0.01
0.01
0.02
0.49
0.74
0.80
0.57
0.75
0.65
0.60
0.56
0.01
0.02
0.01
0.00
0.01
0.01
0.04
0.02
0.08
0.01
0.08
0.12
0.16
0.04
0.19
0.04
0.04
0.08
0.00
0.01
0.00
0.02
0.11
0.09
0.14
0.11
0.14
0.09
0.02
0.01
0.00
0.02
0.02
0.12
0.16
0.16
0.22
0.12
0.12
0.12
0.04
0.12
0.08
0.16
0.04
0.12
0.08
0.08
0.12
0.12
0.22
0.19
0.08
0.01
0.04
0.16
0.34
0.04
0.29
0.46
0.58
0.61
0.61
0.49
0.49
0.82
0.77
0.72
0.46
0.56
0.59
0.61
0.38
0.02
0.01
0.01
0.02
0.01
0.08
0.08
0.04
0.02
0.01
0.01
0.01
0.01
0.01
0.02
0.00
0.00
0.02
0.04
0.25
0.41
0.52
0.65
0.66
0.65
0.65
0.55
0.41
0.25
0.25
0.25
0.02
0.30
0.04
0.19
0.22
0.19
0.16
0.12
0.19
0.04
0.25
0.16
0.08
0.19
0.08
0.12
0.16
0.04
0.16
0.19
0.16
0.12
0.16
0.16
0.12
0.16
0.08
0.16
0.08
0.16
0.12
0.08
0.04
0.02
0.08
0.01
0.02
0.02
0.01
0.04
0.04
0.02
0.04
0.01
0.12
0.01
0.08
0.01
0.08
0.02
0.08
0.08
0.12
0.22
0.38
0.08
0.58
0.22
0.38
0.12
0.02
0.00
0.02
0.00
0.01
0.01
0.01
0.00
0.05
0.04
0.12
0.87
0.61
0.57
0.63
0.56
0.61
0.18
0.09
0.02
0.01
0.00
0.00
0.00
0.01
0.00
0.01
0.01
0.00
0.01
0.02
0.02
0.11
0.18
0.11
0.20
0.14
0.40
0.38
0.45
0.45
0.42
0.49
0.42
0.46
0.42
0.42
0.49
0.02
0.09
0.20
0.02
0.02
0.02
0.05
0.01
0.02
0.11
0.02
0.11
0.05
0.02
0.02
0.01
0.02
0.05
0.06
0.09
0.02
0.09
0.05
0.06
0.01
0.01
0.09
0.00
0.02
0.01
0.02
0.22
0.12
0.38
0.04
0.02
0.00
0.09
0.14
0.18
0.11
0.14
0.11
0.29
0.20
0.38
0.01
0.22
0.75
0.61
0.64
0.69
0.63
0.61
0.20
0.29
0.24
0.40
0.01
0.18
0.18
0.05
0.49
0.09
0.11
0.20
0.02
0.20
0.20
0.29
0.24
0.38
0.45
0.51
0.45
0.54
0.56
0.56
0.61
0.58
0.61
0.55
0.56
0.50
0.50
0.42
0.45
0.45
0.20
0.45
0.18
0.40
0.49
0.01
0.46
0.42
0.50
0.45
0.14
0.49
0.49
0.40
0.20
0.33
0.29
0.40
0.24
0.20
0.38
0.18
0.45
0.14
0.29
0.14
0.29
0.29
0.56
0.01
0.02
0.00
0.09
0.38
0.78
0.89
0.78
0.64
0.04
0.71
0.92
0.94
0.92
0.80
0.01
0.61
0.58
0.56
0.49
0.40
0.42
0.49
0.45
0.51
0.24
0.58
0.50
0.60
0.58
0.61
0.61
0.61
0.57
0.61
0.57
0.61
0.58
0.56
0.54
0.49
0.33
0.11
0.18
0.01
0.02
0.00
0.00
0.00
0.00
0.01
0.00
0.01
0.01
0.00
0.01
0.01
0.01
0.02
0.02
0.02
0.05
0.06
0.25
0.06
0.00
0.00
0.01
0.01
0.00
0.01
0.01
0.16
0.20
0.08
0.02
0.00
0.01
0.00
0.00
0.02
0.06
0.38
0.09
0.00
0.00
0.00
0.01
0.08
0.02
0.00
0.00
0.00
0.00
0.00
0.02
0.08
0.04
0.12
0.04
0.52
0.01
0.30
0.01
0.01
0.01
0.01
0.00
0.01
0.01
0.01
0.01
0.01
0.58
0.45
0.90
0.61
0.63
0.61
0.61
0.61
0.00
0.02
0.06
0.05
0.01
0.01
0.09
0.25
0.00
0.00
0.04
0.08
0.01
0.01
0.04
0.04
0.01
0.08
0.01
0.01
0.02
0.11
0.06
0.02
0.38
0.11
0.24
0.14
0.40
0.11
0.05
0.00
0.01
0.00
0.25
0.06
0.19
0.01
0.04
0.01
0.04
0.01
0.08
0.02
0.04
0.08
0.02
0.00
0.41
0.02
0.16
0.02
0.01
0.00
0.01
0.00
0.06
0.19
0.19
0.00
0.02
0.66
0.78
0.90
0.95
0.95
0.94
0.95
0.95
0.97
0.95
0.96
0.91
0.64
0.22
0.29
0.49
0.40
0.56
0.58
0.56
0.61
0.61
0.57
0.58
0.61
0.61
0.65
0.71
0.78
0.84
0.88
0.89
0.90
0.90
0.85
0.85
0.65
0.61
0.61
0.58
0.50
0.33
0.02
0.00
0.02
0.08
0.02
0.02
0.12
0.00
0.55
0.01
0.00
0.30
0.01
0.04
0.08
0.04
0.12
0.12
0.08
0.16
0.19
0.12
0.08
0.02
0.40
0.61
0.57
0.54
0.52
0.94
1.00
1.00
1.00
1.00
1.00
0.97
0.95
0.99
0.99
0.98
0.95
0.71
0.33
0.51
0.54
0.60
0.57
0.61
0.60
0.61
0.66
0.73
0.77
0.86
0.92
0.93
0.95
0.95
0.97
0.97
0.97
0.98
0.97
0.97
0.97
0.95
0.92
0.82
0.64
0.57
0.60
0.50
0.29
0.14
0.02
0.00
0.02
0.01
0.01
0.01
0.75
0.97
0.87
0.65
0.80
0.77
0.18
0.09
0.00
0.05
0.34
0.04
0.01
0.08
0.19
0.02
0.04
0.16
0.25
0.38
0.22
0.38
0.58
0.34
0.75
0.63
0.66
0.71
0.70
0.70
0.68
0.64
0.55
0.49
0.25
0.08
0.00
0.00
0.04
0.00
0.04
0.09
0.02
0.01
0.01
0.02
0.01
0.01
0.01
0.02
0.02
0.02
0.01
0.00
0.05
0.00
0.01
0.01
0.01
0.06
0.02
0.02
0.24
0.52
0.01
0.12
0.16
0.49
0.22
0.12
0.12
0.02
0.01
0.05
0.01
0.33
0.01
0.02
0.18
0.09
0.12
0.04
0.82
0.54
0.61
0.60
0.57
0.59
0.38
0.05
0.02
0.09
0.02
0.01
0.01
0.01
0.02
0.08
0.00
0.02
0.12
0.01
0.08
0.01
0.08
0.01
0.09
0.02
0.06
0.06
0.09
0.14
0.24
0.29
0.40
0.01
0.09
0.20
0.01
0.01
0.00
0.00
0.01
0.01
0.08
0.01
0.38
0.02
0.01
0.01
0.12
0.00
0.00
0.12
0.01
0.02
0.22
0.01
0.01
0.01
0.04
0.04
0.02
0.12
0.51
0.29
0.57
0.57
0.57
0.59
0.57
0.66
0.64
0.60
0.53
0.58
0.59
0.56
0.18
0.02
0.01
0.01
0.02
0.30
0.00
0.01
0.30
0.38
0.00
0.01
0.02
0.02
0.00
0.01
0.16
0.12
0.02
0.60
0.55
0.69
0.58
0.66
0.66
0.63
0.55
0.38
0.22
0.19
0.01
0.34
0.02
0.01
0.02
0.34
0.08
0.22
0.19
0.22
0.04
0.58
0.02
0.25
0.16
0.49
0.00
0.30
0.16
0.16
0.16
0.08
0.19
0.30
0.08
0.38
0.04
0.16
0.19
0.22
0.16
0.19
0.00
0.16
0.08
0.04
0.16
0.19
0.01
0.25
0.08
0.00
0.19
0.04
0.12
0.19
0.16
0.02
0.22
0.12
0.04
0.52
0.01
0.45
0.25
0.41
0.52
0.52
0.52
0.41
0.19
0.01
0.08
0.04
0.01
0.30
0.02
0.01
0.02
0.08
0.00
0.65
0.89
0.56
0.58
0.61
0.57
0.57
0.02
0.09
0.02
0.00
0.02
0.02
0.04
0.02
0.08
0.12
0.00
0.04
0.08
0.01
0.00
0.02
0.01
0.01
0.02
0.00
0.09
0.11
0.00
0.20
0.02
0.38
0.33
0.29
0.20
0.29
0.11
0.05
0.05
0.20
0.12
0.00
0.00
0.09
0.16
0.02
0.01
0.01
0.00
0.02
0.22
0.01
0.00
0.01
0.16
0.00
0.06
0.04
0.00
0.05
0.06
0.59
0.90
0.64
0.20
0.68
0.89
0.94
0.95
0.97
0.95
0.89
0.38
0.40
0.14
0.14
0.02
0.20
0.02
0.38
0.02
0.11
0.09
0.20
0.20
0.38
0.20
0.49
0.54
0.24
0.58
0.56
0.55
0.50
0.54
0.40
0.29
0.09
0.02
0.09
0.01
0.04
0.01
0.01
0.01
0.19
0.00
0.01
0.16
0.02
0.08
0.09
0.14
0.49
0.57
0.78
0.93
0.95
0.97
0.98
0.98
0.98
0.97
0.67
0.92
0.92
0.57
0.54
0.34
0.45
0.74
0.71
0.79
0.73
0.85
0.81
0.86
0.87
0.87
0.89
0.92
0.93
0.94
0.95
0.96
0.96
0.97
0.97
0.97
0.97
0.95
0.94
0.90
0.89
0.71
0.63
0.25
0.34
0.22
0.55
0.25
0.04
0.08
0.02
0.00
0.40
0.00
0.02
0.05
0.24
0.18
0.24
0.09
0.29
0.49
0.08
0.40
0.57
0.24
0.06
0.58
0.56
0.40
0.33
0.49
0.02
0.42
0.38
0.40
0.24
0.42
0.45
0.33
0.45
0.45
0.51
0.51
0.56
0.55
0.58
0.61
0.61
0.58
0.57
0.58
0.61
0.61
0.61
0.55
0.49
0.42
0.29
0.33
0.00
0.29
0.09
0.08
0.33
0.05
0.20
0.02
0.24
0.14
0.11
0.11
0.38
0.25
0.49
0.18
0.29
0.14
0.11
0.09
0.20
0.14
0.24
0.14
0.11
0.02
0.14
0.02
0.11
0.01
0.00
0.30
0.01
0.12
0.00
0.05
0.38
0.18
0.18
0.20
0.24
0.24
0.18
0.24
0.12
0.09
0.78
0.57
0.61
0.71
0.66
0.60
0.46
0.29
0.24
0.45
0.01
0.09
0.09
0.14
0.05
0.14
0.02
0.09
0.00
0.11
0.02
0.14
0.14
0.06
0.05
0.33
0.09
0.46
0.40
0.49
0.49
0.14
0.55
0.49
0.45
0.33
0.45
0.14
0.14
0.11
0.20
0.12
0.14
0.06
0.09
0.01
0.05
0.02
0.00
0.06
0.05
0.01
0.08
0.14
0.01
0.01
0.01
0.00
0.02
0.04
0.01
0.00
0.05
0.25
0.09
0.04
0.01
0.01
0.00
0.38
0.08
0.16
0.38
0.58
0.58
0.58
0.61
0.57
0.61
0.00
0.12
0.02
0.51
0.61
0.57
0.59
0.06
0.29
0.14
0.11
0.05
0.05
0.14
0.09
0.29
0.12
0.46
0.24
0.33
0.29
0.45
0.38
0.29
0.24
0.14
0.29
0.00
0.34
0.01
0.34
0.25
0.58
0.34
0.25
0.02
0.55
0.01
0.02
0.01
0.01
0.08
0.00
0.01
0.02
0.01
0.00
0.01
0.34
0.06
0.02
0.01
0.01
0.01
0.00
0.00
0.02
0.38
0.02
0.02
0.00
0.01
0.01
0.00
0.12
0.05
0.00
0.00
0.09
0.12
0.00
0.01
0.00
0.01
0.02
0.02
0.01
0.00
0.25
0.01
0.52
0.02
0.55
0.16
0.16
0.00
0.02
0.02
0.01
0.05
0.00
0.16
0.18
0.02
0.00
0.30
0.58
0.89
0.61
0.65
0.66
0.71
0.61
0.33
0.20
0.02
0.29
0.02
0.02
0.01
0.00
0.01
0.01
0.12
0.02
0.01
0.05
0.16
0.01
0.02
0.00
0.02
0.02
0.11
0.06
0.46
0.40
0.38
0.33
0.42
0.38
0.33
0.24
0.42
0.00
0.02
0.05
0.02
0.02
0.04
0.05
0.01
0.01
0.01
0.02
0.06
0.16
0.02
0.02
0.00
0.01
0.02
0.00
0.00
0.00
0.05
0.01
0.20
0.04
0.16
0.02
0.33
0.40
0.61
0.61
0.61
0.53
0.34
0.82
0.82
0.68
0.49
0.63
0.63
0.60
0.56
0.05
0.24
0.09
0.05
0.01
0.02
0.00
0.01
0.00
0.01
0.02
0.24
0.01
0.14
0.20
0.01
0.20
0.01
0.01
0.04
0.22
0.41
0.66
0.22
0.58
0.22
0.58
0.22
0.38
0.16
0.08
0.22
0.16
0.12
0.04
0.30
0.22
0.34
0.25
0.16
0.25
0.08
0.08
0.04
0.01
0.41
0.00
0.08
0.12
0.08
0.02
0.38
0.58
0.57
0.61
0.02
0.92
0.99
1.00
1.00
1.00
1.00
0.97
0.94
0.98
0.99
0.99
0.95
0.86
0.38
0.55
0.58
0.59
0.57
0.60
0.61
0.64
0.71
0.78
0.89
0.90
0.93
0.96
0.94
0.97
0.97
0.98
0.98
0.98
0.98
0.97
0.97
0.94
0.93
0.75
0.61
0.61
0.56
0.46
0.38
0.02
0.02
0.05
0.01
0.00
0.00
0.66
0.81
0.95
0.69
0.67
0.61
0.58
0.42
0.12
0.00
0.22
0.01
0.16
0.08
0.04
0.16
0.04
0.30
0.25
0.22
0.34
0.49
0.49
0.58
0.66
0.68
0.68
0.71
0.75
0.72
0.75
0.70
0.68
0.64
0.34
0.25
0.19
0.12
0.04
0.41
0.12
0.00
0.30
0.16
0.04
0.22
0.16
0.22
0.16
0.02
0.02
0.16
0.04
0.12
0.30
0.12
0.19
0.12
0.12
0.30
0.12
0.66
0.30
0.60
0.52
0.34
0.38
0.19
0.04
0.04
0.04
0.01
0.01
0.00
0.02
0.01
0.04
0.30
0.71
0.82
0.59
0.57
0.61
0.59
0.42
0.00
0.01
0.04
0.00
0.25
0.25
0.16
0.12
0.25
0.22
0.00
0.60
0.04
0.19
0.19
0.12
0.12
0.01
0.30
0.01
0.02
0.14
0.12
0.24
0.02
0.06
0.05
0.11
0.12
0.02
0.12
0.01
0.08
0.08
0.00
0.49
0.01
0.01
0.04
0.00
0.16
0.01
0.01
0.19
0.02
0.01
0.04
0.02
0.08
0.01
0.25
0.00
0.02
0.04
0.22
0.12
0.01
0.34
0.16
0.22
0.30
0.04
0.45
0.30
0.63
0.30
0.30
0.08
0.01
0.04
0.09
0.00
0.08
0.05
0.01
0.12
0.05
0.55
0.63
0.87
0.56
0.70
0.61
0.61
0.51
0.01
0.02
0.04
0.01
0.08
0.00
0.16
0.00
0.38
0.08
0.12
0.16
0.04
0.19
0.04
0.08
0.00
0.01
0.02
0.04
0.09
0.06
0.20
0.11
0.33
0.05
0.20
0.02
0.05
0.04
0.14
0.22
0.02
0.04
0.08
0.01
0.30
0.00
0.19
0.00
0.01
0.52
0.00
0.16
0.02
0.04
0.34
0.08
0.30
0.08
0.25
0.04
0.19
0.25
0.12
0.19
0.16
0.02
0.01
0.49
0.01
0.63
0.00
0.57
0.87
0.90
0.61
0.16
0.80
0.95
0.95
0.95
0.92
0.75
0.58
0.45
0.46
0.38
0.11
0.11
0.05
0.06
0.06
0.02
0.42
0.00
0.38
0.46
0.42
0.46
0.49
0.53
0.51
0.53
0.24
0.49
0.29
0.11
0.30
0.05
0.16
0.22
0.19
0.34
0.19
0.08
0.19
0.19
0.00
0.45
0.01
0.08
0.19
0.04
0.12
0.25
0.01
0.49
0.08
0.08
0.08
0.25
0.12
0.19
0.19
0.16
0.16
0.16
0.08
0.08
0.00
0.12
0.02
0.05
0.02
0.00
0.01
0.01
0.01
0.00
0.00
0.00
0.02
0.00
0.01
0.01
0.08
0.02
0.01
0.02
0.01
0.00
0.08
0.22
0.08
0.25
0.12
0.71
0.01
0.30
0.00
0.01
0.06
0.01
0.01
0.05
0.50
0.24
0.61
0.71
0.90
0.93
0.65
0.75
0.56
0.53
0.40
0.56
0.11
0.12
0.38
0.01
0.19
0.16
0.12
0.22
0.19
0.30
0.25
0.30
0.52
0.12
0.41
0.30
0.38
0.38
0.49
0.49
0.49
0.52
0.64
0.64
0.69
0.58
0.71
0.68
0.45
0.52
0.30
0.16
0.12
0.02
0.01
0.01
0.01
0.02
0.01
0.11
0.00
0.01
0.09
0.16
0.14
0.02
0.01
0.02
0.02
0.02
0.01
0.01
0.02
0.01
0.18
0.01
0.02
0.06
0.00
0.14
0.02
0.00
0.01
0.00
0.08
0.01
0.19
0.34
0.00
0.01
0.05
0.05
0.11
0.01
0.14
0.09
0.09
0.14
0.02
0.05
0.02
0.75
0.16
0.57
0.69
0.77
0.59
0.58
0.14
0.11
0.49
0.06
0.09
0.38
0.09
0.09
0.06
0.18
0.20
0.14
0.18
0.09
0.20
0.49
0.29
0.42
0.20
0.50
0.53
0.56
0.56
0.58
0.55
0.58
0.42
0.58
0.42
0.38
0.20
0.14
0.01
0.14
0.01
0.02
0.05
0.02
0.18
0.25
0.40
0.05
0.02
0.09
0.02
0.09
0.02
0.04
0.09
0.01
0.00
0.01
0.00
0.06
0.01
0.04
0.02
0.01
0.02
0.01
0.02
0.12
0.02
0.04
0.02
0.25
0.12
0.01
0.00
0.20
0.01
0.24
0.20
0.24
0.38
0.45
0.20
0.24
0.01
0.02
0.86
0.60
0.77
0.61
0.61
0.57
0.33
0.40
0.14
0.18
0.09
0.20
0.24
0.02
0.33
0.24
0.01
0.40
0.24
0.02
0.29
0.18
0.29
0.33
0.38
0.46
0.54
0.45
0.53
0.56
0.56
0.53
0.49
0.45
0.18
0.24
0.05
0.05
0.01
0.01
0.11
0.00
0.16
0.06
0.01
0.00
0.02
0.01
0.02
0.02
0.06
0.02
0.02
0.00
0.24
0.05
0.06
0.14
0.02
0.09
0.14
0.00
0.11
0.14
0.18
0.06
0.33
0.02
0.14
0.01
0.06
0.00
0.00
0.01
0.00
0.25
0.01
0.01
0.02
0.38
0.04
0.20
0.06
0.09
0.14
0.09
0.18
0.00
0.16
0.22
0.89
0.60
0.78
0.81
0.75
0.56
0.24
0.09
0.20
0.05
0.05
0.02
0.02
0.02
0.14
0.30
0.11
0.01
0.01
0.02
0.00
0.01
0.02
0.02
0.02
0.02
0.11
0.14
0.29
0.14
0.50
0.40
0.46
0.38
0.20
0.14
0.18
0.04
0.02
0.02
0.12
0.02
0.06
0.34
0.05
0.01
0.01
0.01
0.01
0.01
0.01
0.02
0.05
0.12
0.01
0.00
0.06
0.01
0.02
0.00
0.01
0.02
0.02
0.02
0.02
0.09
0.02
0.11
0.24
0.12
0.06
0.11
0.02
0.00
0.01
0.00
0.00
0.16
0.12
0.00
0.01
0.02
0.40
0.09
0.11
0.11
0.33
0.49
0.02
0.00
0.06
0.38
0.87
0.64
0.61
0.56
0.40
0.59
0.50
0.18
0.09
0.14
0.11
0.06
0.06
0.09
0.05
0.11
0.06
0.14
0.00
0.42
0.11
0.42
0.11
0.42
0.49
0.49
0.49
0.56
0.55
0.58
0.58
0.60
0.56
0.54
0.46
0.40
0.11
0.09
0.02
0.02
0.01
0.02
0.00
0.01
0.01
0.05
0.00
0.00
0.01
0.01
0.01
0.00
0.02
0.00
0.02
0.02
0.11
0.38
0.14
0.02
0.05
0.02
0.01
0.09
0.01
0.02
0.01
0.00
0.00
0.05
0.30
0.01
0.02
0.01
0.02
0.00
0.08
0.04
0.01
0.25
0.30
0.30
0.04
0.60
0.14
0.02
0.00
0.01
0.01
0.01
0.02
0.01
0.11
0.22
0.22
0.74
0.66
0.61
0.82
0.71
0.60
0.53
0.14
0.18
0.02
0.05
0.11
0.04
0.05
0.05
0.02
0.09
0.06
0.19
0.18
0.01
0.05
0.02
0.06
0.11
0.14
0.18
0.42
0.40
0.50
0.55
0.40
0.51
0.50
0.42
0.29
0.14
0.01
0.01
0.01
0.01
0.01
0.00
0.00
0.02
0.00
0.04
0.09
0.22
0.05
0.01
0.01
0.01
0.00
0.00
0.00
0.00
0.01
0.01
0.25
0.01
0.00
0.00
0.00
0.06
0.16
0.01
0.02
0.00
0.00
0.01
0.01
0.01
0.19
0.14
0.34
0.01
0.12
0.01
0.41
0.19
0.04
0.12
0.14
0.02
0.18
0.02
0.05
0.11
0.02
0.38
0.09
0.12
0.01
0.82
0.59
0.61
0.67
0.61
0.61
0.29
0.42
0.18
0.00
0.33
0.02
0.05
0.06
0.09
0.02
0.02
0.14
0.02
0.06
0.09
0.09
0.46
0.11
0.29
0.45
0.33
0.45
0.50
0.49
0.50
0.49
0.53
0.42
0.33
0.18
0.11
0.05
0.18
0.01
0.16
0.05
0.00
0.00
0.00
0.02
0.00
0.00
0.01
0.04
0.00
0.01
0.01
0.00
0.05
0.19
0.02
0.02
0.00
0.02
0.00
0.00
0.00
0.01
0.02
0.12
0.09
0.22
0.11
0.00
0.00
0.01
0.01
0.01
0.00
0.01
0.01
0.12
0.00
0.08
0.16
0.02
0.02
0.06
0.19
0.20
0.09
0.05
0.05
0.09
0.06
0.02
0.09
0.12
0.64
0.77
0.59
0.71
0.65
0.59
0.57
0.02
0.11
0.05
0.06
0.02
0.06
0.01
0.01
0.01
0.05
0.02
0.02
0.06
0.25
0.11
0.01
0.02
0.01
0.02
0.05
0.11
0.24
0.24
0.29
0.38
0.49
0.33
0.06
0.46
0.20
0.06
0.05
0.02
0.01
0.01
0.01
0.01
0.01
0.00
0.06
0.60
0.18
0.01
0.00
0.00
0.01
0.01
0.01
0.00
0.01
0.01
0.00
0.01
0.05
0.16
0.02
0.01
0.02
0.00
0.01
0.02
0.00
0.04
0.00
0.02
0.02
0.04
0.12
0.12
0.30
0.19
0.45
0.25
0.22
0.02
0.01
0.01
0.00
0.00
0.00
0.02
0.05
0.02
0.01
0.38
0.64
0.80
0.58
0.69
0.65
0.60
0.58
0.02
0.02
0.02
0.01
0.02
0.00
0.02
0.01
0.00
0.01
0.00
0.00
0.02
0.02
0.01
0.01
0.00
0.01
0.02
0.02
0.05
0.24
0.01
0.53
0.20
0.45
0.14
0.18
0.09
0.05
0.01
0.01
0.00
0.01
0.04
0.01
0.41
0.05
0.08
0.01
0.02
0.02
0.02
0.08
0.01
0.08
0.01
0.08
0.12
0.08
0.12
0.04
0.04
0.34
0.08
0.01
0.12
0.08
0.02
0.02
0.16
0.04
0.12
0.04
0.04
0.08
0.08
0.12
0.34
0.01
0.25
0.08
0.63
0.19
0.04
0.00
0.02
0.02
0.01
0.01
0.01
0.01
0.01
0.01
0.01
0.12
0.58
0.82
0.61
0.69
0.65
0.63
0.58
0.11
0.14
0.06
0.06
0.05
0.02
0.00
0.14
0.02
0.06
0.11
0.12
0.05
0.01
0.01
0.05
0.05
0.06
0.06
0.14
0.24
0.46
0.46
0.42
0.49
0.53
0.49
0.42
0.24
0.14
0.09
0.02
0.02
0.01
0.01
0.02
0.22
0.01
0.00
0.01
0.01
0.01
0.01
0.00
0.01
0.01
0.01
0.08
0.01
0.01
0.04
0.06
0.01
0.06
0.00
0.14
0.60
0.82
0.73
0.09
0.45
0.85
0.92
0.95
0.96
0.94
0.89
0.02
0.33
0.19
0.11
0.00
0.01
0.04
0.01
0.06
0.02
0.14
0.40
0.45
0.46
0.50
0.53
0.56
0.58
0.58
0.61
0.61
0.59
0.53
0.55
0.50
0.49
0.14
0.14
0.09
0.02
0.01
0.01
0.01
0.02
0.00
0.01
0.00
0.00
0.06
0.30
0.00
0.02
0.02
0.00
0.00
0.00
0.00
0.00
0.01
0.01
0.00
0.01
0.01
0.02
0.01
0.01
0.00
0.01
0.06
0.01
0.02
0.02
0.02
0.02
0.02
0.00
0.01
0.01
0.02
0.01
0.01
0.01
0.01
0.01
0.06
0.00
0.00
0.02
0.30
0.18
0.02
0.02
0.00
0.01
0.00
0.01
0.00
0.01
0.00
0.01
0.02
0.00
0.02
0.02
0.01
0.02
0.00
0.12
0.00
0.65
0.01
0.60
0.34
0.19
0.04
0.00
0.01
0.06
0.09
0.02
0.09
0.14
0.09
0.42
0.05
0.22
0.66
0.56
0.57
0.63
0.58
0.58
0.40
0.09
0.14
0.05
0.05
0.02
0.09
0.02
0.02
0.02
0.05
0.02
0.05
0.05
0.06
0.06
0.14
0.42
0.00
0.29
0.29
0.33
0.33
0.42
0.42
0.33
0.40
0.29
0.40
0.29
0.29
0.18
0.18
0.05
0.02
0.06
0.01
0.02
0.01
0.09
0.41
0.09
0.01
0.01
0.00
0.00
0.01
0.01
0.00
0.00
0.01
0.01
0.05
0.46
0.61
0.61
0.56
0.58
0.95
1.00
1.00
1.00
1.00
0.98
0.95
0.95
0.99
1.00
0.98
0.95
0.58
0.24
0.49
0.58
0.57
0.57
0.59
0.61
0.63
0.70
0.80
0.85
0.92
0.94
0.95
0.97
0.97
0.97
0.98
0.98
0.98
0.97
0.97
0.94
0.90
0.80
0.63
0.61
0.51
0.33
0.24
0.11
0.04
0.02
0.00
0.01
0.00
0.00
0.00
0.01
0.01
0.00
0.01
0.00
0.01
0.00
0.01
0.01
0.01
0.00
0.01
0.05
0.25
0.08
0.01
0.01
0.01
0.00
0.00
0.01
0.01
0.00
0.01
0.00
0.01
0.02
0.02
0.02
0.00
0.02
0.05
0.02
0.02
0.01
0.01
0.01
0.00
0.00
0.00
0.00
0.01
0.00
0.01
0.00
0.01
0.08
0.52
0.02
0.08
0.68
0.12
0.16
0.08
0.00
0.01
0.02
0.00
0.02
0.00
0.01
0.14
0.22
0.04
0.63
0.89
0.61
0.61
0.61
0.61
0.58
0.05
0.05
0.01
0.02
0.00
0.11
0.22
0.00
0.04
0.08
0.02
0.16
0.08
0.08
0.04
0.19
0.02
0.12
0.02
0.00
0.01
0.01
0.02
0.06
0.05
0.06
0.14
0.05
0.14
0.09
0.06
0.06
0.00
0.01
0.02
0.02
0.02
0.30
0.00
0.12
0.02
0.01
0.16
0.08
0.00
0.08
0.04
0.08
0.02
0.04
0.02
0.08
0.08
0.08
0.12
0.04
0.19
0.04
0.49
0.01
0.08
0.25
0.25
0.25
0.25
0.49
0.45
0.22
0.16
0.01
0.01
0.01
0.01
0.02
0.14
0.12
0.02
0.02
0.00
0.04
0.85
0.24
0.57
0.63
0.70
0.59
0.42
0.14
0.14
0.24
0.02
0.05
0.14
0.01
0.02
0.02
0.02
0.01
0.01
0.01
0.00
0.01
0.01
0.02
0.09
0.06
0.38
0.04
0.46
0.38
0.42
0.45
0.46
0.11
0.33
0.24
0.05
0.05
0.01
0.01
0.04
0.01
0.01
0.01
0.08
0.00
0.00
0.01
0.05
0.16
0.02
0.01
0.01
0.00
0.00
0.01
0.01
0.00
0.34
0.06
0.04
0.00
0.01
0.01
0.14
0.30
0.06
0.22
0.05
0.61
0.93
0.93
0.61
0.49
0.70
0.94
0.95
0.94
0.83
0.63
0.58
0.58
0.58
0.24
0.14
0.09
0.11
0.09
0.14
0.05
0.40
0.06
0.38
0.53
0.11
0.58
0.49
0.53
0.56
0.53
0.53
0.49
0.38
0.18
0.05
0.02
0.04
0.01
0.01
0.12
0.12
0.01
0.02
0.01
0.08
0.14
0.12
0.00
0.02
0.02
0.00
0.00
0.01
0.00
0.00
0.00
0.01
0.00
0.02
0.00
0.04
0.00
0.00
0.04
0.00
0.02
0.01
0.12
0.05
0.08
0.02
0.01
0.02
0.01
0.02
0.01
0.02
0.01
0.02
0.05
0.01
0.06
0.01
0.05
0.06
0.02
0.02
0.38
0.01
0.34
0.12
0.01
0.01
0.05
0.05
0.09
0.02
0.06
0.14
0.09
0.14
0.29
0.06
0.25
0.82
0.57
0.60
0.61
0.60
0.57
0.24
0.24
0.14
0.02
0.05
0.02
0.01
0.01
0.02
0.11
0.22
0.01
0.08
0.02
0.04
0.16
0.02
0.04
0.00
0.00
0.01
0.02
0.02
0.06
0.09
0.14
0.06
0.24
0.33
0.01
0.38
0.05
0.05
0.02
0.01
0.01
0.00
0.01
0.01
0.00
0.01
0.02
0.02
0.04
0.02
0.02
0.04
0.12
0.01
0.25
0.04
0.04
0.02
0.01
0.04
0.12
0.02
0.19
0.16
0.22
0.08
0.41
0.19
0.49
0.25
0.19
0.12
0.01
0.00
0.01
0.01
0.01
0.06
0.01
0.01
0.14
0.08
0.38
0.82
0.58
0.64
0.66
0.63
0.61
0.11
0.18
0.09
0.00
0.18
0.01
0.02
0.01
0.01
0.00
0.01
0.16
0.02
0.01
0.01
0.02
0.02
0.00
0.00
0.01
0.02
0.16
0.29
0.11
0.14
0.20
0.18
0.06
0.09
0.02
0.02
0.00
0.01
0.01
0.19
0.00
0.04
0.02
0.12
0.00
0.16
0.02
0.04
0.00
0.00
0.01
0.00
0.00
0.00
0.00
0.01
0.00
0.08
0.02
0.02
0.00
0.00
0.02
0.00
0.02
0.22
0.04
0.34
0.25
0.12
0.00
0.01
0.02
0.01
0.01
0.01
0.02
0.01
0.00
0.12
0.18
0.41
0.71
0.68
0.61
0.61
0.64
0.58
0.53
0.01
0.01
0.00
0.01
0.04
0.01
0.22
0.02
0.19
0.08
0.01
0.08
0.12
0.01
0.16
0.08
0.01
0.01
0.00
0.02
0.04
0.38
0.14
0.24
0.20
0.29
0.14
0.14
0.06
0.01
0.00
0.00
0.12
0.01
0.08
0.08
0.45
0.02
0.04
0.04
0.00
0.00
0.02
0.01
0.01
0.01
0.01
0.01
0.16
0.01
0.01
0.00
0.34
0.02
0.04
0.02
0.01
0.04
0.30
0.04
0.25
0.12
0.58
0.49
0.04
0.12
0.00
0.01
0.02
0.01
0.00
0.02
0.01
0.05
0.01
0.04
0.04
0.79
0.09
0.59
0.61
0.69
0.61
0.49
0.02
0.00
0.00
0.01
0.04
0.04
0.02
0.01
0.02
0.00
0.16
0.05
0.19
0.00
0.00
0.00
0.01
0.02
0.02
0.14
0.20
0.29
0.38
0.40
0.49
0.38
0.54
0.24
0.20
0.18
0.05
0.05
0.01
0.01
0.00
0.00
0.00
0.02
0.06
0.01
0.00
0.02
0.00
0.04
0.02
0.04
0.12
0.01
0.01
0.02
0.00
0.02
0.00
0.19
0.06
0.12
0.00
0.00
0.00
0.00
0.00
0.00
0.08
0.01
0.12
0.00
0.22
0.16
0.04
0.00
0.05
0.02
0.20
0.00
0.06
0.06
0.02
0.02
0.02
0.00
0.19
0.83
0.40
0.56
0.65
0.70
0.58
0.45
0.00
0.38
0.06
0.00
0.05
0.05
0.02
0.02
0.05
0.01
0.05
0.06
0.09
0.05
0.02
0.09
0.18
0.29
0.11
0.42
0.49
0.45
0.53
0.50
0.53
0.51
0.49
0.33
0.24
0.11
0.09
0.06
0.09
0.08
0.02
0.02
0.01
0.01
0.01
0.02
0.04
0.09
0.01
0.00
0.02
0.00
0.01
0.00
0.05
0.04
0.01
0.02
0.01
0.02
0.01
0.02
0.06
0.01
0.12
0.01
0.38
0.20
0.61
0.91
0.86
0.56
0.02
0.82
0.95
0.95
0.95
0.89
0.77
0.29
0.58
0.49
0.49
0.24
0.24
0.38
0.38
0.38
0.54
0.38
0.50
0.55
0.58
0.58
0.61
0.61
0.59
0.58
0.57
0.57
0.61
0.61
0.55
0.55
0.11
0.49
0.05
0.02
0.02
0.01
0.01
0.01
0.01
0.00
0.01
0.01
0.01
0.06
0.16
0.14
0.04
0.01
0.01
0.01
0.01
0.00
0.01
0.01
0.02
0.01
0.02
0.02
0.01
0.02
0.02
0.02
0.09
0.01
0.12
0.05
0.02
0.05
0.00
0.02
0.01
0.02
0.05
0.01
0.01
0.02
0.01
0.02
0.02
0.06
0.06
0.16
0.24
0.01
0.00
0.12
0.00
0.08
0.16
0.45
0.04
0.04
0.00
0.02
0.09
0.08
0.02
0.02
0.06
0.06
0.01
0.02
0.25
0.71
0.75
0.60
0.70
0.70
0.59
0.58
0.02
0.09
0.09
0.02
0.01
0.02
0.41
0.09
0.01
0.08
0.04
0.08
0.04
0.04
0.16
0.16
0.16
0.08
0.08
0.02
0.12
0.01
0.09
0.41
0.42
0.05
0.06
0.09
0.18
0.09
0.06
0.00
0.01
0.00
0.04
0.12
0.04
0.12
0.01
0.34
0.16
0.00
0.04
0.04
0.00
0.12
0.08
0.02
0.04
0.04
0.04
0.01
0.16
0.01
0.49
0.02
0.02
0.45
0.04
0.30
0.19
0.38
0.38
0.55
0.58
0.22
0.30
0.08
0.00
0.01
0.34
0.09
0.01
0.01
0.08
0.02
0.01
0.34
0.76
0.19
0.61
0.71
0.70
0.59
0.45
0.02
0.01
0.14
0.00
0.01
0.00
0.01
0.01
0.02
0.02
0.00
0.02
0.00
0.00
0.01
0.01
0.09
0.08
0.02
0.06
0.11
0.11
0.33
0.33
0.40
0.20
0.33
0.09
0.09
0.00
0.00
0.02
0.16
0.04
0.02
0.16
0.12
0.04
0.08
0.16
0.04
0.04
0.25
0.01
0.08
0.34
0.01
0.16
0.04
0.19
0.12
0.19
0.16
0.08
0.12
0.19
0.12
0.12
0.38
0.02
0.41
0.18
0.22
0.04
0.45
0.01
0.60
0.90
0.88
0.57
0.16
0.80
0.95
0.95
0.95
0.94
0.83
0.33
0.51
0.45
0.24
0.06
0.05
0.06
0.06
0.05
0.09
0.09
0.20
0.29
0.40
0.54
0.14
0.56
0.58
0.50
0.58
0.56
0.53
0.46
0.38
0.06
0.02
0.02
0.02
0.02
0.22
0.22
0.04
0.04
0.22
0.12
0.04
0.00
0.00
0.12
0.01
0.00
0.01
0.12
0.01
0.04
0.02
0.04
0.00
0.52
0.01
0.01
0.16
0.01
0.12
0.12
0.08
0.04
0.01
0.30
0.01
0.04
0.04
0.01
0.02
0.05
0.19
0.02
0.00
0.04
0.01
0.08
0.01
0.02
0.01
0.00
0.04
0.00
0.00
0.01
0.02
0.02
0.02
0.52
0.01
0.04
0.19
0.16
0.49
0.04
0.02
0.00
0.09
0.06
0.05
0.02
0.09
0.18
0.02
0.24
0.00
0.02
0.04
0.78
0.57
0.63
0.61
0.59
0.61
0.14
0.33
0.02
0.06
0.02
0.02
0.05
0.02
0.02
0.06
0.00
0.24
0.00
0.11
0.06
0.06
0.09
0.29
0.18
0.20
0.33
0.42
0.38
0.45
0.46
0.45
0.49
0.49
0.29
0.38
0.18
0.20
0.05
0.02
0.01
0.02
0.00
0.02
0.00
0.01
0.00
0.00
0.01
0.06
0.01
0.09
0.00
0.00
0.02
0.01
0.02
0.02
0.02
0.00
0.02
0.02
0.01
0.02
0.01
0.01
0.00
0.02
0.00
0.01
0.52
0.30
0.02
0.12
0.01
0.05
0.05
0.01
0.20
0.05
0.11
0.06
0.14
0.06
0.02
0.73
0.68
0.64
0.78
0.78
0.63
0.60
0.11
0.14
0.11
0.01
0.05
0.02
0.01
0.02
0.01
0.01
0.00
0.02
0.16
0.05
0.02
0.01
0.00
0.00
0.01
0.01
0.09
0.05
0.20
0.29
0.06
0.45
0.29
0.33
0.24
0.01
0.24
0.02
0.02
0.00
0.01
0.02
0.01
0.01
0.01
0.00
0.01
0.02
0.02
0.00
0.05
0.05
0.01
0.01
0.02
0.01
0.00
0.02
0.01
0.01
0.02
0.00
0.01
0.01
0.00
0.02
0.08
0.04
0.04
0.19
0.38
0.55
0.38
0.55
0.38
0.41
0.02
0.42
0.01
0.02
0.41
0.74
0.93
0.93
0.94
0.89
0.79
0.30
0.01
0.14
0.24
0.38
0.45
0.49
0.54
0.45
0.54
0.59
0.58
0.61
0.57
0.57
0.58
0.58
0.61
0.63
0.60
0.61
0.61
0.61
0.60
0.57
0.58
0.61
0.50
0.38
0.14
0.06
0.01
0.01
0.01
0.01
0.01
0.00
0.00
0.00
0.02
0.01
0.25
0.04
0.00
0.00
0.01
0.00
0.02
0.00
0.00
0.01
0.00
0.00
0.00
0.00
0.01
0.01
0.34
0.06
0.02
0.02
0.16
0.02
0.00
0.00
0.02
0.00
0.08
0.02
0.08
0.16
0.02
0.34
0.25
0.41
0.19
0.01
0.16
0.02
0.02
0.01
0.05
0.01
0.01
0.01
0.02
0.00
0.38
0.69
0.82
0.58
0.73
0.65
0.61
0.38
0.09
0.02
0.00
0.00
0.00
0.00
0.00
0.16
0.00
0.02
0.02
0.08
0.08
0.08
0.08
0.02
0.08
0.02
0.00
0.00
0.05
0.02
0.09
0.14
0.20
0.20
0.29
0.11
0.11
0.05
0.02
0.04
0.01
0.02
0.04
0.00
0.16
0.16
0.12
0.12
0.12
0.04
0.22
0.12
0.01
0.41
0.04
0.19
0.16
0.04
0.19
0.02
0.12
0.19
0.08
0.04
0.04
0.12
0.04
0.02
0.04
0.22
0.04
0.22
0.25
0.41
0.22
0.04
0.01
0.33
0.00
0.02
0.02
0.02
0.06
0.02
0.05
0.09
0.12
0.52
0.82
0.61
0.73
0.63
0.64
0.56
0.02
0.11
0.01
0.00
0.00
0.02
0.04
0.02
0.00
0.02
0.02
0.02
0.01
0.00
0.02
0.01
0.02
0.01
0.11
0.06
0.14
0.38
0.42
0.45
0.49
0.53
0.49
0.40
0.38
0.20
0.09
0.11
0.01
0.18
0.02
0.01
0.01
0.02
0.00
0.02
0.02
0.01
0.01
0.01
0.01
0.01
0.01
0.01
0.01
0.00
0.02
0.09
0.08
0.02
0.00
0.01
0.00
0.00
0.01
0.00
0.00
0.00
0.01
0.00
0.00
0.01
0.02
0.01
0.19
0.02
0.55
0.22
0.00
0.01
0.00
0.01
0.00
0.00
0.02
0.01
0.01
0.01
0.02
0.34
0.65
0.84
0.58
0.67
0.66
0.58
0.56
0.24
0.05
0.00
0.01
0.01
0.01
0.01
0.01
0.01
0.00
0.01
0.00
0.01
0.01
0.05
0.05
0.02
0.09
0.14
0.02
0.45
0.38
0.49
0.33
0.49
0.49
0.24
0.29
0.11
0.05
0.02
0.01
0.02
0.00
0.00
0.00
0.01
0.02
0.02
0.01
0.19
0.02
0.02
0.02
0.01
0.00
0.00
0.08
0.04
0.04
0.01
0.08
0.01
0.08
0.08
0.01
0.34
0.01
0.08
0.02
0.00
0.02
0.12
0.02
0.34
0.12
0.08
0.12
0.30
0.19
0.45
0.30
0.04
0.12
0.01
0.01
0.01
0.01
0.01
0.02
0.02
0.06
0.05
0.04
0.72
0.75
0.61
0.78
0.71
0.58
0.61
0.14
0.06
0.02
0.02
0.05
0.00
0.00
0.00
0.01
0.00
0.00
0.01
0.12
0.22
0.14
0.02
0.01
0.00
0.00
0.01
0.02
0.06
0.06
0.24
0.33
0.24
0.29
0.14
0.14
0.11
0.02
0.02
0.02
0.01
0.00
0.09
0.00
0.01
0.01
0.01
0.01
0.00
0.01
0.00
0.00
0.00
0.01
0.00
0.01
0.00
0.01
0.12
0.02
0.02
0.34
0.05
0.01
0.01
0.00
0.02
0.00
0.00
0.00
0.01
0.01
0.00
0.02
0.04
0.00
0.02
0.01
0.34
0.16
0.01
0.04
0.14
0.02
0.02
0.02
0.02
0.02
0.05
0.02
0.01
0.30
0.45
0.89
0.59
0.71
0.81
0.77
0.58
0.09
0.14
0.02
0.06
0.01
0.02
0.00
0.02
0.00
0.02
0.00
0.01
0.01
0.00
0.01
0.01
0.00
0.04
0.01
0.01
0.14
0.52
0.38
0.14
0.09
0.20
0.18
0.18
0.11
0.06
0.05
0.01
0.01
0.01
0.02
0.04
0.04
0.01
0.55
0.01
0.08
0.00
0.08
0.02
0.12
0.08
0.04
0.12
0.02
0.08
0.04
0.19
0.02
0.12
0.12
0.16
0.12
0.12
0.02
0.04
0.16
0.01
0.04
0.04
0.00
0.12
0.16
0.08
0.08
0.22
0.16
0.16
0.02
0.69
0.30
0.04
0.02
0.00
0.01
0.02
0.00
0.02
0.01
0.01
0.02
0.00
0.30
0.38
0.87
0.50
0.71
0.70
0.78
0.58
0.20
0.06
0.02
0.02
0.01
0.01
0.01
0.02
0.00
0.14
0.22
0.06
0.01
0.01
0.02
0.00
0.01
0.05
0.02
0.02
0.06
0.11
0.24
0.33
0.29
0.45
0.33
0.46
0.02
0.46
0.14
0.01
0.11
0.02
0.01
0.01
0.01
0.00
0.00
0.01
0.01
0.00
0.09
0.02
0.02
0.01
0.00
0.01
0.01
0.01
0.22
0.02
0.01
0.00
0.00
0.11
0.38
0.05
0.02
0.00
0.01
0.01
0.01
0.02
0.02
0.02
0.01
0.02
0.01
0.01
0.01
0.09
0.34
0.01
0.00
0.19
0.02
0.45
0.22
0.02
0.12
0.02
0.00
0.01
0.01
0.01
0.01
0.01
0.05
0.49
0.19
0.38
0.89
0.58
0.61
0.64
0.69
0.59
0.02
0.02
0.01
0.01
0.01
0.16
0.06
0.02
0.02
0.00
0.12
0.01
0.04
0.08
0.02
0.02
0.00
0.00
0.00
0.02
0.02
0.18
0.33
0.05
0.40
0.45
0.40
0.29
0.40
0.06
0.02
0.01
0.00
0.01
0.01
0.04
0.08
0.12
0.02
0.08
0.04
0.02
0.30
0.04
0.01
0.04
0.02
0.01
0.01
0.30
0.02
0.00
0.08
0.00
0.01
0.00
0.02
0.02
0.02
0.02
0.01
0.04
0.01
0.01
0.01
0.01
0.00
0.02
0.01
0.04
0.25
0.30
0.66
0.77
0.66
0.68
0.30
0.78
0.89
0.90
0.93
0.94
0.94
0.94
0.75
0.16
0.55
0.45
0.56
0.45
0.45
0.54
0.54
0.61
0.14
0.57
0.60
0.57
0.57
0.60
0.61
0.61
0.64
0.66
0.64
0.69
0.61
0.61
0.59
0.58
0.61
0.58
0.24
0.53
0.33
0.18
0.09
0.09
0.05
0.08
0.02
0.01
0.01
0.01
0.01
0.02
0.02
0.01
0.02
0.02
0.01
0.18
0.01
0.02
0.05
0.02
0.01
0.02
0.05
0.02
0.00
0.02
0.02
0.01
0.02
0.00
0.05
0.00
0.14
0.01
0.01
0.02
0.02
0.01
0.01
0.01
0.02
0.01
0.05
0.01
0.01
0.01
0.02
0.00
0.02
0.05
0.12
0.38
0.16
0.06
0.02
0.00
0.01
0.00
0.02
0.08
0.25
0.04
0.00
0.00
0.09
0.09
0.06
0.18
0.14
0.18
0.02
0.33
0.20
0.02
0.60
0.25
0.60
0.60
0.62
0.58
0.58
0.05
0.20
0.05
0.02
0.02
0.02
0.12
0.14
0.02
0.16
0.02
0.00
0.00
0.01
0.01
0.01
0.02
0.01
0.02
0.02
0.14
0.18
0.29
0.06
0.50
0.38
0.29
0.49
0.40
0.40
0.33
0.20
0.18
0.11
0.14
0.06
0.09
0.02
0.02
0.02
0.14
0.02
0.01
0.09
0.05
0.08
0.11
0.02
0.02
0.02
0.02
0.02
0.02
0.01
0.02
0.01
0.02
0.01
0.05
0.22
0.14
0.02
0.02
0.01
0.00
0.02
0.01
0.04
0.04
0.08
0.04
0.30
0.30
0.08
0.02
0.05
0.08
0.20
0.01
0.05
0.06
0.05
0.05
0.02
0.00
0.25
0.76
0.02
0.61
0.77
0.78
0.60
0.53
0.01
0.09
0.05
0.01
0.09
0.02
0.01
0.01
0.01
0.01
0.04
0.00
0.02
0.00
0.01
0.00
0.08
0.01
0.00
0.00
0.06
0.09
0.00
0.14
0.24
0.24
0.24
0.29
0.11
0.11
0.02
0.01
0.00
0.00
0.02
0.12
0.08
0.25
0.01
0.02
0.08
0.01
0.04
0.02
0.00
0.01
0.12
0.00
0.04
0.04
0.04
0.08
0.02
0.49
0.66
0.68
0.84
0.89
0.92
0.86
0.93
0.94
0.92
0.94
0.94
0.95
0.95
0.91
0.64
0.29
0.01
0.49
0.14
0.40
0.49
0.53
0.58
0.61
0.58
0.61
0.61
0.57
0.56
0.59
0.61
0.61
0.64
0.61
0.61
0.61
0.58
0.57
0.61
0.56
0.56
0.45
0.20
0.06
0.02
0.02
0.01
0.02
0.12
0.09
0.00
0.00
0.00
0.01
0.06
0.02
0.01
0.01
0.00
0.00
0.01
0.00
0.00
0.01
0.01
0.01
0.01
0.02
0.01
0.01
0.01
0.01
0.06
0.30
0.05
0.01
0.01
0.00
0.02
0.00
0.04
0.02
0.04
0.00
0.00
0.02
0.00
0.00
0.02
0.04
0.00
0.05
0.41
0.14
0.01
0.01
0.02
0.02
0.00
0.02
0.02
0.02
0.02
0.09
0.00
0.02
0.00
0.00
0.01
0.45
0.01
0.01
0.25
0.34
0.01
0.02
0.02
0.05
0.06
0.05
0.18
0.05
0.09
0.14
0.40
0.34
0.01
0.82
0.61
0.61
0.62
0.61
0.57
0.29
0.49
0.20
0.18
0.18
0.18
0.06
0.06
0.05
0.20
0.12
0.20
0.02
0.02
0.09
0.09
0.09
0.11
0.14
0.14
0.29
0.24
0.11
0.24
0.40
0.33
0.24
0.40
0.40
0.29
0.40
0.11
0.06
0.11
0.01
0.02
0.00
0.01
0.01
0.00
0.00
0.01
0.00
0.01
0.00
0.01
0.00
0.00
0.01
0.06
0.38
0.09
0.16
0.01
0.02
0.00
0.00
0.02
0.01
0.01
0.01
0.01
0.02
0.01
0.04
0.08
0.08
0.04
0.49
0.19
0.02
0.00
0.09
0.08
0.14
0.06
0.02
0.09
0.05
0.11
0.01
0.01
0.75
0.38
0.61
0.61
0.61
0.61
0.50
0.06
0.06
0.09
0.00
0.02
0.02
0.00
0.01
0.00
0.00
0.01
0.01
0.01
0.01
0.01
0.01
0.05
0.14
0.08
0.14
0.14
0.06
0.20
0.18
0.20
0.29
0.24
0.18
0.14
0.02
0.02
0.01
0.02
0.01
0.01
0.00
0.19
0.00
0.08
0.01
0.01
0.04
0.04
0.04
0.02
0.08
0.02
0.08
0.12
0.04
0.16
0.08
0.45
0.34
0.76
0.76
0.90
0.89
0.89
0.91
0.93
0.92
0.94
0.95
0.95
0.96
0.94
0.82
0.01
0.05
0.42
0.45
0.40
0.56
0.55
0.55
0.58
0.61
0.61
0.57
0.56
0.59
0.63
0.61
0.71
0.61
0.70
0.64
0.61
0.63
0.57
0.61
0.58
0.56
0.45
0.20
0.06
0.00
0.00
0.02
0.00
0.01
0.00
0.05
0.12
0.01
0.00
0.00
0.01
0.01
0.01
0.01
0.00
0.01
0.00
0.02
0.38
0.05
0.00
0.01
0.01
0.02
0.25
0.01
0.00
0.08
0.02
0.04
0.01
0.01
0.34
0.09
0.12
0.01
0.01
0.01
0.02
0.02
0.01
0.02
0.02
0.02
0.02
0.02
0.02
0.02
0.08
0.04
0.02
0.01
0.01
0.01
0.02
0.04
0.08
0.01
0.30
0.19
0.34
0.45
0.34
0.01
0.08
0.02
0.01
0.01
0.01
0.02
0.01
0.02
0.02
0.02
0.16
0.81
0.34
0.60
0.64
0.73
0.58
0.46
0.11
0.11
0.11
0.06
0.02
0.02
0.02
0.01
0.04
0.06
0.02
0.25
0.14
0.01
0.01
0.01
0.02
0.05
0.05
0.11
0.20
0.29
0.05
0.45
0.45
0.11
0.33
0.38
0.20
0.20
0.14
0.06
0.01
0.01
0.01
0.00
0.01
0.00
0.19
0.02
0.08
0.01
0.08
0.02
0.01
0.08
0.04
0.08
0.04
0.00
0.02
0.04
0.00
0.49
0.01
0.01
0.16
0.01
0.18
0.04
0.09
0.14
0.24
0.57
0.56
0.49
0.75
0.93
0.87
0.94
0.95
0.95
0.92
0.74
0.49
0.01
0.18
0.09
0.20
0.29
0.49
0.02
0.51
0.50
0.50
0.56
0.58
0.61
0.61
0.57
0.59
0.60
0.62
0.61
0.62
0.63
0.61
0.61
0.61
0.58
0.49
0.33
0.14
0.06
0.01
0.02
0.00
0.00
0.02
0.00
0.06
0.22
0.01
0.01
0.01
0.00
0.01
0.04
0.01
0.02
0.00
0.02
0.00
0.02
0.01
0.02
0.05
0.51
0.58
0.59
0.61
0.05
0.89
0.99
1.00
1.00
1.00
1.00
0.98
0.94
0.99
0.99
0.99
0.95
0.75
0.38
0.46
0.55
0.58
0.57
0.59
0.56
0.61
0.65
0.82
0.89
0.92
0.94
0.95
0.97
0.97
0.98
0.98
0.98
0.98
0.98
0.98
0.97
0.97
0.94
0.88
0.70
0.61
0.61
0.51
0.38
0.24
0.02
0.06
0.02
0.05
0.00
0.11
0.01
0.02
0.01
0.05
0.02
0.06
0.02
0.29
0.01
0.05
0.05
0.02
0.02
0.02
0.00
0.02
0.02
0.01
0.02
0.00
0.01
0.02
0.09
0.22
0.02
0.06
0.00
0.01
0.01
0.01
0.00
0.00
0.00
0.02
0.00
0.00
0.02
0.02
0.00
0.01
0.00
0.01
0.06
0.41
0.06
0.01
0.01
0.00
0.00
0.01
0.00
0.04
0.01
0.25
0.04
0.60
0.25
0.08
0.04
0.11
0.25
0.18
0.01
0.02
0.00
0.02
0.01
0.20
0.00
0.49
0.77
0.61
0.59
0.62
0.57
0.61
0.14
0.33
0.00
0.01
0.06
0.01
0.00
0.01
0.01
0.00
0.01
0.00
0.01
0.02
0.01
0.01
0.09
0.06
0.18
0.01
0.42
0.05
0.24
0.18
0.24
0.18
0.29
0.18
0.18
0.20
0.11
0.09
0.05
0.06
0.02
0.01
0.08
0.14
0.00
0.01
0.02
0.02
0.01
0.00
0.02
0.02
0.00
0.00
0.00
0.00
0.00
0.00
0.25
0.20
0.19
0.01
0.00
0.12
0.08
0.02
0.25
0.12
0.41
0.30
0.19
0.04
0.01
0.01
0.01
0.02
0.09
0.02
0.04
0.06
0.06
0.04
0.30
0.82
0.61
0.60
0.61
0.59
0.59
0.14
0.33
0.01
0.01
0.11
0.00
0.01
0.01
0.00
0.01
0.01
0.04
0.00
0.01
0.01
0.00
0.06
0.19
0.02
0.01
0.05
0.05
0.09
0.09
0.20
0.14
0.11
0.11
0.11
0.05
0.02
0.01
0.01
0.11
0.65
0.06
0.01
0.01
0.01
0.00
0.02
0.00
0.01
0.01
0.02
0.00
0.00
0.00
0.00
0.02
0.30
0.30
0.63
0.69
0.89
0.90
0.94
0.93
0.94
0.96
0.95
0.95
0.95
0.96
0.95
0.89
0.16
0.38
0.54
0.53
0.56
0.56
0.58
0.58
0.61
0.61
0.61
0.58
0.56
0.61
0.60
0.64
0.66
0.70
0.70
0.69
0.65
0.61
0.59
0.57
0.61
0.58
0.53
0.45
0.14
0.11
0.02
0.09
0.30
0.06
0.00
0.02
0.02
0.00
0.01
0.00
0.01
0.01
0.02
0.01
0.25
0.14
0.00
0.01
0.02
0.01
0.02
0.08
0.01
0.02
0.01
0.00
0.00
0.00
0.06
0.25
0.02
0.01
0.02
0.01
0.02
0.01
0.01
0.05
0.01
0.02
0.00
0.02
0.05
0.00
0.00
0.05
0.41
0.04
0.19
0.34
0.04
0.01
0.02
0.18
0.05
0.14
0.20
0.20
0.24
0.14
0.40
0.20
0.01
0.71
0.38
0.61
0.78
0.80
0.61
0.56
0.29
0.29
0.01
0.45
0.00
0.06
0.02
0.01
0.01
0.00
0.00
0.00
0.01
0.02
0.02
0.01
0.01
0.11
0.19
0.14
0.02
0.24
0.11
0.18
0.18
0.20
0.29
0.18
0.29
0.20
0.09
0.38
0.00
0.02
0.01
0.00
0.01
0.19
0.02
0.01
0.04
0.00
0.02
0.00
0.00
0.04
0.02
0.30
0.02
0.02
0.01
0.04
0.00
0.30
0.01
0.22
0.12
0.12
0.16
0.19
0.58
0.12
0.00
0.38
0.11
0.06
0.02
0.02
0.05
0.06
0.05
0.01
0.18
0.00
0.34
0.78
0.61
0.66
0.69
0.61
0.61
0.33
0.29
0.11
0.06
0.02
0.02
0.01
0.02
0.06
0.04
0.02
0.00
0.02
0.02
0.01
0.02
0.08
0.29
0.09
0.06
0.11
0.24
0.24
0.33
0.24
0.29
0.29
0.00
0.14
0.00
0.01
0.08
0.02
0.08
0.12
0.04
0.12
0.08
0.12
0.12
0.02
0.12
0.04
0.00
0.16
0.04
0.08
0.08
0.12
0.00
0.60
0.22
0.60
0.69
0.76
0.89
0.89
0.92
0.89
0.94
0.95
0.94
0.94
0.94
0.95
0.95
0.88
0.19
0.54
0.50
0.56
0.53
0.53
0.56
0.56
0.58
0.61
0.58
0.58
0.58
0.57
0.63
0.61
0.64
0.67
0.69
0.65
0.63
0.61
0.61
0.58
0.59
0.58
0.53
0.42
0.18
0.11
0.00
0.14
0.00
0.00
0.01
0.00
0.01
0.00
0.02
0.00
0.01
0.16
0.02
0.12
0.00
0.02
0.41
0.00
0.01
0.08
0.04
0.04
0.04
0.12
0.02
0.02
0.08
0.00
0.34
0.01
0.00
0.30
0.09
0.08
0.04
0.01
0.02
0.01
0.00
0.02
0.01
0.00
0.12
0.41
0.00
0.22
0.30
0.41
0.01
0.19
0.00
0.14
0.01
0.02
0.01
0.02
0.01
0.09
0.08
0.11
0.25
0.68
0.78
0.61
0.77
0.75
0.61
0.58
0.06
0.05
0.02
0.01
0.02
0.04
0.02
0.01
0.00
0.02
0.04
0.06
0.41
0.00
0.01
0.02
0.02
0.01
0.00
0.01
0.01
0.05
0.02
0.09
0.14
0.02
0.18
0.18
0.18
0.02
0.24
0.02
0.02
0.00
0.00
0.00
0.01
0.00
0.00
0.00
0.00
0.05
0.12
0.09
0.01
0.05
0.30
0.14
0.01
0.01
0.00
0.00
0.00
0.00
0.01
0.08
0.02
0.16
0.01
0.58
0.38
0.04
0.01
0.38
0.05
0.00
0.01
0.00
0.00
0.01
0.01
0.00
0.00
0.30
0.60
0.82
0.57
0.71
0.59
0.61
0.58
0.01
0.05
0.02
0.00
0.00
0.00
0.00
0.00
0.01
0.08
0.02
0.00
0.25
0.01
0.02
0.00
0.19
0.24
0.02
0.06
0.14
0.14
0.24
0.29
0.40
0.33
0.29
0.29
0.09
0.05
0.05
0.01
0.00
0.01
0.00
0.02
0.00
0.01
0.01
0.02
0.01
0.01
0.00
0.00
0.00
0.01
0.00
0.00
0.00
0.01
0.12
0.25
0.60
0.70
0.78
0.89
0.92
0.92
0.89
0.92
0.95
0.94
0.95
0.95
0.96
0.95
0.86
0.05
0.09
0.56
0.56
0.56
0.56
0.55
0.58
0.61
0.55
0.56
0.57
0.58
0.61
0.61
0.61
0.66
0.71
0.64
0.70
0.64
0.61
0.61
0.57
0.57
0.58
0.56
0.45
0.24
0.02
0.33
0.01
0.02
0.02
0.01
0.01
0.01
0.00
0.01
0.00
0.02
0.02
0.02
0.05
0.02
0.02
0.01
0.02
0.11
0.02
0.06
0.11
0.05
0.09
0.02
0.11
0.09
0.18
0.09
0.09
0.02
0.14
0.09
0.20
0.00
0.42
0.02
0.14
0.11
0.02
0.05
0.05
0.09
0.06
0.05
0.09
0.05
0.11
0.06
0.06
0.14
0.40
0.19
0.14
0.01
0.00
0.01
0.01
0.22
0.08
0.00
0.00
0.05
0.05
0.11
0.05
0.14
0.09
0.18
0.11
0.24
0.02
0.01
0.74
0.56
0.61
0.67
0.66
0.60
0.51
0.38
0.29
0.14
0.09
0.05
0.14
0.02
0.05
0.05
0.05
0.02
0.06
0.02
0.14
0.02
0.29
0.05
0.05
0.09
0.06
0.14
0.11
0.11
0.20
0.14
0.24
0.33
0.24
0.29
0.24
0.20
0.38
0.14
0.12
0.24
0.02
0.02
0.02
0.01
0.00
0.02
0.01
0.02
0.02
0.01
0.05
0.02
0.02
0.06
0.14
0.19
0.33
0.09
0.09
0.02
0.24
0.20
0.02
0.05
0.20
0.24
0.57
0.49
0.52
0.90
0.93
0.92
0.94
0.97
0.95
0.92
0.55
0.11
0.33
0.40
0.46
0.49
0.49
0.56
0.56
0.58
0.61
0.61
0.57
0.57
0.63
0.63
0.65
0.71
0.75
0.80
0.82
0.80
0.78
0.70
0.64
0.60
0.57
0.59
0.58
0.56
0.56
0.40
0.42
0.49
0.42
0.42
0.33
0.33
0.33
0.40
0.33
0.29
0.29
0.24
0.20
0.11
0.46
0.00
0.18
0.14
0.06
0.05
0.02
0.02
0.05
0.00
0.00
0.00
0.16
0.16
0.19
0.71
0.77
0.66
0.74
0.55
0.77
0.91
0.92
0.93
0.94
0.95
0.92
0.66
0.49
0.49
0.46
0.40
0.40
0.05
0.49
0.49
0.56
0.54
0.57
0.57
0.57
0.58
0.60
0.61
0.61
0.64
0.62
0.61
0.57
0.61
0.57
0.61
0.58
0.54
0.49
0.33
0.14
0.02
0.02
0.02
0.00
0.00
0.00
0.00
0.02
0.25
0.11
0.04
0.00
0.01
0.00
0.01
0.01
0.00
0.01
0.02
0.04
0.00
0.00
0.00
0.00
0.01
0.00
0.00
0.01
0.01
0.01
0.01
0.01
0.00
0.00
0.00
0.00
0.01
0.01
0.00
0.00
0.02
0.00
0.01
0.00
0.02
0.19
0.02
0.00
0.00
0.06
0.34
0.02
0.01
0.02
0.01
0.00
0.01
0.01
0.00
0.01
0.00
0.12
0.00
0.12
0.00
0.38
0.04
0.01
0.01
0.09
0.11
0.11
0.14
0.06
0.14
0.20
0.18
0.38
0.00
0.30
0.75
0.59
0.61
0.71
0.60
0.61
0.33
0.38
0.20
0.14
0.09
0.09
0.02
0.09
0.01
0.02
0.05
0.02
0.02
0.02
0.05
0.09
0.11
0.11
0.14
0.29
0.09
0.20
0.33
0.33
0.24
0.20
0.20
0.20
0.24
0.20
0.11
0.05
0.02
0.02
0.09
0.38
0.01
0.00
0.00
0.00
0.01
0.00
0.01
0.00
0.00
0.00
0.00
0.00
0.01
0.00
0.00
0.00
0.00
0.00
0.01
0.01
0.00
0.01
0.45
0.01
0.12
0.55
0.30
0.19
0.16
0.01
0.00
0.02
0.01
0.05
0.02
0.05
0.02
0.09
0.02
0.02
0.86
0.57
0.61
0.63
0.59
0.57
0.24
0.20
0.09
0.05
0.05
0.05
0.02
0.05
0.01
0.02
0.14
0.19
0.09
0.02
0.02
0.02
0.02
0.11
0.02
0.09
0.14
0.24
0.38
0.38
0.46
0.45
0.40
0.51
0.06
0.24
0.20
0.14
0.02
0.02
0.02
0.01
0.01
0.02
0.06
0.02
0.05
0.02
0.02
0.01
0.01
0.01
0.02
0.16
0.11
0.02
0.00
0.01
0.00
0.00
0.02
0.02
0.00
0.01
0.00
0.01
0.22
0.41
0.34
0.68
0.16
0.75
0.80
0.57
0.54
0.68
0.92
0.95
0.95
0.94
0.86
0.18
0.56
0.55
0.18
0.20
0.24
0.20
0.24
0.29
0.33
0.38
0.42
0.49
0.51
0.56
0.58
0.60
0.61
0.61
0.61
0.61
0.50
0.58
0.54
0.42
0.33
0.09
0.02
0.00
0.01
0.02
0.08
0.04
0.02
0.04
0.01
0.02
0.01
0.12
0.22
0.02
0.01
0.01
0.00
0.02
0.04
0.08
0.16
0.12
0.08
0.12
0.08
0.04
0.04
0.12
0.00
0.25
0.08
0.08
0.08
0.04
0.08
0.04
0.08
0.12
0.04
0.12
0.08
0.08
0.12
0.19
0.12
0.52
0.30
0.38
0.58
0.16
0.22
0.01
0.00
0.01
0.00
0.01
0.00
0.01
0.02
0.02
0.22
0.38
0.87
0.02
0.56
0.78
0.80
0.57
0.33
0.02
0.11
0.01
0.00
0.01
0.00
0.04
0.01
0.00
0.45
0.01
0.00
0.25
0.00
0.04
0.02
0.00
0.00
0.01
0.05
0.06
0.11
0.20
0.24
0.33
0.40
0.29
0.38
0.38
0.14
0.05
0.11
0.12
0.02
0.02
0.04
0.01
0.08
0.04
0.01
0.02
0.00
0.08
0.02
0.01
0.04
0.00
0.01
0.41
0.09
0.02
0.01
0.02
0.00
0.00
0.00
0.08
0.04
0.25
0.01
0.38
0.34
0.19
0.12
0.00
0.06
0.00
0.01
0.01
0.02
0.00
0.06
0.02
0.01
0.08
0.76
0.05
0.57
0.67
0.71
0.56
0.40
0.11
0.06
0.02
0.05
0.01
0.01
0.01
0.02
0.01
0.02
0.05
0.25
0.29
0.02
0.02
0.06
0.09
0.20
0.18
0.29
0.33
0.45
0.46
0.46
0.40
0.45
0.33
0.18
0.11
0.05
0.02
0.00
0.08
0.05
0.12
0.01
0.02
0.01
0.01
0.01
0.01
0.01
0.00
0.01
0.02
0.04
0.02
0.01
0.02
0.01
0.01
0.02
0.01
0.00
0.68
0.19
0.65
0.76
0.83
0.82
0.80
0.86
0.89
0.91
0.93
0.95
0.95
0.96
0.93
0.81
0.53
0.38
0.55
0.49
0.56
0.56
0.58
0.51
0.57
0.61
0.57
0.57
0.60
0.61
0.62
0.63
0.70
0.70
0.70
0.67
0.64
0.61
0.60
0.57
0.61
0.58
0.51
0.50
0.01
0.38
0.06
0.02
0.02
0.01
0.02
0.05
0.02
0.02
0.01
0.05
0.01
0.01
0.01
0.11
0.12
0.02
0.06
0.25
0.11
0.00
0.02
0.01
0.02
0.02
0.00
0.02
0.02
0.06
0.02
0.02
0.02
0.06
0.06
0.02
0.09
0.09
0.20
0.12
0.11
0.06
0.05
0.06
0.02
0.02
0.01
0.02
0.05
0.05
0.05
0.02
0.11
0.04
0.06
0.00
0.02
0.45
0.06
0.25
0.04
0.01
0.00
0.02
0.02
0.02
0.01
0.02
0.01
0.02
0.05
0.01
0.30
0.30
0.89
0.58
0.71
0.65
0.69
0.58
0.20
0.05
0.05
0.00
0.01
0.00
0.01
0.00
0.08
0.00
0.38
0.08
0.12
0.12
0.01
0.25
0.16
0.04
0.12
0.01
0.00
0.02
0.00
0.05
0.02
0.05
0.06
0.11
0.18
0.18
0.14
0.05
0.20
0.19
0.01
0.01
0.00
0.01
0.08
0.02
0.01
0.02
0.02
0.02
0.01
0.08
0.04
0.02
0.08
0.08
0.08
0.12
0.08
0.02
0.12
0.04
0.04
0.02
0.34
0.02
0.00
0.38
0.19
0.16
0.60
0.34
0.22
0.12
0.01
0.01
0.00
0.00
0.01
0.01
0.00
0.01
0.01
0.30
0.52
0.87
0.57
0.69
0.64
0.60
0.56
0.05
0.02
0.01
0.00
0.00
0.01
0.04
0.04
0.08
0.08
0.08
0.01
0.30
0.01
0.16
0.08
0.01
0.00
0.05
0.12
0.14
0.09
0.20
0.20
0.18
0.18
0.14
0.06
0.06
0.00
0.00
0.49
0.01
0.30
0.25
0.22
0.19
0.49
0.12
0.22
0.22
0.22
0.22
0.16
0.30
0.30
0.25
0.25
0.22
0.08
0.69
0.08
0.65
0.66
0.79
0.90
0.90
0.93
0.90
0.94
0.95
0.94
0.95
0.95
0.97
0.95
0.92
0.11
0.29
0.55
0.49
0.50
0.51
0.56
0.54
0.58
0.56
0.60
0.61
0.57
0.56
0.59
0.61
0.63
0.57
0.65
0.61
0.61
0.59
0.57
0.61
0.58
0.56
0.53
0.20
0.14
0.02
0.02
0.02
0.01
0.02
0.06
0.41
0.05
0.00
0.01
0.00
0.00
0.00
0.00
0.00
0.00
0.02
0.01
0.01
0.01
0.00
0.00
0.02
0.01
0.05
0.12
0.20
0.02
0.02
0.02
0.02
0.02
0.02
0.01
0.01
0.02
0.02
0.02
0.01
0.02
0.02
0.02
0.01
0.02
0.02
0.01
0.06
0.00
0.02
0.02
0.02
0.02
0.11
0.02
0.04
0.01
0.01
0.00
0.25
0.19
0.01
0.02
0.06
0.18
0.05
0.09
0.05
0.22
0.33
0.01
0.05
0.01
0.04
0.85
0.56
0.59
0.61
0.64
0.57
0.29
0.06
0.05
0.05
0.02
0.00
0.14
0.12
0.02
0.05
0.02
0.01
0.02
0.01
0.02
0.02
0.05
0.06
0.14
0.05
0.11
0.09
0.24
0.29
0.20
0.14
0.11
0.38
0.01
0.38
0.11
0.02
0.05
0.02
0.00
0.00
0.01
0.00
0.01
0.01
0.01
0.00
0.01
0.02
0.01
0.01
0.02
0.02
0.11
0.02
0.02
0.02
0.02
0.01
0.05
0.02
0.02
0.02
0.02
0.02
0.01
0.02
0.12
0.00
0.45
0.16
0.04
0.08
0.05
0.01
0.09
0.02
0.02
0.20
0.01
0.05
0.14
0.12
0.45
0.81
0.63
0.65
0.70
0.60
0.57
0.14
0.14
0.24
0.12
0.05
0.02
0.01
0.05
0.02
0.02
0.06
0.05
0.06
0.06
0.09
0.09
0.02
0.11
0.11
0.14
0.14
0.33
0.38
0.20
0.42
0.38
0.33
0.14
0.14
0.11
0.02
0.01
0.01
0.01
0.00
0.01
0.00
0.01
0.01
0.02
0.45
0.05
0.02
0.01
0.01
0.04
0.01
0.01
0.04
0.02
0.04
0.02
0.04
0.22
0.41
0.65
0.74
0.90
0.85
0.92
0.91
0.94
0.95
0.94
0.95
0.96
0.97
0.95
0.87
0.53
0.20
0.56
0.53
0.58
0.38
0.61
0.58
0.61
0.61
0.61
0.57
0.57
0.60
0.63
0.61
0.64
0.69
0.67
0.64
0.63
0.61
0.57
0.57
0.58
0.58
0.45
0.38
0.11
0.02
0.01
0.00
0.00
0.00
0.00
0.04
0.02
0.04
0.02
0.19
0.01
0.49
0.04
0.02
0.12
0.02
0.00
0.04
0.12
0.00
0.02
0.01
0.00
0.00
0.00
0.06
0.49
0.02
0.01
0.00
0.00
0.02
0.00
0.00
0.00
0.01
0.01
0.01
0.00
0.02
0.02
0.01
0.11
0.00
0.05
0.05
0.06
0.06
0.05
0.18
0.02
0.01
0.00
0.00
0.02
0.16
0.01
0.02
0.29
0.06
0.33
0.33
0.29
0.33
0.29
0.20
0.29
0.20
0.01
0.02
0.89
0.58
0.65
0.71
0.80
0.59
0.49
0.24
0.24
0.14
0.09
0.06
0.05
0.02
0.02
0.02
0.02
0.02
0.01
0.00
0.01
0.01
0.00
0.02
0.01
0.00
0.05
0.02
0.05
0.11
0.11
0.18
0.11
0.18
0.20
0.18
0.09
0.01
0.01
0.01
0.00
0.55
0.02
0.04
0.01
0.02
0.04
0.00
0.01
0.00
0.00
0.02
0.00
0.00
0.01
0.00
0.00
0.04
0.01
0.02
0.02
0.02
0.01
0.01
0.00
0.01
0.30
0.04
0.19
0.12
0.55
0.19
0.08
0.02
0.02
0.01
0.02
0.01
0.02
0.01
0.02
0.09
0.02
0.08
0.19
0.87
0.57
0.64
0.64
0.61
0.57
0.11
0.40
0.22
0.20
0.06
0.05
0.02
0.05
0.05
0.06
0.01
0.02
0.02
0.06
0.02
0.02
0.09
0.05
0.18
0.14
0.24
0.29
0.33
0.45
0.40
0.45
0.38
0.40
0.18
0.06
0.29
0.12
0.01
0.01
0.00
0.01
0.01
0.00
0.01
0.01
0.02
0.01
0.02
0.01
0.01
0.02
0.02
0.00
0.01
0.04
0.02
0.08
0.01
0.52
0.66
0.73
0.87
0.86
0.89
0.78
0.92
0.93
0.92
0.95
0.94
0.95
0.95
0.90
0.19
0.24
0.42
0.58
0.56
0.58
0.58
0.61
0.57
0.57
0.57
0.57
0.61
0.61
0.61
0.66
0.69
0.70
0.71
0.75
0.63
0.69
0.61
0.59
0.57
0.58
0.58
0.50
0.33
0.29
0.06
0.06
0.02
0.01
0.02
0.02
0.02
0.02
0.00
0.01
0.00
0.01
0.01
0.01
0.01
0.02
0.05
0.02
0.20
0.19
0.05
0.05
0.01
0.02
0.02
0.02
0.02
0.05
0.01
0.02
0.02
0.02
0.01
0.02
0.02
0.01
0.05
0.02
0.02
0.14
0.22
0.18
0.02
0.01
0.02
0.01
0.02
0.01
0.02
0.00
0.02
0.00
0.01
0.01
0.01
0.00
0.08
0.12
0.01
0.25
0.38
0.08
0.08
0.01
0.02
0.05
0.05
0.05
0.02
0.06
0.02
0.09
0.09
0.12
0.64
0.80
0.58
0.82
0.61
0.61
0.61
0.06
0.18
0.05
0.05
0.02
0.02
0.01
0.01
0.01
0.00
0.00
0.02
0.01
0.02
0.01
0.00
0.04
0.04
0.00
0.01
0.00
0.00
0.01
0.02
0.05
0.02
0.09
0.18
0.11
0.20
0.09
0.09
0.05
0.02
0.02
0.09
0.16
0.02
0.01
0.01
0.01
0.01
0.01
0.02
0.00
0.00
0.00
0.00
0.01
0.02
0.01
0.01
0.01
0.02
0.14
0.16
0.06
0.05
0.01
0.00
0.00
0.00
0.01
0.16
0.22
0.00
0.00
0.02
0.09
0.05
0.01
0.18
0.02
0.02
0.09
0.02
0.00
0.08
0.79
0.02
0.60
0.69
0.69
0.57
0.42
0.11
0.02
0.01
0.11
0.01
0.00
0.01
0.00
0.01
0.02
0.01
0.01
0.02
0.01
0.02
0.02
0.05
0.06
0.11
0.33
0.01
0.49
0.40
0.45
0.50
0.49
0.42
0.38
0.24
0.18
0.05
0.05
0.06
0.02
0.01
0.06
0.34
0.14
0.01
0.01
0.01
0.01
0.00
0.01
0.02
0.01
0.00
0.01
0.00
0.01
0.00
0.06
0.38
0.06
0.41
0.49
0.63
0.82
0.86
0.89
0.85
0.90
0.94
0.92
0.95
0.95
0.95
0.95
0.91
0.34
0.61
0.51
0.58
0.56
0.56
0.58
0.58
0.61
0.61
0.59
0.57
0.57
0.61
0.57
0.61
0.64
0.65
0.64
0.65
0.63
0.61
0.61
0.57
0.61
0.61
0.56
0.50
0.40
0.40
0.18
0.05
0.09
0.05
0.05
0.06
0.09
0.02
0.06
0.02
0.09
0.05
0.06
0.02
0.05
0.06
0.11
0.08
0.18
0.05
0.09
0.02
0.06
0.02
0.09
0.05
0.05
0.05
0.02
0.06
0.05
0.18
0.02
0.05
0.09
0.06
0.05
0.05
0.02
0.05
0.05
0.02
0.02
0.02
0.05
0.02
0.11
0.38
0.18
0.05
0.05
0.02
0.00
0.00
0.00
0.00
0.22
0.01
0.00
0.01
0.14
0.14
0.11
0.29
0.06
0.11
0.18
0.11
0.20
0.01
0.22
0.89
0.59
0.61
0.64
0.61
0.57
0.18
0.24
0.20
0.09
0.09
0.05
0.06
0.14
0.05
0.02
0.06
0.06
0.06
0.02
0.05
0.06
0.06
0.11
0.18
0.11
0.29
0.33
0.40
0.53
0.11
0.49
0.49
0.49
0.45
0.42
0.40
0.29
0.14
0.06
0.05
0.02
0.01
0.02
0.05
0.04
0.20
0.02
0.02
0.06
0.02
0.02
0.05
0.05
0.02
0.05
0.09
0.06
0.06
0.06
0.09
0.05
0.11
0.06
0.14
0.00
0.05
0.01
0.05
0.19
0.02
0.00
0.01
0.05
0.09
0.06
0.09
0.02
0.18
0.11
0.18
0.18
0.14
0.30
0.77
0.57
0.61
0.63
0.61
0.57
0.14
0.29
0.09
0.05
0.02
0.06
0.02
0.05
0.02
0.01
0.18
0.00
0.02
0.06
0.02
0.09
0.09
0.06
0.20
0.18
0.38
0.40
0.45
0.42
0.42
0.40
0.45
0.38
0.38
0.05
0.01
0.05
0.01
0.01
0.01
0.01
0.00
0.01
0.01
0.00
0.01
0.00
0.00
0.01
0.00
0.00
0.05
0.00
0.00
0.01
0.00
0.00
0.00
0.08
0.45
0.66
0.71
0.85
0.83
0.89
0.87
0.90
0.95
0.92
0.95
0.95
0.96
0.95
0.81
0.42
0.50
0.55
0.56
0.58
0.58
0.61
0.61
0.61
0.61
0.57
0.60
0.59
0.61
0.61
0.64
0.71
0.69
0.70
0.70
0.63
0.62
0.60
0.57
0.61
0.58
0.54
0.46
0.20
0.06
0.02
0.02
0.01
0.01
0.02
0.01
0.01
0.01
0.00
0.00
0.01
0.00
0.01
0.00
0.00
0.14
0.08
0.00
0.01
0.01
0.01
0.00
0.00
0.01
0.02
0.01
0.01
0.01
0.01
0.01
0.00
0.02
0.01
0.01
0.02
0.01
0.04
0.00
0.00
0.00
0.00
0.01
0.01
0.00
0.01
0.01
0.00
0.02
0.16
0.25
0.02
0.30
0.30
0.30
0.04
0.04
0.01
0.14
0.05
0.05
0.05
0.05
0.05
0.02
0.02
0.02
0.19
0.78
0.41
0.59
0.85
0.81
0.60
0.51
0.06
0.09
0.02
0.02
0.01
0.02
0.00
0.01
0.01
0.01
0.04
0.02
0.52
0.00
0.08
0.12
0.08
0.04
0.02
0.01
0.01
0.01
0.01
0.05
0.05
0.09
0.09
0.09
0.18
0.18
0.06
0.09
0.01
0.01
0.00
0.01
0.00
0.01
0.02
0.02
0.01
0.00
0.02
0.01
0.01
0.01
0.01
0.00
0.06
0.38
0.05
0.00
0.00
0.00
0.00
0.01
0.04
0.08
0.04
0.25
0.16
0.52
0.25
0.12
0.08
0.02
0.00
0.05
0.01
0.02
0.01
0.02
0.01
0.01
0.16
0.12
0.87
0.56
0.60
0.64
0.65
0.57
0.29
0.16
0.14
0.05
0.00
0.00
0.00
0.00
0.00
0.00
0.00
0.01
0.01
0.01
0.00
0.01
0.01
0.01
0.01
0.20
0.01
0.24
0.29
0.33
0.29
0.33
0.33
0.33
0.18
0.11
0.02
0.02
0.00
0.01
0.01
0.00
0.01
0.02
0.30
0.11
0.01
0.00
0.00
0.00
0.00
0.00
0.01
0.00
0.01
0.01
0.00
0.01
0.00
0.04
0.02
0.30
0.73
0.52
0.87
0.82
0.89
0.78
0.89
0.94
0.92
0.95
0.94
0.96
0.95
0.88
0.01
0.49
0.58
0.56
0.56
0.58
0.50
0.58
0.58
0.61
0.61
0.61
0.57
0.58
0.60
0.61
0.61
0.63
0.64
0.63
0.61
0.61
0.57
0.59
0.61
0.60
0.56
0.46
0.40
0.18
0.11
0.11
0.14
0.09
0.05
0.09
0.02
0.06
0.02
0.01
0.06
0.02
0.14
0.30
0.14
0.06
0.05
0.02
0.06
0.05
0.11
0.02
0.09
0.11
0.06
0.06
0.02
0.05
0.02
0.05
0.02
0.05
0.09
0.02
0.14
0.05
0.05
0.11
0.06
0.11
0.09
0.06
0.06
0.11
0.09
0.09
0.14
0.20
0.14
0.14
0.11
0.14
0.09
0.11
0.09
0.02
0.05
0.02
0.00
0.02
0.00
0.02
0.11
0.24
0.24
0.20
0.24
0.29
0.33
0.14
0.20
0.14
0.06
0.72
0.33
0.60
0.63
0.70
0.60
0.56
0.20
0.49
0.01
0.24
0.14
0.14
0.09
0.09
0.20
0.05
0.09
0.20
0.18
0.20
0.18
0.20
0.14
0.29
0.38
0.29
0.29
0.40
0.46
0.49
0.05
0.51
0.33
0.42
0.45
0.29
0.29
0.14
0.18
0.06
0.05
0.02
0.02
0.02
0.02
0.06
0.01
0.14
0.22
0.06
0.02
0.02
0.02
0.02
0.05
0.01
0.02
0.02
0.02
0.05
0.01
0.01
0.02
0.02
0.01
0.25
0.11
0.16
0.00
0.30
0.22
0.04
0.02
0.01
0.06
0.09
0.02
0.14
0.02
0.11
0.09
0.06
0.00
0.04
0.78
0.56
0.64
0.63
0.61
0.60
0.49
0.11
0.09
0.06
0.05
0.02
0.02
0.01
0.01
0.00
0.02
0.01
0.14
0.41
0.09
0.01
0.00
0.02
0.00
0.01
0.02
0.11
0.09
0.20
0.29
0.24
0.40
0.24
0.29
0.18
0.09
0.06
0.09
0.06
0.02
0.01
0.02
0.01
0.05
0.01
0.01
0.00
0.01
0.01
0.06
0.00
0.01
0.01
0.01
0.01
0.00
0.02
0.00
0.01
0.01
0.04
0.08
0.41
0.58
0.66
0.85
0.89
0.92
0.88
0.92
0.95
0.94
0.95
0.95
0.95
0.95
0.87
0.09
0.51
0.56
0.56
0.53
0.51
0.54
0.58
0.53
0.58
0.61
0.61
0.57
0.59
0.61
0.61
0.61
0.66
0.66
0.66
0.63
0.61
0.60
0.57
0.57
0.58
0.58
0.24
0.33
0.11
0.05
0.02
0.01
0.01
0.01
0.00
0.01
0.01
0.01
0.01
0.01
0.00
0.01
0.01
0.06
0.25
0.18
0.00
0.01
0.01
0.01
0.01
0.02
0.00
0.00
0.01
0.00
0.00
0.00
0.00
0.02
0.00
0.02
0.01
0.01
0.00
0.01
0.00
0.01
0.01
0.00
0.00
0.01
0.00
0.00
0.01
0.06
0.19
0.01
0.16
0.12
0.19
0.12
0.38
0.19
0.12
0.04
0.02
0.02
0.01
0.00
0.02
0.01
0.02
0.01
0.20
0.55
0.08
0.89
0.60
0.61
0.64
0.70
0.57
0.18
0.11
0.14
0.05
0.02
0.02
0.00
0.02
0.00
0.00
0.01
0.04
0.00
0.00
0.00
0.00
0.00
0.01
0.02
0.05
0.29
0.04
0.49
0.33
0.33
0.40
0.38
0.40
0.42
0.38
0.14
0.18
0.06
0.09
0.05
0.30
0.05
0.00
0.00
0.01
0.00
0.00
0.00
0.02
0.00
0.02
0.04
0.01
0.01
0.02
0.41
0.02
0.00
0.00
0.01
0.08
0.01
0.01
0.00
0.04
0.04
0.02
0.22
0.12
0.19
0.45
0.08
0.01
0.02
0.01
0.01
0.01
0.01
0.00
0.00
0.00
0.01
0.34
0.12
0.90
0.58
0.62
0.61
0.60
0.61
0.06
0.06
0.02
0.01
0.01
0.01
0.02
0.00
0.09
0.00
0.00
0.01
0.00
0.01
0.01
0.02
0.00
0.01
0.01
0.02
0.09
0.18
0.38
0.33
0.24
0.38
0.29
0.24
0.11
0.09
0.05
0.00
0.00
0.00
0.01
0.00
0.01
0.01
0.00
0.02
0.01
0.00
0.00
0.00
0.01
0.01
0.01
0.00
0.00
0.02
0.01
0.00
0.00
0.06
0.16
0.00
0.00
0.41
0.41
0.52
0.79
0.83
0.82
0.82
0.83
0.92
0.90
0.94
0.94
0.94
0.96
0.88
0.45
0.61
0.56
0.58
0.54
0.53
0.55
0.56
0.58
0.60
0.58
0.61
0.57
0.57
0.57
0.62
0.63
0.61
0.61
0.61
0.61
0.61
0.57
0.59
0.61
0.56
0.51
0.49
0.33
0.11
0.11
0.25
0.18
0.01
0.01
0.01
0.01
0.00
0.00
0.01
0.00
0.01
0.01
0.01
0.00
0.01
0.00
0.11
0.01
0.00
0.02
0.00
0.01
0.02
0.01
0.02
0.01
0.02
0.01
0.00
0.01
0.02
0.01
0.02
0.02
0.01
0.00
0.02
0.01
0.02
0.02
0.02
0.01
0.02
0.02
0.02
0.00
0.02
0.01
0.16
0.02
0.02
0.34
0.02
0.05
0.11
0.11
0.06
0.11
0.09
0.11
0.11
0.09
0.24
0.02
0.60
0.69
0.56
0.64
0.69
0.61
0.50
0.38
0.20
0.20
0.02
0.11
0.02
0.02
0.02
0.02
0.02
0.01
0.06
0.05
0.01
0.02
0.06
0.33
0.00
0.18
0.24
0.18
0.29
0.29
0.33
0.24
0.20
0.29
0.24
0.38
0.24
0.14
0.14
0.20
0.25
0.24
0.02
0.02
0.05
0.02
0.02
0.01
0.02
0.01
0.01
0.02
0.01
0.02
0.02
0.01
0.01
0.06
0.34
0.11
0.01
0.01
0.02
0.02
0.01
0.00
0.01
0.08
0.12
0.19
0.41
0.12
0.02
0.01
0.11
0.01
0.01
0.01
0.05
0.01
0.02
0.02
0.18
0.12
0.38
0.82
0.58
0.64
0.65
0.61
0.59
0.40
0.08
0.20
0.09
0.01
0.02
0.01
0.01
0.02
0.00
0.00
0.01
0.01
0.00
0.02
0.02
0.01
0.05
0.00
0.05
0.02
0.06
0.14
0.18
0.18
0.29
0.29
0.20
0.18
0.06
0.02
0.05
0.02
0.01
0.05
0.25
0.06
0.00
0.00
0.01
0.01
0.01
0.01
0.01
0.00
0.01
0.01
0.02
0.02
0.00
0.11
0.12
0.02
0.01
0.00
0.01
0.00
0.34
0.64
0.63
0.87
0.86
0.91
0.86
0.89
0.92
0.93
0.92
0.94
0.95
0.95
0.87
0.00
0.60
0.56
0.58
0.51
0.56
0.56
0.55
0.58
0.58
0.61
0.57
0.60
0.60
0.61
0.61
0.62
0.64
0.66
0.63
0.63
0.63
0.58
0.56
0.61
0.58
0.56
0.46
0.24
0.38
0.02
0.20
0.14
0.02
0.02
0.05
0.02
0.02
0.02
0.01
0.02
0.02
0.02
0.14
0.00
0.01
0.05
0.02
0.01
0.02
0.02
0.02
0.02
0.02
0.02
0.05
0.05
0.06
0.02
0.02
0.05
0.20
0.05
0.05
0.06
0.06
0.05
0.06
0.06
0.01
0.02
0.00
0.04
0.19
0.19
0.02
0.02
0.22
0.38
0.09
0.11
0.18
0.11
0.18
0.24
0.24
0.05
0.01
0.75
0.29
0.61
0.78
0.80
0.62
0.50
0.24
0.40
0.24
0.20
0.06
0.06
0.11
0.09
0.05
0.02
