0.02
0.01
0.00
0.02
0.02
0.00
0.02
0.02
0.00
0.02
0.02
0.00
0.02
0.02
0.00
0.02
0.00
0.02
0.00
0.00
0.02
0.02
0.00
0.00
0.00
0.00
0.00
0.00
0.00
0.00
0.00
0.00
0.00
0.00
0.00
0.00
0.00
0.00
0.00
0.00
0.00
0.00
0.02
0.06
0.00
0.26
0.26
0.42
0.03
0.02
0.07
0.12
0.11
0.10
0.07
0.07
0.07
0.07
0.07
0.02
0.55
0.84
0.11
0.70
0.84
0.79
0.62
0.46
0.11
0.12
0.10
0.07
0.02
0.00
0.00
0.00
0.00
0.02
0.02
0.02
0.01
0.03
0.01
0.03
0.06
0.03
0.01
0.01
0.02
0.00
0.01
0.03
0.07
0.07
0.11
0.18
0.21
0.21
0.19
0.16
0.10
0.07
0.07
0.01
0.01
0.00
0.00
0.01
0.00
0.01
0.02
0.00
0.01
0.00
0.00
0.00
0.00
0.00
0.00
0.00
0.00
0.00
0.00
0.00
0.00
0.00
0.00
0.00
0.00
0.03
0.01
0.02
0.07
0.07
0.07
0.07
0.07
0.07
0.07
0.07
0.07
0.07
0.07
0.07
0.07
0.07
0.07
0.07
0.07
0.03
0.00
0.01
0.09
0.02
0.40
0.02
0.00
0.07
0.18
0.16
0.16
0.12
0.11
0.10
0.10
0.10
0.12
0.43
0.72
0.72
0.65
0.83
0.68
0.63
0.58
0.11
0.16
0.12
0.03
0.01
0.02
0.00
0.00
0.00
0.00
0.00
0.00
0.00
0.00
0.02
0.00
0.00
0.00
0.01
0.01
0.01
0.07
0.11
0.11
0.16
0.18
0.19
0.21
0.28
0.28
0.21
0.18
0.12
0.10
0.07
0.01
0.00
0.00
0.01
0.01
0.00
0.02
0.00
0.01
0.01
0.03
0.01
0.02
0.02
0.03
0.07
0.02
0.03
0.01
0.03
0.02
0.02
0.02
0.03
0.07
0.03
0.07
0.01
0.03
0.07
0.07
0.07
0.03
0.02
0.03
0.07
0.07
0.07
0.07
0.07
0.07
0.00
0.00
0.00
0.00
0.06
0.09
0.02
0.01
0.16
0.21
0.21
0.21
0.21
0.18
0.21
0.21
0.21
0.12
0.06
0.75
0.58
0.66
0.66
0.66
0.62
0.48
0.25
0.25
0.18
0.16
0.12
0.10
0.11
0.10
0.07
0.07
0.07
0.03
0.02
0.02
0.02
0.01
0.02
0.02
0.01
0.02
0.03
0.03
0.07
0.07
0.07
0.11
0.11
0.16
0.18
0.16
0.11
0.10
0.07
0.07
0.07
0.01
0.00
0.02
0.01
0.00
0.00
0.00
0.00
0.00
0.00
0.00
0.00
0.00
0.00
0.01
0.00
0.00
0.00
0.01
0.00
0.02
0.02
0.03
0.03
0.07
0.07
0.07
0.07
0.07
0.07
0.07
0.07
0.07
0.07
0.07
0.03
0.07
0.02
0.01
0.02
0.00
0.15
0.09
0.40
0.03
0.01
0.03
0.12
0.10
0.11
0.11
0.07
0.11
0.07
0.11
0.07
0.44
0.78
0.54
0.70
0.85
0.73
0.62
0.54
0.07
0.12
0.10
0.03
0.02
0.01
0.00
0.01
0.00
0.00
0.02
0.03
0.03
0.06
0.09
0.15
0.15
0.22
0.22
0.26
0.22
0.15
0.15
0.01
0.00
0.00
0.02
0.07
0.16
0.12
0.16
0.11
0.07
0.07
0.01
0.00
0.00
0.00
0.01
0.00
0.00
0.00
0.01
0.02
0.00
0.01
0.01
0.03
0.01
0.02
0.03
0.03
0.01
0.03
0.02
0.00
0.02
0.03
0.00
0.02
0.02
0.02
0.02
0.02
0.01
0.01
0.01
0.01
0.02
0.02
0.02
0.02
0.02
0.01
0.00
0.02
0.00
0.06
0.28
0.06
0.35
0.28
0.48
0.22
0.15
0.00
0.10
0.03
0.03
0.01
0.00
0.02
0.03
0.02
0.02
0.54
0.86
0.19
0.70
0.81
0.72
0.63
0.21
0.02
0.02
0.00
0.00
0.00
0.02
0.03
0.06
0.06
0.06
0.09
0.15
0.22
0.15
0.22
0.22
0.22
0.22
0.26
0.09
0.06
0.03
0.02
0.00
0.03
0.07
0.10
0.11
0.12
0.16
0.16
0.12
0.10
0.03
0.01
0.00
0.00
0.00
0.00
0.00
0.00
0.00
0.00
0.00
0.00
0.00
0.00
0.00
0.00
0.00
0.00
0.00
0.00
0.02
0.01
0.00
0.02
0.00
0.02
0.02
0.00
0.00
0.02
0.00
0.00
0.00
0.00
0.00
0.00
0.02
0.00
0.01
0.00
0.00
0.00
0.00
0.01
0.15
0.03
0.15
0.44
0.40
0.09
0.03
0.03
0.03
0.03
0.07
0.07
0.07
0.07
0.03
0.00
0.22
0.55
0.91
0.62
0.70
0.64
0.63
0.62
0.18
0.21
0.18
0.11
0.10
0.07
0.07
0.03
0.07
0.07
0.02
0.02
0.03
0.01
0.02
0.02
0.02
0.01
0.03
0.07
0.07
0.10
0.12
0.16
0.18
0.25
0.21
0.18
0.21
0.21
0.21
0.16
0.12
0.10
0.07
0.03
0.00
0.00
0.00
0.00
0.01
0.02
0.00
0.01
0.00
0.01
0.02
0.02
0.02
0.02
0.01
0.03
0.03
0.02
0.02
0.01
0.03
0.01
0.02
0.01
0.02
0.01
0.02
0.01
0.02
0.02
0.02
0.03
0.01
0.01
0.02
0.03
0.01
0.03
0.00
0.02
0.01
0.01
0.42
0.26
0.06
0.02
0.07
0.07
0.11
0.07
0.10
0.07
0.11
0.07
0.10
0.35
0.62
0.84
0.61
0.68
0.65
0.63
0.61
0.07
0.16
0.07
0.03
0.03
0.03
0.01
0.00
0.00
0.00
0.00
0.00
0.02
0.00
0.02
0.02
0.03
0.03
0.06
0.06
0.03
0.01
0.01
0.00
0.01
0.02
0.07
0.11
0.11
0.16
0.12
0.07
0.03
0.00
0.00
0.00
0.01
0.06
0.06
0.09
0.06
0.06
0.03
0.06
0.03
0.06
0.01
0.01
0.03
0.01
0.02
0.01
0.00
0.00
0.00
0.00
0.01
0.02
0.01
0.03
0.02
0.03
0.03
0.03
0.03
0.07
0.03
0.03
0.07
0.02
0.03
0.03
0.03
0.03
0.00
0.06
0.01
0.22
0.26
0.42
0.26
0.06
0.01
0.07
0.07
0.07
0.03
0.02
0.07
0.07
0.03
0.01
0.44
0.84
0.11
0.70
0.82
0.77
0.63
0.34
0.12
0.10
0.03
0.02
0.01
0.01
0.00
0.00
0.00
0.01
0.01
0.01
0.06
0.06
0.15
0.06
0.15
0.09
0.09
0.09
0.09
0.01
0.00
0.00
0.03
0.07
0.10
0.12
0.16
0.18
0.19
0.18
0.10
0.07
0.03
0.00
0.01
0.00
0.00
0.00
0.00
0.00
0.00
0.00
0.00
0.00
0.00
0.01
0.00
0.01
0.00
0.00
0.00
0.00
0.00
0.00
0.00
0.00
0.00
0.00
0.00
0.00
0.00
0.00
0.01
0.00
0.00
0.01
0.01
0.00
0.00
0.00
0.01
0.00
0.09
0.01
0.15
0.06
0.44
0.26
0.15
0.01
0.07
0.10
0.12
0.07
0.07
0.07
0.07
0.11
0.07
0.35
0.60
0.88
0.61
0.77
0.65
0.60
0.62
0.12
0.21
0.12
0.10
0.10
0.10
0.07
0.03
0.03
0.03
0.03
0.07
0.03
0.07
0.07
0.03
0.07
0.07
0.07
0.11
0.16
0.16
0.19
0.21
0.25
0.28
0.29
0.29
0.29
0.28
0.25
0.21
0.18
0.12
0.10
0.03
0.03
0.07
0.07
0.02
0.07
0.03
0.07
0.07
0.07
0.03
0.07
0.07
0.07
0.07
0.07
0.10
0.07
0.10
0.07
0.11
0.07
0.07
0.10
0.07
0.07
0.03
0.03
0.07
0.07
0.02
0.02
0.07
0.03
0.07
0.03
0.03
0.07
0.07
0.07
0.00
0.00
0.03
0.00
0.37
0.03
0.02
0.01
0.12
0.11
0.18
0.10
0.11
0.12
0.16
0.16
0.19
0.22
0.70
0.48
0.65
0.68
0.67
0.62
0.58
0.11
0.12
0.07
0.03
0.03
0.01
0.01
0.00
0.01
0.00
0.00
0.00
0.00
0.02
0.02
0.00
0.00
0.02
0.02
0.01
0.02
0.00
0.02
0.02
0.03
0.07
0.10
0.16
0.18
0.18
0.18
0.16
0.10
0.07
0.02
0.01
0.00
0.00
0.00
0.02
0.00
0.00
0.00
0.00
0.00
0.00
0.02
0.01
0.03
0.03
0.01
0.02
0.03
0.03
0.01
0.02
0.02
0.01
0.00
0.01
0.00
0.00
0.00
0.00
0.00
0.00
0.00
0.00
0.00
0.01
0.01
0.00
0.00
0.09
0.03
0.15
0.09
0.50
0.28
0.15
0.02
0.07
0.07
0.07
0.03
0.07
0.03
0.02
0.07
0.03
0.50
0.67
0.87
0.64
0.85
0.66
0.62
0.58
0.07
0.07
0.07
0.02
0.01
0.00
0.00
0.02
0.00
0.01
0.01
0.01
0.06
0.03
0.06
0.06
0.09
0.09
0.15
0.09
0.15
0.06
0.03
0.00
0.01
0.01
0.03
0.07
0.12
0.12
0.16
0.10
0.07
0.02
0.00
0.00
0.00
0.02
0.02
0.01
0.00
0.00
0.00
0.00
0.00
0.00
0.02
0.00
0.02
0.00
0.00
0.00
0.00
0.02
0.00
0.00
0.00
0.00
0.00
0.00
0.00
0.00
0.00
0.00
0.00
0.01
0.01
0.01
0.00
0.01
0.01
0.02
0.02
0.02
0.02
0.02
0.02
0.00
0.01
0.02
0.06
0.28
0.26
0.02
0.02
0.10
0.18
0.10
0.12
0.11
0.07
0.07
0.10
0.07
0.02
0.42
0.89
0.58
0.72
0.72
0.72
0.64
0.25
0.11
0.12
0.07
0.01
0.01
0.01
0.00
0.00
0.00
0.00
0.00
0.00
0.00
0.02
0.01
0.01
0.02
0.00
0.02
0.00
0.01
0.02
0.07
0.07
0.12
0.12
0.18
0.19
0.18
0.18
0.16
0.10
0.10
0.03
0.00
0.00
0.00
0.00
0.00
0.00
0.00
0.00
0.01
0.03
0.01
0.01
0.01
0.03
0.02
0.03
0.02
0.03
0.03
0.07
0.03
0.07
0.03
0.03
0.03
0.07
0.07
0.02
0.03
0.01
0.02
0.01
0.00
0.00
0.00
0.01
0.00
0.00
0.03
0.01
0.06
0.03
0.44
0.22
0.06
0.01
0.07
0.10
0.12
0.10
0.11
0.18
0.11
0.11
0.12
0.03
0.43
0.84
0.61
0.68
0.65
0.60
0.64
0.19
0.21
0.12
0.12
0.10
0.07
0.07
0.03
0.03
0.03
0.07
0.01
0.01
0.01
0.01
0.01
0.00
0.00
0.00
0.01
0.02
0.02
0.03
0.07
0.07
0.07
0.11
0.10
0.10
0.11
0.11
0.10
0.07
0.02
0.02
0.00
0.00
0.00
0.02
0.01
0.02
0.02
0.02
0.02
0.02
0.00
0.00
0.00
0.00
0.01
0.01
0.01
0.03
0.02
0.03
0.02
0.01
0.03
0.02
0.07
0.03
0.02
0.02
0.03
0.02
0.01
0.01
0.01
0.01
0.00
0.00
0.00
0.00
0.00
0.01
0.09
0.15
0.22
0.48
0.28
0.26
0.09
0.02
0.03
0.07
0.02
0.03
0.03
0.03
0.03
0.01
0.28
0.58
0.91
0.63
0.79
0.70
0.66
0.64
0.18
0.16
0.07
0.07
0.02
0.01
0.01
0.00
0.00
0.02
0.02
0.01
0.03
0.06
0.09
0.09
0.22
0.26
0.28
0.28
0.28
0.28
0.26
0.22
0.15
0.06
0.01
0.00
0.02
0.07
0.07
0.11
0.07
0.03
0.01
0.01
0.00
0.00
0.00
0.00
0.00
0.00
0.00
0.00
0.00
0.00
0.00
0.00
0.02
0.00
0.00
0.02
0.00
0.00
0.00
0.00
0.00
0.00
0.00
0.00
0.00
0.00
0.00
0.00
0.00
0.02
0.00
0.00
0.00
0.00
0.00
0.00
0.00
0.00
0.01
0.22
0.06
0.35
0.37
0.44
0.37
0.22
0.03
0.02
0.02
0.03
0.01
0.00
0.00
0.00
0.00
0.01
0.55
0.72
0.78
0.65
0.84
0.68
0.62
0.55
0.03
0.07
0.03
0.01
0.00
0.00
0.00
0.00
0.00
0.00
0.02
0.02
0.02
0.01
0.03
0.06
0.09
0.09
0.06
0.15
0.06
0.06
0.02
0.00
0.01
0.02
0.03
0.07
0.10
0.16
0.10
0.07
0.02
0.01
0.00
0.02
0.03
0.03
0.09
0.03
0.03
0.03
0.06
0.03
0.03
0.03
0.09
0.06
0.06
0.03
0.02
0.06
0.03
0.01
0.06
0.02
0.01
0.00
0.01
0.00
0.00
0.00
0.00
0.00
0.00
0.01
0.03
0.01
0.01
0.01
0.03
0.02
0.00
0.01
0.02
0.01
0.01
0.01
0.02
0.03
0.01
0.03
0.28
0.22
0.00
0.00
0.10
0.16
0.12
0.12
0.10
0.11
0.12
0.11
0.10
0.00
0.40
0.86
0.64
0.64
0.64
0.63
0.63
0.18
0.19
0.07
0.07
0.07
0.03
0.03
0.02
0.02
0.01
0.00
0.01
0.02
0.00
0.01
0.00
0.03
0.00
0.01
0.03
0.03
0.07
0.11
0.07
0.12
0.18
0.16
0.19
0.18
0.21
0.16
0.18
0.16
0.10
0.03
0.02
0.00
0.00
0.00
0.01
0.02
0.00
0.00
0.00
0.00
0.00
0.00
0.00
0.00
0.00
0.00
0.02
0.00
0.00
0.00
0.00
0.00
0.00
0.00
0.01
0.00
0.00
0.00
0.00
0.02
0.02
0.00
0.01
0.01
0.02
0.02
0.02
0.01
0.02
0.02
0.02
0.03
0.02
0.02
0.01
0.02
0.35
0.26
0.00
0.00
0.10
0.16
0.16
0.11
0.16
0.16
0.18
0.12
0.12
0.00
0.40
0.84
0.64
0.67
0.66
0.65
0.63
0.28
0.16
0.10
0.10
0.07
0.03
0.02
0.00
0.00
0.00
0.00
0.02
0.02
0.03
0.03
0.06
0.06
0.15
0.09
0.15
0.15
0.09
0.06
0.03
0.00
0.00
0.02
0.07
0.11
0.16
0.18
0.18
0.12
0.10
0.07
0.03
0.02
0.00
0.00
0.00
0.00
0.00
0.00
0.02
0.00
0.00
0.02
0.00
0.00
0.02
0.00
0.00
0.00
0.00
0.00
0.00
0.00
0.00
0.00
0.00
0.00
0.00
0.00
0.00
0.00
0.00
0.00
0.00
0.00
0.01
0.00
0.00
0.01
0.01
0.03
0.02
0.00
0.03
0.02
0.15
0.06
0.43
0.03
0.01
0.03
0.12
0.12
0.11
0.11
0.07
0.11
0.07
0.10
0.10
0.44
0.72
0.78
0.68
0.85
0.69
0.62
0.58
0.07
0.07
0.03
0.00
0.01
0.00
0.00
0.02
0.01
0.03
0.03
0.06
0.09
0.09
0.15
0.15
0.22
0.26
0.22
0.15
0.09
0.09
0.03
0.03
0.00
0.01
0.01
0.03
0.07
0.11
0.10
0.10
0.07
0.01
0.00
0.00
0.00
0.00
0.02
0.00
0.00
0.00
0.00
0.00
0.00
0.00
0.00
0.00
0.00
0.00
0.00
0.00
0.00
0.00
0.02
0.02
0.02
0.00
0.00
0.00
0.00
0.00
0.00
0.00
0.01
0.00
0.00
0.00
0.00
0.00
0.00
0.00
0.00
0.00
0.00
0.03
0.22
0.03
0.26
0.22
0.44
0.06
0.03
0.02
0.16
0.10
0.10
0.07
0.07
0.07
0.07
0.10
0.00
0.50
0.86
0.32
0.69
0.75
0.72
0.64
0.32
0.11
0.11
0.07
0.03
0.02
0.02
0.02
0.01
0.03
0.03
0.03
0.03
0.01
0.01
0.01
0.01
0.02
0.02
0.07
0.07
0.07
0.11
0.12
0.18
0.19
0.21
0.19
0.18
0.19
0.19
0.19
0.11
0.07
0.02
0.00
0.00
0.00
0.00
0.00
0.00
0.00
0.00
0.00
0.00
0.02
0.00
0.00
0.00
0.00
0.00
0.00
0.00
0.00
0.00
0.00
0.00
0.01
0.01
0.01
0.02
0.07
0.03
0.02
0.02
0.07
0.07
0.07
0.03
0.03
0.07
0.03
0.10
0.03
0.00
0.02
0.00
0.01
0.15
0.35
0.01
0.02
0.07
0.16
0.18
0.16
0.11
0.12
0.16
0.16
0.19
0.07
0.22
0.74
0.48
0.68
0.68
0.68
0.62
0.50
0.18
0.16
0.12
0.07
0.03
0.03
0.01
0.00
0.01
0.00
0.00
0.00
0.00
0.03
0.01
0.01
0.02
0.03
0.06
0.06
0.02
0.02
0.00
0.00
0.00
0.01
0.07
0.07
0.10
0.11
0.10
0.07
0.07
0.03
0.01
0.01
0.00
0.00
0.00
0.00
0.00
0.00
0.00
0.00
0.00
0.00
0.00
0.00
0.00
0.00
0.01
0.01
0.00
0.00
0.01
0.00
0.01
0.00
0.00
0.00
0.00
0.00
0.00
0.01
0.00
0.00
0.00
0.00
0.00
0.00
0.00
0.00
0.00
0.03
0.03
0.15
0.06
0.42
0.26
0.03
0.02
0.07
0.11
0.10
0.10
0.10
0.07
0.07
0.07
0.03
0.03
0.50
0.89
0.62
0.81
0.82
0.79
0.64
0.25
0.07
0.07
0.02
0.00
0.00
0.02
0.01
0.01
0.09
0.06
0.22
0.22
0.26
0.35
0.35
0.37
0.40
0.43
0.43
0.44
0.44
0.42
0.37
0.28
0.26
0.09
0.06
0.00
0.02
0.02
0.03
0.01
0.00
0.00
0.02
0.01
0.03
0.01
0.06
0.03
0.03
0.03
0.01
0.03
0.03
0.06
0.06
0.06
0.06
0.03
0.09
0.09
0.09
0.09
0.06
0.06
0.09
0.06
0.06
0.06
0.01
0.03
0.03
0.03
0.03
0.01
0.03
0.03
0.06
0.01
0.03
0.03
0.01
0.03
0.03
0.03
0.03
0.22
0.35
0.26
0.37
0.44
0.44
0.26
0.15
0.00
0.02
0.01
0.00
0.00
0.01
0.00
0.00
0.02
0.43
0.57
0.93
0.63
0.79
0.66
0.66
0.59
0.07
0.07
0.01
0.00
0.00
0.00
0.00
0.02
0.01
0.00
0.00
0.00
0.02
0.01
0.03
0.01
0.02
0.01
0.03
0.02
0.01
0.00
0.00
0.02
0.07
0.07
0.10
0.12
0.12
0.18
0.19
0.16
0.10
0.10
0.02
0.00
0.00
0.00
0.02
0.00
0.02
0.02
0.00
0.02
0.00
0.00
0.00
0.00
0.00
0.00
0.00
0.00
0.00
0.00
0.01
0.00
0.00
0.00
0.00
0.00
0.00
0.00
0.01
0.02
0.00
0.02
0.01
0.02
0.02
0.03
0.03
0.01
0.01
0.02
0.00
0.01
0.03
0.06
0.35
0.22
0.03
0.00
0.11
0.12
0.16
0.12
0.11
0.11
0.10
0.11
0.12
0.02
0.42
0.84
0.63
0.66
0.66
0.66
0.63
0.29
0.21
0.18
0.12
0.10
0.07
0.07
0.07
0.07
0.02
0.07
0.03
0.07
0.03
0.02
0.07
0.10
0.07
0.07
0.07
0.07
0.10
0.11
0.12
0.16
0.16
0.16
0.16
0.19
0.18
0.16
0.12
0.10
0.03
0.03
0.00
0.00
0.00
0.00
0.00
0.00
0.00
0.01
0.01
0.02
0.01
0.01
0.01
0.02
0.02
0.03
0.02
0.03
0.02
0.02
0.02
0.01
0.01
0.00
0.01
0.03
0.01
0.01
0.03
0.03
0.02
0.07
0.07
0.07
0.10
0.11
0.10
0.11
0.07
0.07
0.00
0.02
0.03
0.00
0.37
0.02
0.00
0.07
0.18
0.16
0.19
0.16
0.16
0.18
0.16
0.18
0.21
0.22
0.66
0.67
0.65
0.75
0.69
0.62
0.60
0.16
0.19
0.12
0.10
0.07
0.02
0.01
0.02
0.01
0.00
0.00
0.00
0.02
0.01
0.06
0.06
0.09
0.09
0.15
0.22
0.26
0.15
0.06
0.03
0.02
0.00
0.00
0.03
0.10
0.11
0.12
0.10
0.07
0.07
0.03
0.00
0.00
0.00
0.00
0.00
0.00
0.00
0.00
0.00
0.00
0.00
0.00
0.00
0.00
0.00
0.00
0.00
0.00
0.00
0.00
0.00
0.00
0.00
0.00
0.00
0.00
0.00
0.00
0.00
0.00
0.02
0.00
0.00
0.00
0.00
0.00
0.02
0.09
0.01
0.22
0.15
0.40
0.03
0.06
0.03
0.11
0.11
0.10
0.07
0.03
0.07
0.07
0.07
0.00
0.50
0.89
0.59
0.81
0.83
0.80
0.63
0.29
0.11
0.11
0.01
0.01
0.00
0.02
0.00
0.01
0.06
0.09
0.09
0.09
0.15
0.26
0.26
0.28
0.28
0.28
0.35
0.35
0.28
0.26
0.15
0.01
0.01
0.00
0.01
0.07
0.07
0.10
0.07
0.07
0.02
0.00
0.00
0.02
0.01
0.02
0.02
0.02
0.01
0.00
0.00
0.00
0.00
0.00
0.00
0.00
0.00
0.02
0.01
0.02
0.01
0.01
0.02
0.01
0.03
0.02
0.01
0.02
0.02
0.02
0.00
0.00
0.00
0.00
0.00
0.00
0.00
0.01
0.00
0.00
0.00
0.00
0.00
0.00
0.03
0.03
0.09
0.03
0.44
0.09
0.01
0.00
0.11
0.11
0.10
0.07
0.03
0.07
0.07
0.07
0.07
0.44
0.69
0.85
0.63
0.84
0.66
0.61
0.58
0.07
0.11
0.07
0.03
0.00
0.01
0.00
0.00
0.00
0.00
0.00
0.02
0.02
0.02
0.01
0.02
0.00
0.02
0.02
0.00
0.00
0.02
0.07
0.07
0.11
0.11
0.16
0.19
0.21
0.25
0.19
0.21
0.16
0.11
0.07
0.01
0.01
0.00
0.00
0.00
0.01
0.01
0.02
0.01
0.01
0.00
0.00
0.00
0.01
0.01
0.00
0.00
0.02
0.02
0.02
0.00
0.00
0.00
0.02
0.01
0.00
0.01
0.00
0.01
0.00
0.00
0.00
0.00
0.01
0.01
0.01
0.01
0.00
0.01
0.02
0.01
0.03
0.01
0.40
0.26
0.02
0.02
0.12
0.11
0.10
0.11
0.11
0.10
0.11
0.11
0.10
0.01
0.40
0.84
0.62
0.65
0.64
0.62
0.63
0.29
0.19
0.12
0.12
0.11
0.07
0.03
0.07
0.07
0.01
0.03
0.02
0.02
0.01
0.00
0.00
0.01
0.01
0.00
0.00
0.01
0.01
0.01
0.03
0.03
0.07
0.07
0.11
0.11
0.12
0.12
0.11
0.12
0.11
0.07
0.03
0.01
0.00
0.00
0.00
0.00
0.00
0.00
0.00
0.01
0.00
0.00
0.01
0.00
0.02
0.01
0.01
0.02
0.03
0.03
0.07
0.03
0.07
0.07
0.07
0.10
0.07
0.07
0.10
0.07
0.10
0.07
0.07
0.07
0.07
0.11
0.07
0.03
0.00
0.02
0.01
0.02
0.35
0.15
0.03
0.00
0.11
0.07
0.10
0.07
0.07
0.07
0.07
0.03
0.03
0.37
0.60
0.88
0.62
0.77
0.66
0.62
0.64
0.12
0.12
0.07
0.07
0.07
0.01
0.01
0.00
0.00
0.00
0.02
0.01
0.06
0.09
0.09
0.22
0.28
0.35
0.37
0.37
0.40
0.40
0.37
0.28
0.26
0.09
0.06
0.02
0.00
0.02
0.07
0.03
0.01
0.00
0.00
0.00
0.00
0.01
0.01
0.03
0.01
0.03
0.03
0.06
0.06
0.03
0.01
0.03
0.03
0.06
0.06
0.03
0.06
0.03
0.06
0.03
0.03
0.01
0.06
0.03
0.01
0.01
0.02
0.01
0.02
0.02
0.00
0.00
0.00
0.00
0.00
0.00
0.00
0.00
0.06
0.03
0.22
0.01
0.43
0.06
0.01
0.01
0.11
0.12
0.11
0.07
0.07
0.07
0.03
0.07
0.03
0.44
0.71
0.86
0.62
0.80
0.65
0.63
0.56
0.00
0.00
0.00
0.03
0.06
0.06
0.06
0.09
0.15
0.09
0.09
0.15
0.15
0.09
0.15
0.15
0.15
0.15
0.26
0.22
0.22
0.15
0.03
0.03
0.02
0.00
0.01
0.10
0.10
0.11
0.10
0.07
0.10
0.02
0.02
0.00
0.00
0.00
0.00
0.02
0.00
0.00
0.00
0.00
0.00
0.00
0.00
0.00
0.00
0.02
0.02
0.02
0.02
0.02
0.02
0.02
0.02
0.01
0.00
0.00
0.00
0.00
0.00
0.00
0.00
0.00
0.01
0.00
0.01
0.01
0.03
0.01
0.03
0.02
0.02
0.01
0.02
0.01
0.00
0.00
0.06
0.02
0.22
0.40
0.37
0.22
0.03
0.01
0.07
0.03
0.03
0.01
0.02
0.02
0.03
0.03
0.00
0.44
0.84
0.54
0.66
0.67
0.70
0.63
0.39
0.19
0.21
0.19
0.16
0.12
0.12
0.18
0.18
0.12
0.16
0.12
0.12
0.12
0.16
0.16
0.11
0.12
0.16
0.21
0.19
0.21
0.21
0.25
0.28
0.34
0.32
0.34
0.37
0.34
0.34
0.29
0.28
0.21
0.16
0.10
0.07
0.03
0.01
0.00
0.01
0.01
0.02
0.00
0.01
0.02
0.00
0.00
0.01
0.00
0.01
0.02
0.00
0.01
0.01
0.02
0.02
0.00
0.01
0.01
0.01
0.01
0.02
0.02
0.02
0.01
0.03
0.03
0.07
0.07
0.10
0.10
0.11
0.11
0.07
0.01
0.03
0.00
0.02
0.15
0.02
0.00
0.03
0.19
0.21
0.18
0.18
0.18
0.18
0.12
0.12
0.19
0.06
0.50
0.79
0.61
0.67
0.65
0.61
0.64
0.21
0.18
0.07
0.07
0.03
0.00
0.00
0.00
0.00
0.00
0.02
0.00
0.00
0.02
0.01
0.01
0.01
0.01
0.01
0.00
0.00
0.00
0.01
0.01
0.07
0.11
0.12
0.16
0.21
0.21
0.21
0.21
0.16
0.16
0.12
0.11
0.10
0.07
0.07
0.07
0.07
0.07
0.03
0.07
0.03
0.07
0.07
0.07
0.03
0.07
0.03
0.03
0.07
0.03
0.03
0.03
0.03
0.07
0.03
0.03
0.03
0.03
0.03
0.01
0.03
0.02
0.02
0.03
0.03
0.02
0.02
0.02
0.02
0.00
0.01
0.03
0.01
0.28
0.15
0.02
0.00
0.10
0.19
0.18
0.16
0.12
0.12
0.12
0.12
0.10
0.01
0.55
0.89
0.62
0.81
0.81
0.79
0.62
0.32
0.12
0.10
0.03
0.01
0.01
0.00
0.00
0.00
0.02
0.02
0.02
0.01
0.01
0.03
0.06
0.09
0.09
0.15
0.15
0.22
0.15
0.09
0.03
0.02
0.00
0.01
0.07
0.12
0.18
0.21
0.19
0.19
0.18
0.11
0.07
0.07
0.03
0.02
0.03
0.02
0.01
0.03
0.03
0.07
0.03
0.03
0.07
0.02
0.03
0.02
0.02
0.01
0.02
0.02
0.01
0.00
0.01
0.01
0.01
0.01
0.01
0.01
0.01
0.02
0.07
0.07
0.07
0.07
0.07
0.11
0.11
0.12
0.12
0.16
0.12
0.03
0.10
0.00
0.07
0.09
0.03
0.07
0.11
0.28
0.29
0.28
0.21
0.19
0.16
0.18
0.18
0.18
0.37
0.66
0.84
0.66
0.85
0.69
0.61
0.61
0.11
0.19
0.10
0.07
0.02
0.01
0.00
0.00
0.00
0.00
0.00
0.00
0.02
0.02
0.03
0.06
0.03
0.03
0.03
0.03
0.01
0.00
0.00
0.02
0.07
0.10
0.11
0.18
0.21
0.25
0.21
0.18
0.16
0.10
0.07
0.03
0.02
0.01
0.02
0.00
0.01
0.02
0.02
0.03
0.03
0.02
0.02
0.03
0.03
0.03
0.02
0.01
0.00
0.01
0.02
0.02
0.02
0.02
0.01
0.02
0.02
0.03
0.02
0.07
0.07
0.03
0.02
0.07
0.07
0.07
0.07
0.07
0.07
0.07
0.07
0.07
0.07
0.03
0.02
0.00
0.03
0.00
0.28
0.02
0.02
0.07
0.21
0.21
0.21
0.19
0.21
0.21
0.19
0.21
0.21
0.02
0.50
0.74
0.64
0.70
0.67
0.62
0.61
0.25
0.25
0.21
0.21
0.16
0.16
0.12
0.11
0.12
0.11
0.12
0.10
0.10
0.07
0.10
0.03
0.07
0.07
0.07
0.11
0.11
0.12
0.18
0.19
0.21
0.21
0.21
0.25
0.19
0.21
0.19
0.16
0.11
0.07
0.07
0.03
0.02
0.02
0.02
0.02
0.03
0.02
0.03
0.01
0.07
0.02
0.03
0.07
0.02
0.02
0.03
0.07
0.07
0.07
0.07
0.03
0.07
0.03
0.07
0.03
0.03
0.07
0.07
0.07
0.02
0.03
0.03
0.07
0.02
0.03
0.03
0.03
0.00
0.02
0.01
0.06
0.28
0.26
0.02
0.02
0.03
0.11
0.11
0.11
0.11
0.11
0.12
0.11
0.18
0.01
0.37
0.78
0.58
0.67
0.67
0.66
0.62
0.37
0.18
0.12
0.07
0.03
0.03
0.01
0.02
0.00
0.00
0.02
0.00
0.02
0.03
0.03
0.06
0.09
0.15
0.09
0.06
0.09
0.09
0.06
0.02
0.00
0.01
0.07
0.10
0.18
0.19
0.18
0.16
0.12
0.10
0.07
0.01
0.00
0.00
0.00
0.02
0.01
0.01
0.03
0.09
0.03
0.06
0.15
0.09
0.09
0.06
0.09
0.09
0.06
0.06
0.06
0.03
0.03
0.03
0.03
0.02
0.00
0.02
0.02
0.02
0.02
0.00
0.00
0.02
0.00
0.02
0.00
0.02
0.02
0.02
0.15
0.09
0.22
0.06
0.44
0.22
0.03
0.00
0.07
0.11
0.07
0.07
0.07
0.03
0.07
0.03
0.03
0.37
0.62
0.91
0.62
0.83
0.70
0.66
0.62
0.10
0.11
0.07
0.03
0.00
0.00
0.00
0.02
0.00
0.03
0.03
0.06
0.06
0.09
0.09
0.09
0.15
0.22
0.22
0.15
0.15
0.09
0.06
0.02
0.00
0.00
0.03
0.07
0.10
0.12
0.16
0.10
0.07
0.02
0.01
0.00
0.00
0.01
0.02
0.02
0.00
0.01
0.02
0.02
0.02
0.00
0.02
0.01
0.01
0.03
0.01
0.01
0.01
0.01
0.01
0.02
0.02
0.02
0.02
0.02
0.02
0.01
0.01
0.01
0.01
0.02
0.00
0.01
0.02
0.02
0.00
0.00
0.00
0.00
0.00
0.00
0.01
0.03
0.03
0.22
0.35
0.37
0.01
0.00
0.07
0.12
0.11
0.10
0.07
0.03
0.07
0.07
0.07
0.01
0.54
0.89
0.64
0.73
0.71
0.69
0.62
0.11
0.07
0.02
0.01
0.00
0.02
0.02
0.02
0.01
0.01
0.01
0.03
0.06
0.01
0.06
0.03
0.02
0.01
0.00
0.00
0.01
0.02
0.07
0.12
0.16
0.19
0.21
0.21
0.28
0.28
0.21
0.21
0.12
0.10
0.07
0.03
0.01
0.01
0.01
0.01
0.01
0.02
0.02
0.02
0.03
0.03
0.01
0.00
0.01
0.01
0.01
0.00
0.01
0.00
0.00
0.01
0.00
0.00
0.01
0.01
0.01
0.01
0.01
0.02
0.01
0.01
0.01
0.02
0.00
0.02
0.01
0.00
0.00
0.01
0.02
0.00
0.02
0.00
0.09
0.00
0.35
0.02
0.00
0.07
0.18
0.16
0.18
0.12
0.18
0.18
0.16
0.16
0.19
0.22
0.67
0.40
0.66
0.67
0.68
0.61
0.55
0.12
0.16
0.07
0.01
0.00
0.00
0.00
0.00
0.00
0.02
0.02
0.00
0.02
0.02
0.02
0.01
0.02
0.02
0.01
0.01
0.01
0.00
0.00
0.01
0.01
0.02
0.07
0.07
0.10
0.10
0.07
0.03
0.02
0.00
0.00
0.01
0.03
0.01
0.01
0.06
0.03
0.03
0.06
0.03
0.03
0.03
0.01
0.01
0.02
0.00
0.00
0.02
0.00
0.00
0.00
0.00
0.00
0.02
0.00
0.00
0.00
0.00
0.00
0.00
0.00
0.00
0.00
0.00
0.00
0.00
0.00
0.00
0.01
0.09
0.01
0.28
0.35
0.40
0.15
0.09
0.02
0.07
0.07
0.07
0.07
0.02
0.10
0.03
0.07
0.01
0.54
0.78
0.60
0.70
0.85
0.70
0.62
0.55
0.01
0.03
0.00
0.00
0.02
0.01
0.03
0.01
0.06
0.06
0.03
0.06
0.15
0.15
0.22
0.26
0.28
0.35
0.35
0.37
0.28
0.28
0.28
0.15
0.06
0.02
0.00
0.02
0.03
0.10
0.11
0.07
0.02
0.00
0.00
0.00
0.01
0.01
0.09
0.03
0.01
0.01
0.01
0.03
0.01
0.01
0.02
0.01
0.01
0.06
0.06
0.06
0.01
0.03
0.09
0.03
0.03
0.03
0.06
0.06
0.06
0.01
0.01
0.03
0.03
0.06
0.03
0.01
0.01
0.03
0.02
0.00
0.02
0.00
0.00
0.00
0.00
0.02
0.06
0.01
0.26
0.15
0.42
0.06
0.02
0.00
0.12
0.10
0.11
0.10
0.07
0.07
0.07
0.10
0.07
0.48
0.74
0.70
0.67
0.85
0.70
0.62
0.55
0.07
0.11
0.07
0.03
0.00
0.00
0.00
0.00
0.01
0.01
0.03
0.03
0.06
0.09
0.15
0.09
0.15
0.15
0.15
0.15
0.09
0.06
0.01
0.00
0.01
0.03
0.07
0.11
0.16
0.18
0.12
0.12
0.07
0.07
0.01
0.00
0.00
0.00
0.02
0.00
0.02
0.02
0.02
0.00
0.02
0.02
0.01
0.00
0.02
0.01
0.02
0.01
0.06
0.01
0.02
0.01
0.01
0.01
0.03
0.00
0.00
0.00
0.00
0.00
0.00
0.01
0.00
0.00
0.01
0.02
0.02
0.00
0.01
0.01
0.01
0.01
0.03
0.01
0.22
0.01
0.44
0.15
0.02
0.00
0.12
0.12
0.12
0.11
0.10
0.07
0.11
0.11
0.07
0.35
0.58
0.87
0.62
0.71
0.64
0.62
0.58
0.07
0.11
0.07
0.01
0.01
0.00
0.00
0.00
0.02
0.02
0.01
0.01
0.03
0.01
0.01
0.02
0.01
0.02
0.02
0.00
0.00
0.01
0.03
0.03
0.07
0.11
0.16
0.18
0.18
0.18
0.12
0.12
0.07
0.03
0.01
0.00
0.00
0.02
0.01
0.03
0.02
0.00
0.01
0.02
0.01
0.01
0.02
0.00
0.02
0.00
0.01
0.02
0.01
0.01
0.01
0.01
0.02
0.00
0.00
0.00
0.00
0.00
0.00
0.00
0.01
0.02
0.03
0.02
0.03
0.07
0.03
0.07
0.07
0.03
0.03
0.02
0.02
0.03
0.06
0.37
0.37
0.09
0.03
0.01
0.07
0.07
0.07
0.07
0.07
0.07
0.10
0.11
0.03
0.43
0.79
0.64
0.67
0.66
0.65
0.61
0.37
0.21
0.11
0.11
0.07
0.02
0.02
0.00
0.00
0.00
0.02
0.02
0.02
0.03
0.03
0.15
0.06
0.06
0.09
0.15
0.06
0.09
0.03
0.03
0.02
0.00
0.00
0.01
0.03
0.07
0.07
0.07
0.03
0.01
0.00
0.02
0.01
0.01
0.01
0.06
0.03
0.03
0.03
0.01
0.01
0.03
0.01
0.03
0.03
0.02
0.01
0.01
0.01
0.01
0.02
0.00
0.02
0.02
0.02
0.00
0.02
0.00
0.02
0.00
0.00
0.00
0.00
0.00
0.00
0.00
0.00
0.00
0.00
0.00
0.00
0.06
0.06
0.09
0.15
0.43
0.37
0.09
0.06
0.03
0.10
0.07
0.03
0.03
0.07
0.07
0.03
0.02
0.09
0.62
0.91
0.62
0.81
0.77
0.72
0.63
0.16
0.03
0.03
0.01
0.00
0.03
0.02
0.01
0.06
0.06
0.06
0.09
0.22
0.26
0.28
0.28
0.35
0.28
0.37
0.40
0.40
0.35
0.28
0.26
0.06
0.03
0.02
0.00
0.03
0.07
0.07
0.07
0.03
0.02
0.00
0.00
0.02
0.02
0.02
0.02
0.02
0.02
0.02
0.00
0.01
0.01
0.01
0.01
0.03
0.03
0.06
0.09
0.09
0.09
0.09
0.03
0.06
0.06
0.06
0.06
0.03
0.06
0.03
0.03
0.01
0.01
0.03
0.01
0.01
0.03
0.01
0.01
0.01
0.02
0.02
0.02
0.06
0.09
0.15
0.15
0.42
0.37
0.06
0.02
0.03
0.11
0.07
0.07
0.07
0.02
0.03
0.03
0.00
0.26
0.62
0.92
0.61
0.79
0.73
0.72
0.64
0.21
0.07
0.07
0.02
0.00
0.00
0.00
0.00
0.02
0.02
0.01
0.01
0.03
0.06
0.03
0.06
0.01
0.03
0.09
0.03
0.01
0.00
0.02
0.00
0.01
0.07
0.11
0.11
0.12
0.16
0.19
0.18
0.12
0.07
0.03
0.00
0.00
0.00
0.00
0.02
0.00
0.00
0.00
0.00
0.00
0.01
0.00
0.02
0.02
0.02
0.01
0.02
0.02
0.03
0.03
0.01
0.02
0.02
0.03
0.07
0.03
0.02
0.03
0.03
0.07
0.03
0.07
0.07
0.07
0.10
0.07
0.07
0.03
0.07
0.07
0.07
0.00
0.01
0.00
0.09
0.06
0.37
0.03
0.00
0.07
0.19
0.11
0.12
0.07
0.07
0.11
0.10
0.11
0.10
0.35
0.70
0.62
0.63
0.70
0.66
0.62
0.58
0.11
0.18
0.16
0.10
0.11
0.03
0.07
0.07
0.07
0.07
0.07
0.07
0.07
0.07
0.07
0.07
0.07
0.07
0.07
0.10
0.07
0.11
0.10
0.12
0.16
0.19
0.19
0.18
0.19
0.21
0.19
0.16
0.12
0.10
0.07
0.03
0.03
0.01
0.02
0.01
0.02
0.01
0.01
0.02
0.01
0.00
0.00
0.01
0.01
0.03
0.01
0.03
0.07
0.02
0.02
0.07
0.07
0.07
0.07
0.07
0.07
0.07
0.10
0.07
0.10
0.03
0.07
0.07
0.07
0.07
0.07
0.07
0.07
0.07
0.01
0.00
0.06
0.00
0.35
0.01
0.02
0.03
0.16
0.16
0.18
0.16
0.12
0.19
0.16
0.18
0.18
0.15
0.62
0.80
0.63
0.72
0.66
0.62
0.63
0.12
0.18
0.10
0.03
0.03
0.02
0.00
0.00
0.00
0.00
0.00
0.00
0.00
0.01
0.03
0.06
0.09
0.09
0.26
0.26
0.26
0.15
0.15
0.15
0.06
0.02
0.00
0.01
0.07
0.07
0.07
0.07
0.07
0.02
0.01
0.00
0.01
0.00
0.00
0.00
0.01
0.00
0.01
0.01
0.00
0.00
0.00
0.00
0.00
0.00
0.00
0.00
0.00
0.00
0.00
0.00
0.00
0.00
0.00
0.00
0.00
0.02
0.00
0.00
0.00
0.02
0.02
0.02
0.00
0.02
0.00
0.01
0.01
0.01
0.01
0.15
0.06
0.28
0.09
0.44
0.22
0.03
0.00
0.11
0.10
0.07
0.03
0.02
0.07
0.07
0.03
0.01
0.55
0.72
0.78
0.68
0.85
0.70
0.62
0.55
0.07
0.07
0.03
0.02
0.00
0.00
0.00
0.03
0.01
0.03
0.03
0.09
0.15
0.09
0.22
0.22
0.28
0.28
0.37
0.35
0.28
0.28
0.22
0.09
0.03
0.02
0.00
0.01
0.07
0.10
0.11
0.07
0.07
0.02
0.00
0.00
0.00
0.00
0.00
0.00
0.00
0.00
0.01
0.01
0.00
0.00
0.00
0.02
0.01
0.01
0.00
0.00
0.02
0.01
0.01
0.01
0.00
0.01
0.01
0.01
0.02
0.01
0.02
0.03
0.00
0.01
0.01
0.02
0.02
0.02
0.01
0.01
0.02
0.03
0.01
0.00
0.03
0.02
0.26
0.06
0.43
0.06
0.03
0.00
0.11
0.10
0.07
0.02
0.03
0.07
0.03
0.03
0.02
0.54
0.74
0.78
0.65
0.83
0.66
0.62
0.55
0.02
0.07
0.02
0.00
0.02
0.00
0.01
0.01
0.02
0.02
0.02
0.02
0.03
0.02
0.02
0.01
0.03
0.00
0.00
0.00
0.02
0.02
0.03
0.10
0.12
0.16
0.16
0.16
0.18
0.19
0.19
0.12
0.10
0.03
0.01
0.00
0.00
0.01
0.02
0.00
0.00
0.00
0.00
0.00
0.00
0.02
0.00
0.00
0.00
0.00
0.00
0.00
0.00
0.00
0.00
0.00
0.00
0.03
0.03
0.00
0.01
0.00
0.02
0.00
0.00
0.00
0.00
0.01
0.00
0.00
0.01
0.01
0.02
0.00
0.00
0.01
0.01
0.06
0.03
0.37
0.03
0.00
0.03
0.18
0.16
0.12
0.16
0.12
0.18
0.12
0.16
0.03
0.15
0.78
0.58
0.67
0.68
0.67
0.62
0.48
0.11
0.11
0.07
0.07
0.03
0.02
0.00
0.00
0.00
0.00
0.00
0.00
0.02
0.00
0.00
0.02
0.01
0.01
0.01
0.01
0.02
0.02
0.02
0.00
0.01
0.03
0.03
0.07
0.10
0.12
0.12
0.07
0.07
0.07
0.01
0.02
0.01
0.01
0.01
0.02
0.01
0.03
0.02
0.03
0.03
0.03
0.07
0.07
0.07
0.07
0.07
0.03
0.07
0.07
0.07
0.07
0.10
0.07
0.07
0.07
0.07
0.07
0.07
0.07
0.07
0.07
0.07
0.07
0.02
0.02
0.03
0.01
0.00
0.03
0.01
0.22
0.09
0.40
0.03
0.01
0.01
0.12
0.11
0.07
0.07
0.07
0.07
0.07
0.07
0.01
0.50
0.81
0.18
0.72
0.83
0.75
0.62
0.39
0.07
0.03
0.00
0.00
0.02
0.01
0.06
0.06
0.09
0.09
0.09
0.09
0.15
0.26
0.26
0.26
0.35
0.37
0.37
0.37
0.37
0.35
0.22
0.09
0.03
0.02
0.00
0.03
0.07
0.12
0.12
0.12
0.07
0.07
0.01
0.01
0.01
0.00
0.00
0.00
0.00
0.00
0.00
0.00
0.00
0.02
0.00
0.02
0.02
0.03
0.02
0.01
0.02
0.01
0.00
0.02
0.00
0.00
0.00
0.00
0.00
0.00
0.00
0.00
0.00
0.00
0.00
0.00
0.00
0.01
0.00
0.01
0.01
0.01
0.01
0.01
0.02
0.09
0.01
0.42
0.15
0.01
0.00
0.10
0.16
0.10
0.07
0.03
0.07
0.07
0.03
0.02
0.44
0.67
0.91
0.62
0.84
0.67
0.63
0.60
0.07
0.11
0.07
0.01
0.00
0.00
0.02
0.02
0.02
0.02
0.01
0.03
0.06
0.09
0.03
0.09
0.06
0.15
0.22
0.22
0.09
0.06
0.01
0.02
0.00
0.02
0.03
0.07
0.12
0.16
0.16
0.16
0.10
0.03
0.02
0.01
0.00
0.00
0.00
0.02
0.00
0.00
0.01
0.00
0.00
0.00
0.00
0.00
0.00
0.00
0.00
0.00
0.00
0.01
0.00
0.00
0.00
0.00
0.00
0.01
0.00
0.00
0.00
0.01
0.00
0.00
0.01
0.01
0.02
0.02
0.02
0.02
0.02
0.02
0.02
0.02
0.00
0.09
0.02
0.37
0.01
0.00
0.07
0.21
0.19
0.18
0.12
0.11
0.11
0.10
0.12
0.12
0.40
0.69
0.78
0.65
0.81
0.66
0.61
0.58
0.10
0.16
0.11
0.07
0.07
0.02
0.02
0.02
0.02
0.01
0.01
0.01
0.01
0.00
0.00
0.00
0.01
0.01
0.02
0.03
0.10
0.11
0.16
0.19
0.21
0.21
0.28
0.25
0.25
0.25
0.21
0.12
0.12
0.07
0.03
0.02
0.00
0.00
0.00
0.00
0.01
0.02
0.02
0.02
0.01
0.00
0.02
0.01
0.01
0.01
0.03
0.03
0.02
0.07
0.03
0.02
0.07
0.07
0.11
0.07
0.07
0.11
0.11
0.12
0.11
0.12
0.12
0.10
0.12
0.10
0.10
0.10
0.01
0.00
0.01
0.00
0.26
0.15
0.02
0.00
0.11
0.16
0.19
0.16
0.19
0.19
0.19
0.21
0.21
0.01
0.26
0.78
0.61
0.70
0.67
0.63
0.61
0.32
0.25
0.21
0.19
0.16
0.10
0.10
0.12
0.11
0.10
0.10
0.07
0.07
0.03
0.02
0.01
0.02
0.01
0.01
0.02
0.01
0.02
0.07
0.10
0.11
0.12
0.16
0.19
0.21
0.21
0.21
0.18
0.12
0.10
0.07
0.03
0.02
0.00
0.00
0.00
0.00
0.02
0.02
0.00
0.01
0.02
0.01
0.01
0.00
0.01
0.00
0.00
0.00
0.02
0.00
0.00
0.00
0.00
0.00
0.00
0.00
0.00
0.00
0.00
0.00
0.00
0.00
0.00
0.00
0.00
0.00
0.00
0.02
0.06
0.06
0.15
0.42
0.35
0.15
0.06
0.03
0.07
0.07
0.03
0.07
0.07
0.07
0.07
0.03
0.15
0.54
0.91
0.62
0.81
0.79
0.75
0.63
0.19
0.11
0.07
0.03
0.00
0.00
0.00
0.02
0.01
0.03
0.06
0.09
0.09
0.15
0.26
0.28
0.28
0.35
0.28
0.35
0.35
0.28
0.22
0.15
0.06
0.03
0.02
0.00
0.03
0.07
0.07
0.10
0.03
0.03
0.00
0.00
0.00
0.00
0.02
0.01
0.03
0.01
0.01
0.01
0.01
0.03
0.03
0.03
0.03
0.03
0.03
0.06
0.06
0.06
0.02
0.01
0.01
0.01
0.02
0.02
0.03
0.02
0.03
0.02
0.02
0.02
0.01
0.01
0.01
0.02
0.00
0.01
0.03
0.02
0.01
0.26
0.09
0.37
0.22
0.54
0.35
0.22
0.01
0.02
0.02
0.07
0.02
0.03
0.07
0.03
0.07
0.07
0.40
0.64
0.91
0.61
0.82
0.68
0.65
0.62
0.11
0.18
0.10
0.07
0.03
0.00
0.00
0.00
0.00
0.02
0.02
0.03
0.03
0.03
0.09
0.09
0.15
0.09
0.09
0.09
0.09
0.06
0.01
0.02
0.01
0.01
0.02
0.10
0.10
0.12
0.12
0.07
0.07
0.03
0.01
0.00
0.02
0.01
0.02
0.01
0.02
0.01
0.00
0.02
0.02
0.00
0.02
0.02
0.02
0.02
0.00
0.01
0.01
0.02
0.02
0.00
0.01
0.01
0.03
0.01
0.01
0.00
0.02
0.01
0.00
0.00
0.00
0.02
0.00
0.00
0.02
0.03
0.15
0.06
0.28
0.42
0.44
0.26
0.22
0.02
0.07
0.07
0.10
0.07
0.03
0.07
0.10
0.10
0.02
0.42
0.79
0.42
0.65
0.68
0.68
0.64
0.37
0.11
0.12
0.10
0.07
0.07
0.07
0.07
0.01
0.02
0.01
0.02
0.02
0.02
0.02
0.03
0.03
0.03
0.07
0.03
0.07
0.11
0.11
0.16
0.18
0.19
0.21
0.18
0.21
0.21
0.19
0.19
0.18
0.12
0.10
0.07
0.07
0.03
0.03
0.01
0.01
0.02
0.02
0.02
0.01
0.02
0.03
0.02
0.02
0.02
0.03
0.03
0.02
0.03
0.03
0.07
0.03
0.07
0.03
0.03
0.07
0.07
0.03
0.03
0.07
0.07
0.07
0.07
0.03
0.07
0.07
0.07
0.02
0.00
0.09
0.02
0.37
0.22
0.01
0.02
0.10
0.10
0.19
0.12
0.11
0.16
0.16
0.19
0.21
0.09
0.60
0.75
0.65
0.72
0.68
0.62
0.64
0.19
0.19
0.11
0.10
0.07
0.03
0.03
0.01
0.01
0.00
0.00
0.00
0.00
0.02
0.01
0.01
0.01
0.06
0.09
0.09
0.06
0.03
0.01
0.00
0.00
0.01
0.03
0.07
0.11
0.10
0.11
0.10
0.07
0.07
0.01
0.01
0.00
0.00
0.00
0.00
0.00
0.00
0.01
0.01
0.01
0.03
0.03
0.03
0.07
0.07
0.07
0.07
0.07
0.10
0.10
0.07
0.11
0.07
0.07
0.07
0.07
0.03
0.03
0.02
0.03
0.02
0.03
0.02
0.02
0.02
0.02
0.02
0.01
0.09
0.09
0.44
0.22
0.06
0.00
0.10
0.11
0.16
0.11
0.07
0.12
0.11
0.12
0.07
0.37
0.54
0.91
0.61
0.85
0.72
0.68
0.64
0.16
0.16
0.10
0.07
0.02
0.00
0.00
0.00
0.00
0.00
0.02
0.02
0.02
0.03
0.06
0.09
0.06
0.15
0.15
0.15
0.09
0.06
0.01
0.02
0.00
0.01
0.07
0.07
0.10
0.10
0.12
0.11
0.07
0.03
0.00
0.00
0.01
0.01
0.01
0.01
0.01
0.01
0.02
0.00
0.02
0.01
0.02
0.02
0.02
0.02
0.01
0.01
0.02
0.02
0.00
0.02
0.00
0.00
0.00
0.01
0.00
0.01
0.01
0.00
0.01
0.01
0.00
0.01
0.02
0.01
0.03
0.03
0.03
0.00
0.00
0.00
0.02
0.28
0.09
0.00
0.02
0.16
0.19
0.18
0.12
0.11
0.11
0.10
0.10
0.07
0.03
0.55
0.91
0.62
0.77
0.73
0.75
0.64
0.19
0.11
0.07
0.07
0.02
0.01
0.01
0.00
0.00
0.01
0.00
0.00
0.00
0.00
0.00
0.00
0.00
0.00
0.00
0.01
0.00
0.02
0.07
0.10
0.12
0.16
0.21
0.19
0.25
0.28
0.28
0.21
0.19
0.12
0.11
0.07
0.10
0.02
0.02
0.02
0.03
0.03
0.03
0.07
0.07
0.07
0.07
0.07
0.01
0.02
0.01
0.03
0.02
0.02
0.21
0.18
0.12
0.07
0.58
0.62
0.65
0.58
0.66
0.90
0.95
0.97
0.97
0.97
0.95
0.87
0.06
0.54
0.07
0.11
0.18
0.11
0.25
0.03
0.28
0.32
0.42
0.57
0.59
0.60
0.61
0.64
0.63
0.62
0.62
0.62
0.63
0.62
0.62
0.62
0.62
0.63
0.61
0.57
0.46
0.32
0.18
0.12
0.07
0.03
0.07
0.10
0.03
0.03
0.03
0.01
0.02
0.01
0.02
0.01
0.01
0.02
0.03
0.03
0.03
0.03
0.03
0.07
0.07
0.07
0.07
0.07
0.07
0.07
0.03
0.07
0.07
0.10
0.07
0.10
0.07
0.10
0.10
0.07
0.10
0.07
0.10
0.03
0.07
0.03
0.02
0.03
0.03
0.07
0.03
0.03
0.02
0.02
0.03
0.03
0.01
0.01
0.02
0.02
0.03
0.02
0.01
0.01
0.02
0.01
0.03
0.01
0.03
0.01
0.07
0.03
0.02
0.00
0.01
0.01
0.03
0.43
0.26
0.26
0.03
0.03
0.03
0.07
0.07
0.07
0.07
0.07
0.07
0.11
0.15
0.57
0.87
0.61
0.77
0.65
0.62
0.64
0.11
0.11
0.07
0.07
0.02
0.01
0.00
0.02
0.02
0.03
0.01
0.09
0.22
0.22
0.35
0.28
0.28
0.40
0.37
0.42
0.40
0.43
0.42
0.43
0.42
0.40
0.40
0.35
0.26
0.01
0.00
0.07
0.02
0.03
0.01
0.00
0.00
0.02
0.03
0.06
0.06
0.03
0.01
0.01
0.01
0.01
0.03
0.01
0.03
0.01
0.01
0.01
0.01
0.00
0.28
0.58
0.62
0.64
0.02
0.94
0.99
1.00
1.00
1.00
1.00
0.97
0.97
1.00
1.00
0.99
0.96
0.74
0.03
0.39
0.55
0.55
0.63
0.64
0.61
0.62
0.61
0.61
0.65
0.66
0.72
0.79
0.85
0.86
0.86
0.88
0.88
0.88
0.88
0.88
0.88
0.88
0.86
0.83
0.67
0.62
0.63
0.58
0.42
0.28
0.21
0.18
0.16
0.11
0.12
0.11
0.12
0.11
0.10
0.11
0.11
0.11
0.11
0.11
0.11
0.10
0.11
0.10
0.10
0.07
0.07
0.03
0.03
0.03
0.03
0.01
0.00
0.01
0.03
0.02
0.01
0.01
0.01
0.02
0.02
0.02
0.02
0.03
0.07
0.02
0.03
0.03
0.03
0.03
0.07
0.02
0.07
0.07
0.07
0.07
0.07
0.07
0.07
0.07
0.07
0.07
0.07
0.07
0.07
0.07
0.03
0.02
0.00
0.00
0.09
0.06
0.44
0.15
0.15
0.00
0.07
0.07
0.11
0.11
0.11
0.16
0.16
0.16
0.21
0.09
0.74
0.44
0.62
0.72
0.69
0.62
0.56
0.21
0.25
0.19
0.16
0.12
0.11
0.10
0.11
0.11
0.16
0.11
0.12
0.11
0.11
0.18
0.18
0.19
0.16
0.19
0.25
0.19
0.19
0.19
0.16
0.16
0.11
0.07
0.12
0.19
0.25
0.32
0.34
0.34
0.29
0.25
0.25
0.19
0.18
0.12
0.12
0.10
0.12
0.10
0.10
0.07
0.11
0.10
0.12
0.07
0.10
0.07
0.07
0.07
0.07
0.07
0.10
0.07
0.07
0.07
0.07
0.07
0.03
0.07
0.07
0.01
0.00
0.01
0.00
0.26
0.09
0.09
0.00
0.07
0.12
0.12
0.12
0.16
0.16
0.18
0.16
0.16
0.03
0.26
0.79
0.62
0.67
0.66
0.66
0.62
0.46
0.28
0.21
0.19
0.18
0.16
0.11
0.10
0.11
0.10
0.10
0.07
0.03
0.02
0.02
0.01
0.01
0.00
0.00
0.00
0.01
0.01
0.01
0.03
0.07
0.07
0.11
0.11
0.18
0.19
0.19
0.21
0.16
0.10
0.07
0.03
0.01
0.00
0.01
0.00
0.00
0.00
0.00
0.00
0.00
0.01
0.00
0.00
0.00
0.00
0.00
0.00
0.00
0.00
0.00
0.00
0.00
0.00
0.00
0.00
0.00
0.00
0.00
0.00
0.00
0.00
0.00
0.06
0.00
0.26
0.15
0.44
0.35
0.09
0.02
0.07
0.07
0.12
0.07
0.07
0.11
0.10
0.16
0.11
0.42
0.72
0.67
0.71
0.86
0.79
0.62
0.58
0.19
0.19
0.16
0.11
0.07
0.03
0.02
0.02
0.02
0.01
0.01
0.00
0.00
0.00
0.01
0.01
0.06
0.09
0.06
0.15
0.15
0.09
0.03
0.02
0.00
0.00
0.01
0.07
0.11
0.11
0.10
0.07
0.07
0.03
0.00
0.00
0.00
0.00
0.00
0.00
0.00
0.00
0.00
0.00
0.00
0.00
0.00
0.00
0.00
0.00
0.00
0.01
0.02
0.01
0.02
0.02
0.02
0.00
0.02
0.00
0.00
0.01
0.01
0.00
0.00
0.00
0.06
0.01
0.22
0.06
0.43
0.09
0.01
0.00
0.11
0.10
0.16
0.10
0.07
0.10
0.10
0.11
0.07
0.43
0.74
0.70
0.71
0.85
0.75
0.62
0.54
0.12
0.16
0.07
0.02
0.01
0.01
0.00
0.00
0.00
0.00
0.00
0.00
0.00
0.00
0.00
0.02
0.00
0.00
0.00
0.01
0.01
0.10
0.10
0.11
0.12
0.19
0.19
0.21
0.21
0.25
0.19
0.16
0.16
0.10
0.07
0.03
0.02
0.02
0.03
0.02
0.07
0.07
0.03
0.07
0.03
0.02
0.07
0.03
0.07
0.07
0.02
0.00
0.01
0.01
0.00
0.00
0.00
0.00
0.00
0.00
0.00
0.00
0.00
0.00
0.01
0.01
0.00
0.00
0.03
0.00
0.09
0.06
0.43
0.40
0.09
0.01
0.03
0.07
0.07
0.07
0.03
0.07
0.07
0.11
0.11
0.22
0.72
0.58
0.66
0.72
0.70
0.62
0.58
0.12
0.19
0.12
0.07
0.10
0.03
0.03
0.02
0.03
0.02
0.01
0.01
0.01
0.01
0.00
0.00
0.00
0.00
0.00
0.00
0.00
0.01
0.01
0.03
0.07
0.03
0.07
0.07
0.12
0.11
0.10
0.07
0.03
0.03
0.01
0.02
0.00
0.00
0.00
0.00
0.00
0.00
0.00
0.00
0.00
0.00
0.00
0.00
0.00
0.00
0.00
0.00
0.00
0.02
0.00
0.00
0.00
0.00
0.00
0.00
0.01
0.00
0.02
0.01
0.00
0.00
0.06
0.02
0.26
0.15
0.48
0.37
0.22
0.03
0.01
0.01
0.07
0.01
0.02
0.02
0.07
0.07
0.07
0.42
0.67
0.84
0.66
0.85
0.70
0.61
0.62
0.07
0.11
0.07
0.01
0.00
0.00
0.00
0.00
0.00
0.01
0.03
0.06
0.03
0.09
0.26
0.28
0.28
0.28
0.35
0.35
0.35
0.35
0.22
0.15
0.06
0.02
0.02
0.00
0.02
0.07
0.10
0.02
0.01
0.00
0.02
0.01
0.03
0.15
0.06
0.09
0.15
0.15
0.22
0.15
0.15
0.09
0.22
0.22
0.22
0.09
0.09
0.22
0.22
0.22
0.26
0.15
0.15
0.15
0.09
0.09
0.09
0.01
0.06
0.03
0.03
0.03
0.01
0.01
0.03
0.15
0.26
0.22
0.35
0.44
0.43
0.26
0.15
0.01
0.02
0.02
0.00
0.00
0.00
0.00
0.00
0.00
0.40
0.66
0.93
0.61
0.79
0.69
0.68
0.59
0.01
0.00
0.00
0.03
0.06
0.15
0.22
0.22
0.22
0.22
0.28
0.35
0.35
0.37
0.35
0.37
0.37
0.40
0.40
0.40
0.40
0.28
0.28
0.15
0.06
0.01
0.02
0.00
0.01
0.02
0.02
0.01
0.02
0.01
0.03
0.06
0.15
0.15
0.22
0.22
0.15
0.15
0.09
0.09
0.15
0.06
0.15
0.03
0.09
0.06
0.09
0.09
0.15
0.09
0.06
0.03
0.06
0.06
0.06
0.03
0.06
0.03
0.01
0.02
0.01
0.06
0.02
0.03
0.00
0.03
0.15
0.22
0.26
0.15
0.48
0.40
0.09
0.15
0.02
0.10
0.03
0.03
0.02
0.03
0.03
0.01
0.01
0.22
0.60
0.89
0.61
0.68
0.67
0.67
0.62
0.19
0.07
0.03
0.01
0.00
0.00
0.00
0.00
0.00
0.02
0.00
0.00
0.02
0.01
0.02
0.01
0.00
0.02
0.00
0.00
0.02
0.02
0.02
0.03
0.07
0.11
0.11
0.11
0.12
0.11
0.10
0.10
0.03
0.01
0.00
0.00
0.00
0.01
0.02
0.01
0.00
0.02
0.00
0.00
0.02
0.02
0.00
0.00
0.00
0.00
0.00
0.00
0.00
0.00
0.02
0.00
0.01
0.01
0.02
0.01
0.01
0.02
0.02
0.07
0.03
0.03
0.03
0.07
0.03
0.01
0.02
0.00
0.01
0.01
0.35
0.22
0.00
0.00
0.10
0.16
0.16
0.12
0.16
0.16
0.16
0.12
0.16
0.01
0.44
0.82
0.62
0.70
0.68
0.65
0.62
0.37
0.18
0.12
0.12
0.07
0.07
0.03
0.03
0.01
0.01
0.00
0.00
0.00
0.01
0.02
0.02
0.03
0.01
0.06
0.03
0.09
0.03
0.02
0.00
0.00
0.01
0.03
0.10
0.12
0.16
0.12
0.16
0.07
0.07
0.03
0.03
0.00
0.00
0.00
0.00
0.00
0.00
0.00
0.00
0.00
0.00
0.02
0.02
0.02
0.02
0.00
0.00
0.00
0.00
0.00
0.00
0.00
0.00
0.00
0.00
0.00
0.01
0.00
0.01
0.00
0.00
0.01
0.00
0.00
0.00
0.00
0.01
0.15
0.09
0.26
0.40
0.42
0.15
0.09
0.00
0.07
0.07
0.07
0.07
0.01
0.07
0.07
0.07
0.00
0.57
0.85
0.37
0.80
0.85
0.79
0.62
0.39
0.10
0.07
0.07
0.01
0.02
0.01
0.01
0.00
0.00
0.00
0.00
0.02
0.02
0.03
0.06
0.03
0.15
0.06
0.22
0.09
0.15
0.09
0.01
0.02
0.00
0.00
0.03
0.07
0.10
0.10
0.07
0.03
0.01
0.00
0.02
0.01
0.01
0.01
0.01
0.01
0.01
0.02
0.00
0.02
0.02
0.02
0.02
0.02
0.02
0.00
0.01
0.01
0.01
0.01
0.00
0.02
0.01
0.02
0.02
0.02
0.00
0.00
0.01
0.02
0.00
0.00
0.02
0.00
0.00
0.00
0.00
0.00
0.02
0.06
0.09
0.15
0.15
0.44
0.35
0.15
0.01
0.07
0.10
0.07
0.07
0.02
0.03
0.02
0.02
0.00
0.26
0.67
0.92
0.62
0.81
0.72
0.72
0.62
0.16
0.07
0.03
0.01
0.00
0.00
0.02
0.01
0.03
0.03
0.09
0.09
0.22
0.26
0.26
0.26
0.28
0.26
0.15
0.15
0.06
0.01
0.02
0.00
0.02
0.07
0.10
0.12
0.12
0.19
0.16
0.18
0.11
0.03
0.02
0.00
0.00
0.00
0.00
0.00
0.00
0.00
0.01
0.00
0.01
0.00
0.02
0.00
0.01
0.02
0.03
0.02
0.02
0.03
0.01
0.02
0.02
0.02
0.02
0.01
0.01
0.01
0.01
0.01
0.01
0.00
0.00
0.00
0.00
0.00
0.00
0.00
0.00
0.02
0.15
0.06
0.22
0.22
0.44
0.22
0.15
0.00
0.11
0.07
0.10
0.03
0.03
0.07
0.03
0.07
0.11
0.40
0.70
0.78
0.63
0.72
0.65
0.63
0.62
0.12
0.18
0.11
0.10
0.07
0.03
0.03
0.07
0.03
0.03
0.02
0.03
0.03
0.03
0.02
0.00
0.01
0.02
0.02
0.03
0.01
0.07
0.10
0.12
0.16
0.18
0.16
0.16
0.18
0.18
0.16
0.16
0.11
0.11
0.03
0.07
0.00
0.00
0.00
0.00
0.00
0.00
0.00
0.00
0.00
0.00
0.00
0.00
0.00
0.00
0.00
0.00
0.00
0.00
0.00
0.00
0.01
0.00
0.00
0.00
0.00
0.00
0.00
0.00
0.01
0.00
0.02
0.02
0.03
0.03
0.00
0.02
0.00
0.01
0.35
0.22
0.02
0.00
0.12
0.12
0.16
0.12
0.11
0.18
0.16
0.12
0.12
0.06
0.54
0.86
0.62
0.69
0.66
0.62
0.64
0.16
0.12
0.07
0.03
0.01
0.00
0.00
0.00
0.00
0.00
0.03
0.03
0.06
0.06
0.06
0.15
0.15
0.22
0.22
0.26
0.15
0.26
0.09
0.06
0.03
0.00
0.00
0.01
0.07
0.07
0.07
0.07
0.02
0.01
0.00
0.00
0.02
0.03
0.01
0.03
0.03
0.03
0.03
0.06
0.03
0.03
0.01
0.03
0.03
0.06
0.01
0.01
0.02
0.02
0.00
0.00
0.00
0.00
0.00
0.00
0.00
0.00
0.00
0.00
0.00
0.00
0.00
0.00
0.00
0.00
0.00
0.00
0.00
0.00
0.01
0.00
0.00
0.06
0.00
0.22
0.03
0.44
0.09
0.03
0.00
0.07
0.07
0.07
0.03
0.03
0.03
0.02
0.07
0.02
0.44
0.71
0.86
0.65
0.85
0.67
0.62
0.59
0.03
0.10
0.03
0.02
0.00
0.02
0.01
0.01
0.03
0.03
0.06
0.09
0.22
0.22
0.22
0.28
0.28
0.26
0.35
0.26
0.26
0.22
0.15
0.03
0.01
0.00
0.00
0.02
0.10
0.11
0.12
0.11
0.07
0.03
0.02
0.01
0.00
0.02
0.00
0.02
0.00
0.00
0.00
0.00
0.00
0.00
0.00
0.00
0.02
0.02
0.00
0.00
0.02
0.01
0.02
0.02
0.00
0.00
0.00
0.02
0.00
0.00
0.01
0.00
0.00
0.00
0.00
0.00
0.00
0.00
0.00
0.01
0.00
0.01
0.00
0.02
0.03
0.01
0.22
0.35
0.42
0.03
0.02
0.07
0.10
0.07
0.07
0.07
0.03
0.07
0.03
0.02
0.06
0.60
0.91
0.59
0.72
0.72
0.72
0.63
0.21
0.07
0.03
0.01
0.00
0.00
0.02
0.02
0.02
0.01
0.02
0.03
0.03
0.03
0.03
0.03
0.01
0.06
0.06
0.02
0.00
0.00
0.01
0.07
0.10
0.11
0.18
0.18
0.21
0.25
0.21
0.19
0.16
0.10
0.03
0.03
0.01
0.01
0.00
0.01
0.01
0.02
0.01
0.01
0.01
0.01
0.01
0.03
0.01
0.01
0.02
0.01
0.03
0.01
0.00
0.01
0.01
0.00
0.02
0.01
0.00
0.00
0.01
0.01
0.00
0.00
0.02
0.00
0.02
0.02
0.01
0.01
0.00
0.03
0.02
0.15
0.01
0.42
0.09
0.01
0.01
0.16
0.11
0.19
0.11
0.12
0.18
0.12
0.19
0.21
0.09
0.60
0.74
0.64
0.72
0.68
0.63
0.61
0.18
0.28
0.18
0.11
0.07
0.07
0.07
0.07
0.03
0.07
0.02
0.03
0.02
0.01
0.01
0.01
0.01
0.00
0.00
0.01
0.03
0.02
0.07
0.07
0.07
0.07
0.07
0.10
0.12
0.12
0.12
0.07
0.07
0.07
0.03
0.01
0.01
0.01
0.01
0.02
0.01
0.01
0.01
0.01
0.02
0.00
0.01
0.00
0.03
0.03
0.03
0.03
0.03
0.07
0.07
0.10
0.10
0.07
0.10
0.11
0.12
0.10
0.10
0.11
0.11
0.11
0.11
0.10
0.10
0.11
0.11
0.11
0.07
0.01
0.00
0.00
0.01
0.15
0.28
0.00
0.00
0.10
0.16
0.12
0.11
0.11
0.10
0.11
0.11
0.07
0.02
0.50
0.86
0.62
0.72
0.71
0.70
0.63
0.29
0.11
0.07
0.07
0.01
0.00
0.00
0.00
0.02
0.00
0.00
0.01
0.03
0.06
0.06
0.03
0.06
0.09
0.09
0.09
0.06
0.06
0.01
0.01
0.00
0.01
0.02
0.07
0.12
0.12
0.18
0.16
0.11
0.07
0.02
0.00
0.00
0.00
0.02
0.02
0.02
0.02
0.00
0.02
0.02
0.01
0.01
0.02
0.02
0.02
0.02
0.02
0.00
0.02
0.00
0.00
0.00
0.00
0.00
0.00
0.00
0.00
0.00
0.00
0.00
0.00
0.00
0.01
0.00
0.01
0.01
0.00
0.01
0.02
0.02
0.00
0.02
0.00
0.01
0.00
0.06
0.01
0.40
0.06
0.00
0.02
0.16
0.16
0.18
0.11
0.12
0.12
0.12
0.16
0.12
0.28
0.67
0.82
0.66
0.85
0.70
0.61
0.61
0.19
0.19
0.16
0.12
0.07
0.10
0.03
0.02
0.02
0.01
0.00
0.00
0.00
0.02
0.01
0.03
0.06
0.03
0.01
0.01
0.03
0.02
0.00
0.00
0.03
0.02
0.07
0.10
0.16
0.18
0.19
0.12
0.11
0.07
0.02
0.02
0.00
0.00
0.00
0.00
0.02
0.01
0.00
0.02
0.00
0.02
0.00
0.00
0.00
0.01
0.00
0.00
0.00
0.01
0.01
0.01
0.02
0.00
0.01
0.01
0.02
0.03
0.02
0.02
0.01
0.02
0.02
0.00
0.00
0.01
0.01
0.01
0.02
0.01
0.01
0.02
0.02
0.00
0.02
0.03
0.01
0.28
0.06
0.00
0.02
0.12
0.16
0.12
0.12
0.11
0.11
0.11
0.07
0.10
0.22
0.57
0.91
0.61
0.81
0.66
0.64
0.62
0.16
0.21
0.16
0.12
0.07
0.07
0.03
0.07
0.02
0.01
0.01
0.00
0.01
0.00
0.00
0.00
0.00
0.00
0.01
0.01
0.07
0.07
0.11
0.16
0.19
0.21
0.25
0.32
0.34
0.37
0.32
0.28
0.21
0.18
0.12
0.10
0.07
0.03
0.03
0.02
0.01
0.07
0.02
0.01
0.02
0.07
0.01
0.02
0.02
0.02
0.02
0.02
0.02
0.07
0.07
0.07
0.03
0.02
0.07
0.07
0.07
0.03
0.03
0.07
0.07
0.07
0.07
0.10
0.07
0.07
0.10
0.07
0.03
0.00
0.01
0.00
0.00
0.28
0.01
0.00
0.07
0.19
0.19
0.21
0.12
0.11
0.12
0.12
0.12
0.16
0.22
0.67
0.74
0.64
0.70
0.66
0.62
0.59
0.18
0.28
0.16
0.18
0.11
0.10
0.10
0.10
0.11
0.11
0.07
0.07
0.03
0.03
0.07
0.07
0.10
0.03
0.07
0.12
0.16
0.16
0.18
0.19
0.21
0.25
0.21
0.25
0.21
0.21
0.19
0.16
0.10
0.10
0.07
0.07
0.02
0.01
0.02
0.02
0.07
0.03
0.00
0.03
0.03
0.02
0.07
0.01
0.03
0.07
0.03
0.07
0.03
0.07
0.07
0.03
0.07
0.03
0.07
0.07
0.07
0.03
0.10
0.03
0.07
0.10
0.10
0.10
0.07
0.10
0.03
0.07
0.02
0.00
0.00
0.02
0.15
0.22
0.00
0.00
0.11
0.16
0.12
0.16
0.12
0.12
0.12
0.12
0.16
0.00
0.37
0.78
0.64
0.70
0.68
0.64
0.62
0.29
0.16
0.16
0.10
0.07
0.03
0.02
0.02
0.01
0.01
0.01
0.00
0.00
0.02
0.02
0.01
0.01
0.03
0.03
0.06
0.09
0.06
0.03
0.02
0.02
0.00
0.00
0.02
0.07
0.11
0.12
0.10
0.07
0.07
0.03
0.01
0.00
0.00
0.00
0.00
0.00
0.00
0.00
0.00
0.00
0.00
0.01
0.00
0.01
0.02
0.02
0.02
0.02
0.02
0.02
0.03
0.03
0.01
0.02
0.01
0.01
0.01
0.00
0.00
0.00
0.00
0.00
0.00
0.00
0.00
0.00
0.02
0.22
0.03
0.35
0.26
0.43
0.35
0.15
0.00
0.07
0.03
0.07
0.02
0.03
0.07
0.07
0.10
0.01
0.50
0.82
0.03
0.80
0.86
0.79
0.62
0.42
0.07
0.07
0.01
0.00
0.00
0.00
0.01
0.06
0.09
0.15
0.15
0.22
0.28
0.28
0.37
0.40
0.42
0.42
0.43
0.40
0.42
0.28
0.28
0.15
0.06
0.00
0.01
0.03
0.10
0.07
0.07
0.07
0.03
0.00
0.00
0.02
0.02
0.02
0.01
0.03
0.06
0.03
0.01
0.03
0.06
0.06
0.22
0.09
0.15
0.06
0.15
0.03
0.06
0.06
0.03
0.03
0.01
0.02
0.00
0.00
0.00
0.00
0.00
0.00
0.00
0.00
0.00
0.01
0.01
0.00
0.00
0.00
0.00
0.00
0.00
0.03
0.22
0.06
0.35
0.37
0.43
0.09
0.03
0.03
0.16
0.11
0.11
0.07
0.07
0.10
0.07
0.07
0.01
0.54
0.89
0.58
0.79
0.81
0.75
0.63
0.21
0.07
0.07
0.02
0.00
0.00
0.02
0.01
0.02
0.02
0.01
0.01
0.09
0.15
0.06
0.09
0.15
0.15
0.15
0.22
0.06
0.01
0.01
0.00
0.01
0.02
0.07
0.10
0.16
0.12
0.16
0.10
0.07
0.03
0.01
0.00
0.00
0.00
0.00
0.01
0.01
0.00
0.02
0.02
0.02
0.01
0.02
0.02
0.01
0.01
0.03
0.06
0.03
0.06
0.06
0.06
0.01
0.03
0.03
0.02
0.01
0.02
0.02
0.00
0.02
0.02
0.02
0.00
0.02
0.00
0.02
0.02
0.00
0.00
0.00
0.00
0.02
0.02
0.02
0.15
0.06
0.28
0.09
0.50
0.26
0.22
0.02
0.07
0.03
0.07
0.02
0.01
0.02
0.07
0.02
0.02
0.42
0.66
0.87
0.61
0.72
0.64
0.61
0.61
0.07
0.18
0.10
0.10
0.03
0.02
0.02
0.01
0.01
0.02
0.01
0.00
0.02
0.00
0.00
0.03
0.01
0.01
0.03
0.07
0.03
0.07
0.11
0.16
0.18
0.19
0.19
0.21
0.21
0.21
0.18
0.16
0.12
0.03
0.07
0.01
0.01
0.00
0.01
0.00
0.00
0.00
0.00
0.00
0.00
0.00
0.02
0.00
0.01
0.00
0.02
0.01
0.01
0.00
0.00
0.07
0.00
0.00
0.02
0.02
0.02
0.02
0.02
0.02
0.02
0.03
0.07
0.03
0.07
0.03
0.07
0.07
0.07
0.07
0.07
0.02
0.00
0.00
0.09
0.01
0.42
0.03
0.00
0.01
0.16
0.10
0.16
0.07
0.10
0.10
0.07
0.07
0.11
0.42
0.72
0.58
0.66
0.75
0.68
0.62
0.58
0.11
0.12
0.11
0.07
0.03
0.03
0.03
0.02
0.01
0.00
0.00
0.00
0.00
0.02
0.01
0.01
0.09
0.06
0.15
0.15
0.15
0.09
0.09
0.01
0.01
0.02
0.00
0.02
0.10
0.07
0.07
0.03
0.03
0.03
0.00
0.00
0.00
0.00
0.02
0.02
0.02
0.01
0.01
0.01
0.02
0.01
0.06
0.03
0.01
0.01
0.01
0.00
0.00
0.00
0.00
0.00
0.00
0.00
0.00
0.00
0.01
0.01
0.01
0.00
0.02
0.01
0.02
0.02
0.00
0.01
0.01
0.01
0.01
0.01
0.01
0.02
0.01
0.03
0.01
0.03
0.07
0.03
0.00
0.00
0.01
0.00
0.28
0.03
0.00
0.00
0.18
0.19
0.19
0.11
0.16
0.11
0.11
0.12
0.03
0.40
0.50
0.91
0.62
0.85
0.67
0.66
0.59
0.07
0.07
0.03
0.00
0.00
0.02
0.01
0.03
0.09
0.06
0.22
0.09
0.26
0.22
0.26
0.28
0.26
0.26
0.26
0.26
0.15
0.09
0.03
0.02
0.00
0.02
0.03
0.07
0.11
0.16
0.18
0.18
0.16
0.10
0.07
0.02
0.00
0.00
0.00
0.02
0.02
0.00
0.00
0.00
0.02
0.00
0.02
0.02
0.00
0.02
0.00
0.02
0.00
0.00
0.00
0.02
0.00
0.00
0.00
0.00
0.00
0.00
0.02
0.00
0.00
0.00
0.00
0.02
0.00
0.00
0.00
0.00
0.02
0.00
0.00
0.00
0.00
0.00
0.00
0.00
0.00
0.02
0.09
0.02
0.15
0.09
0.35
0.01
0.00
0.07
0.21
0.21
0.19
0.16
0.16
0.21
0.21
0.28
0.21
0.26
0.72
0.42
0.72
0.86
0.77
0.62
0.62
0.37
0.42
0.32
0.28
0.25
0.25
0.25
0.21
0.19
0.19
0.21
0.21
0.19
0.12
0.18
0.12
0.19
0.16
0.19
0.21
0.21
0.25
0.29
0.37
0.42
0.46
0.48
0.50
0.55
0.52
0.48
0.46
0.42
0.32
0.29
0.21
0.21
0.19
0.18
0.12
0.16
0.16
0.19
0.18
0.18
0.12
0.19
0.18
0.18
0.18
0.18
0.16
0.16
0.21
0.16
0.16
0.16
0.12
0.16
0.19
0.10
0.12
0.11
0.12
0.18
0.16
0.11
0.12
0.11
0.11
0.11
0.11
0.07
0.07
0.10
0.07
0.07
0.07
0.03
0.00
0.00
0.00
0.00
0.22
0.06
0.00
0.01
0.16
0.16
0.16
0.12
0.19
0.12
0.16
0.19
0.19
0.00
0.37
0.80
0.62
0.70
0.68
0.62
0.63
0.25
0.21
0.18
0.12
0.10
0.07
0.07
0.07
0.07
0.03
0.02
0.03
0.03
0.02
0.01
0.02
0.01
0.01
0.01
0.01
0.01
0.01
0.02
0.03
0.07
0.07
0.07
0.07
0.11
0.11
0.12
0.10
0.07
0.03
0.02
0.02
0.01
0.00
0.00
0.01
0.00
0.00
0.00
0.00
0.00
0.00
0.02
0.02
0.00
0.00
0.00
0.00
0.00
0.00
0.00
0.00
0.01
0.00
0.01
0.00
0.00
0.00
0.00
0.00
0.00
0.00
0.00
0.00
0.00
0.00
0.00
0.00
0.00
0.00
0.00
0.00
0.01
0.00
0.03
0.09
0.15
0.09
0.35
0.26
0.01
0.02
0.07
0.11
0.07
0.07
0.03
0.03
0.03
0.07
0.01
0.28
0.48
0.91
0.61
0.83
0.72
0.70
0.64
0.18
0.11
0.10
0.03
0.02
0.02
0.02
0.00
0.00
0.00
0.00
0.00
0.02
0.02
0.01
0.03
0.06
0.06
0.15
0.15
0.15
0.15
0.15
0.03
0.02
0.00
0.02
0.07
0.10
0.12
0.12
0.12
0.12
0.07
0.07
0.01
0.00
0.00
0.00
0.00
0.00
0.00
0.00
0.00
0.00
0.00
0.00
0.00
0.00
0.00
0.00
0.02
0.00
0.00
0.00
0.02
0.00
0.00
0.00
0.00
0.00
0.00
0.00
0.00
0.00
0.01
0.00
0.00
0.00
0.02
0.00
0.01
0.01
0.00
0.01
0.02
0.00
0.01
0.00
0.03
0.01
0.06
0.28
0.28
0.01
0.00
0.07
0.12
0.10
0.11
0.07
0.03
0.07
0.07
0.02
0.01
0.57
0.89
0.58
0.72
0.79
0.75
0.64
0.19
0.07
0.03
0.00
0.00
0.01
0.03
0.01
0.03
0.03
0.06
0.09
0.09
0.06
0.09
0.15
0.22
0.22
0.15
0.22
0.15
0.15
0.06
0.02
0.00
0.01
0.03
0.07
0.11
0.12
0.16
0.12
0.11
0.07
0.02
0.00
0.00
0.00
0.02
0.02
0.02
0.00
0.00
0.01
0.01
0.01
0.03
0.03
0.03
0.06
0.06
0.06
0.06
0.03
0.06
0.06
0.06
0.06
0.03
0.06
0.03
0.03
0.02
0.03
0.03
0.02
0.00
0.00
0.00
0.00
0.00
0.00
0.00
0.01
0.00
0.00
0.00
0.00
0.01
0.00
0.01
0.00
0.00
0.00
0.00
0.03
0.02
0.15
0.01
0.43
0.06
0.01
0.00
0.16
0.12
0.11
0.07
0.07
0.10
0.07
0.07
0.07
0.44
0.74
0.69
0.65
0.75
0.67
0.64
0.42
0.03
0.07
0.07
0.01
0.00
0.00
0.00
0.00
0.00
0.00
0.00
0.00
0.00
0.00
0.02
0.02
0.00
0.02
0.00
0.00
0.00
0.03
0.03
0.07
0.10
0.07
0.10
0.12
0.12
0.12
0.12
0.07
0.03
0.00
0.00
0.02
0.00
0.00
0.02
0.03
0.02
0.01
0.01
0.03
0.02
0.01
0.01
0.02
0.02
0.02
0.01
0.00
0.00
0.00
0.02
0.00
0.00
0.00
0.01
0.00
0.00
0.01
0.00
0.02
0.01
0.00
0.01
0.00
0.01
0.01
0.02
0.01
0.01
0.01
0.02
0.01
0.02
0.03
0.09
0.01
0.37
0.22
0.01
0.00
0.07
0.11
0.11
0.10
0.07
0.10
0.10
0.07
0.07
0.15
0.44
0.84
0.62
0.66
0.64
0.61
0.64
0.18
0.11
0.03
0.03
0.02
0.02
0.00
0.00
0.00
0.00
0.00
0.00
0.00
0.00
0.02
0.02
0.02
0.01
0.03
0.01
0.01
0.02
0.01
0.02
0.00
0.01
0.03
0.03
0.07
0.07
0.10
0.11
0.07
0.02
0.00
0.00
0.02
0.02
0.02
0.01
0.03
0.01
0.01
0.01
0.03
0.01
0.02
0.01
0.01
0.03
0.01
0.01
0.02
0.02
0.01
0.01
0.02
0.00
0.00
0.00
0.00
0.00
0.00
0.00
0.00
0.00
0.00
0.01
0.01
0.00
0.00
0.01
0.01
0.02
0.01
0.00
0.06
0.06
0.03
0.15
0.37
0.37
0.09
0.03
0.03
0.10
0.07
0.07
0.03
0.03
0.02
0.03
0.00
0.15
0.62
0.91
0.63
0.79
0.77
0.72
0.64
0.10
0.02
0.01
0.00
0.02
0.03
0.06
0.15
0.22
0.15
0.26
0.28
0.35
0.40
0.40
0.37
0.42
0.43
0.43
0.43
0.43
0.43
0.42
0.35
0.22
0.15
0.06
0.02
0.00
0.03
0.07
0.07
0.03
0.01
0.00
0.00
0.02
0.01
0.03
0.01
0.01
0.01
0.02
0.03
0.01
0.01
0.01
0.01
0.03
0.06
0.03
0.03
0.03
0.06
0.06
0.06
0.03
0.01
0.03
0.03
0.02
0.01
0.00
0.00
0.02
0.02
0.02
0.00
0.00
0.00
0.00
0.00
0.00
0.00
0.00
0.00
0.00
0.00
0.00
0.00
0.02
0.02
0.09
0.03
0.28
0.15
0.44
0.03
0.01
0.01
0.12
0.11
0.11
0.07
0.07
0.10
0.03
0.07
0.03
0.44
0.80
0.00
0.67
0.81
0.73
0.64
0.32
0.07
0.07
0.02
0.00
0.00
0.00
0.02
0.02
0.02
0.03
0.06
0.06
0.09
0.09
0.22
0.15
0.15
0.15
0.15
0.09
0.06
0.01
0.00
0.01
0.00
0.03
0.07
0.10
0.12
0.18
0.12
0.12
0.07
0.03
0.01
0.00
0.00
0.00
0.02
0.00
0.00
0.00
0.02
0.02
0.00
0.02
0.02
0.02
0.02
0.00
0.02
0.02
0.02
0.02
0.02
0.02
0.03
0.01
0.01
0.02
0.00
0.00
0.01
0.02
0.00
0.00
0.00
0.00
0.00
0.00
0.00
0.01
0.00
0.00
0.00
0.00
0.06
0.06
0.26
0.09
0.44
0.28
0.03
0.00
0.11
0.12
0.10
0.07
0.07
0.03
0.03
0.07
0.07
0.22
0.55
0.87
0.62
0.68
0.65
0.62
0.64
0.18
0.19
0.12
0.11
0.07
0.07
0.07
0.07
0.02
0.03
0.03
0.01
0.03
0.03
0.02
0.01
0.03
0.03
0.03
0.07
0.07
0.07
0.10
0.11
0.12
0.19
0.19
0.18
0.21
0.21
0.21
0.18
0.16
0.16
0.11
0.02
0.03
0.02
0.01
0.00
0.00
0.00
0.00
0.00
0.00
0.02
0.01
0.00
0.01
0.01
0.00
0.00
0.01
0.00
0.02
0.01
0.02
0.02
0.02
0.02
0.02
0.00
0.01
0.01
0.01
0.02
0.01
0.01
0.01
0.02
0.01
0.02
0.03
0.02
0.03
0.01
0.01
0.01
0.15
0.01
0.42
0.22
0.06
0.00
0.10
0.07
0.16
0.07
0.07
0.07
0.10
0.10
0.11
0.35
0.67
0.80
0.65
0.77
0.68
0.62
0.62
0.11
0.18
0.07
0.03
0.01
0.01
0.00
0.00
0.01
0.03
0.03
0.03
0.22
0.22
0.28
0.35
0.35
0.37
0.42
0.42
0.42
0.43
0.37
0.40
0.28
0.22
0.09
0.02
0.00
0.01
0.02
0.07
0.01
0.00
0.00
0.02
0.03
0.03
0.03
0.03
0.09
0.03
0.03
0.06
0.03
0.06
0.03
0.06
0.06
0.03
0.06
0.09
0.03
0.09
0.01
0.03
0.02
0.01
0.01
0.00
0.02
0.00
0.00
0.00
0.00
0.00
0.02
0.00
0.00
0.00
0.00
0.00
0.00
0.02
0.00
0.03
0.15
0.15
0.40
0.26
0.48
0.35
0.22
0.02
0.07
0.07
0.03
0.02
0.00
0.03
0.02
0.02
0.01
0.54
0.74
0.75
0.69
0.85
0.71
0.62
0.46
0.07
0.07
0.02
0.00
0.00
0.00
0.02
0.01
0.03
0.03
0.06
0.06
0.22
0.22
0.22
0.15
0.26
0.35
0.26
0.28
0.28
0.26
0.15
0.09
0.01
0.02
0.00
0.01
0.07
0.07
0.07
0.03
0.01
0.00
0.02
0.01
0.01
0.03
0.06
0.03
0.03
0.01
0.03
0.03
0.01
0.02
0.02
0.02
0.01
0.01
0.03
0.02
0.00
0.01
0.00
0.02
0.02
0.00
0.02
0.00
0.00
0.00
0.00
0.00
0.00
0.00
0.02
0.00
0.00
0.00
0.00
0.00
0.00
0.00
0.00
0.02
0.02
0.02
0.15
0.03
0.37
0.35
0.44
0.26
0.09
0.00
0.10
0.07
0.07
0.03
0.02
0.03
0.02
0.07
0.07
0.44
0.72
0.74
0.66
0.83
0.70
0.61
0.55
0.07
0.12
0.07
0.03
0.01
0.01
0.00
0.00
0.00
0.00
0.00
0.01
0.02
0.00
0.00
0.00
0.02
0.00
0.00
0.01
0.02
0.03
0.11
0.11
0.18
0.18
0.21
0.28
0.32
0.32
0.34
0.32
0.28
0.28
0.21
0.21
0.18
0.19
0.18
0.16
0.16
0.19
0.19
0.18
0.18
0.16
0.16
0.16
0.16
0.12
0.16
0.11
0.11
0.11
0.12
0.11
0.10
0.11
0.10
0.07
0.11
0.07
0.07
0.07
0.07
0.03
0.07
0.03
0.02
0.07
0.02
0.02
0.02
0.02
0.00
0.01
0.01
0.09
0.06
0.44
0.28
0.06
0.01
0.07
0.07
0.11
0.03
0.11
0.11
0.07
0.10
0.16
0.09
0.44
0.84
0.62
0.67
0.65
0.61
0.64
0.19
0.19
0.12
0.10
0.03
0.01
0.02
0.01
0.01
0.01
0.00
0.00
0.00
0.00
0.00
0.00
0.00
0.00
0.00
0.00
0.00
0.00
0.00
0.01
0.02
0.03
0.03
0.07
0.10
0.12
0.16
0.10
0.10
0.07
0.03
0.01
0.00
0.00
0.00
0.00
0.02
0.00
0.01
0.00
0.02
0.00
0.00
0.00
0.00
0.00
0.00
0.00
0.00
0.00
0.00
0.00
0.00
0.00
0.01
0.00
0.01
0.01
0.00
0.00
0.00
0.00
0.00
0.00
0.00
0.00
0.00
0.00
0.00
0.00
0.00
0.02
0.09
0.06
0.35
0.42
0.40
0.22
0.09
0.00
0.03
0.01
0.03
0.03
0.02
0.03
0.03
0.03
0.02
0.54
0.87
0.63
0.75
0.77
0.73
0.64
0.19
0.07
0.03
0.03
0.00
0.00
0.02
0.00
0.01
0.03
0.06
0.15
0.09
0.22
0.26
0.35
0.37
0.37
0.40
0.40
0.42
0.42
0.37
0.28
0.22
0.09
0.03
0.02
0.00
0.02
0.07
0.07
0.03
0.01
0.00
0.00
0.03
0.03
0.03
0.03
0.03
0.03
0.06
0.03
0.03
0.02
0.01
0.03
0.01
0.01
0.02
0.00
0.01
0.02
0.01
0.01
0.02
0.02
0.01
0.00
0.02
0.00
0.02
0.00
0.00
0.00
0.00
0.00
0.02
0.02
0.00
0.02
0.00
0.00
0.00
0.00
0.00
0.00
0.02
0.15
0.06
0.37
0.26
0.50
0.22
0.15
0.00
0.10
0.07
0.07
0.01
0.02
0.01
0.03
0.02
0.00
0.54
0.78
0.70
0.66
0.83
0.68
0.62
0.48
0.02
0.07
0.01
0.00
0.02
0.02
0.01
0.03
0.03
0.03
0.03
0.06
0.15
0.06
0.22
0.22
0.22
0.22
0.28
0.15
0.15
0.06
0.09
0.01
0.00
0.00
0.02
0.03
0.07
0.11
0.07
0.11
0.07
0.01
0.00
0.02
0.03
0.01
0.06
0.03
0.02
0.03
0.01
0.01
0.01
0.02
0.02
0.02
0.01
0.02
0.01
0.01
0.01
0.02
0.01
0.02
0.01
0.02
0.02
0.02
0.02
0.00
0.00
0.00
0.00
0.00
0.00
0.01
0.01
0.01
0.00
0.01
0.01
0.01
0.02
0.01
0.00
0.01
0.00
0.06
0.01
0.26
0.09
0.44
0.15
0.06
0.00
0.11
0.10
0.10
0.07
0.07
0.07
0.07
0.07
0.10
0.40
0.64
0.87
0.62
0.79
0.65
0.62
0.59
0.12
0.18
0.12
0.10
0.07
0.03
0.03
0.07
0.01
0.01
0.02
0.00
0.00
0.01
0.00
0.00
0.02
0.00
0.01
0.03
0.03
0.07
0.10
0.12
0.16
0.18
0.16
0.19
0.21
0.21
0.21
0.19
0.16
0.11
0.07
0.07
0.01
0.01
0.01
0.02
0.00
0.01
0.01
0.01
0.01
0.00
0.01
0.00
0.01
0.01
0.00
0.02
0.02
0.01
0.01
0.02
0.02
0.02
0.02
0.02
0.03
0.03
0.03
0.02
0.07
0.07
0.07
0.02
0.07
0.07
0.03
0.07
0.07
0.03
0.02
0.00
0.01
0.02
0.43
0.22
0.06
0.00
0.10
0.07
0.18
0.12
0.11
0.11
0.12
0.12
0.21
0.06
0.55
0.74
0.65
0.67
0.66
0.62
0.61
0.11
0.16
0.11
0.07
0.03
0.02
0.02
0.01
0.01
0.00
0.01
0.00
0.00
0.00
0.00
0.02
0.00
0.00
0.00
0.00
0.00
0.00
0.02
0.03
0.07
0.07
0.10
0.12
0.16
0.18
0.16
0.16
0.11
0.07
0.07
0.03
0.01
0.01
0.02
0.01
0.02
0.00
0.00
0.00
0.00
0.00
0.01
0.00
0.00
0.00
0.00
0.01
0.00
0.00
0.00
0.01
0.00
0.01
0.01
0.02
0.01
0.03
0.02
0.01
0.03
0.07
0.03
0.07
0.07
0.07
0.07
0.07
0.07
0.00
0.00
0.03
0.01
0.42
0.09
0.06
0.00
0.10
0.11
0.12
0.07
0.10
0.11
0.11
0.10
0.11
0.40
0.62
0.78
0.70
0.86
0.72
0.62
0.59
0.12
0.16
0.11
0.07
0.07
0.03
0.01
0.00
0.01
0.00
0.00
0.02
0.02
0.03
0.06
0.06
0.15
0.15
0.15
0.15
0.09
0.06
0.09
0.01
0.02
0.00
0.01
0.07
0.10
0.11
0.12
0.11
0.10
0.07
0.02
0.00
0.00
0.02
0.00
0.00
0.00
0.00
0.00
0.00
0.00
0.00
0.00
0.00
0.00
0.00
0.00
0.00
0.00
0.00
0.00
0.00
0.00
0.00
0.01
0.00
0.00
0.00
0.00
0.01
0.02
0.01
0.01
0.02
0.03
0.02
0.02
0.01
0.02
0.02
0.02
0.01
0.15
0.09
0.43
0.22
0.06
0.00
0.07
0.11
0.16
0.10
0.10
0.10
0.10
0.10
0.12
0.43
0.62
0.81
0.66
0.85
0.68
0.62
0.59
0.12
0.16
0.11
0.07
0.07
0.07
0.03
0.02
0.02
0.00
0.01
0.00
0.00
0.00
0.00
0.02
0.02
0.01
0.01
0.01
0.02
0.00
0.00
0.02
0.03
0.07
0.11
0.16
0.18
0.19
0.19
0.18
0.16
0.11
0.07
0.02
0.00
0.01
0.00
0.01
0.00
0.01
0.00
0.00
0.02
0.01
0.01
0.01
0.01
0.00
0.00
0.00
0.00
0.00
0.00
0.00
0.00
0.00
0.00
0.01
0.02
0.01
0.00
0.01
0.01
0.02
0.02
0.00
0.01
0.01
0.03
0.02
0.01
0.01
0.02
0.00
0.02
0.00
0.06
0.28
0.35
0.06
0.01
0.07
0.12
0.12
0.11
0.11
0.10
0.11
0.10
0.11
0.00
0.43
0.85
0.58
0.66
0.66
0.68
0.64
0.25
0.16
0.16
0.10
0.07
0.07
0.07
0.07
0.07
0.03
0.07
0.07
0.03
0.07
0.02
0.07
0.07
0.07
0.10
0.10
0.11
0.11
0.18
0.21
0.19
0.21
0.21
0.21
0.21
0.21
0.21
0.21
0.16
0.10
0.07
0.03
0.03
0.01
0.01
0.00
0.01
0.01
0.00
0.01
0.01
0.02
0.01
0.00
0.00
0.00
0.01
0.00
0.01
0.01
0.00
0.00
0.00
0.01
0.00
0.01
0.00
0.01
0.00
0.00
0.00
0.01
0.00
0.01
0.01
0.00
0.01
0.01
0.00
0.06
0.01
0.15
0.42
0.35
0.28
0.09
0.01
0.07
0.07
0.07
0.07
0.11
0.12
0.10
0.11
0.00
0.40
0.82
0.63
0.66
0.65
0.64
0.62
0.32
0.21
0.12
0.16
0.10
0.10
0.07
0.07
0.07
0.03
0.03
0.03
0.00
0.01
0.00
0.00
0.00
0.00
0.00
0.00
0.00
0.00
0.00
0.00
0.03
0.07
0.11
0.10
0.16
0.16
0.12
0.16
0.11
0.07
0.02
0.02
0.00
0.00
0.00
0.00
0.00
0.00
0.00
0.00
0.00
0.00
0.00
0.00
0.00
0.02
0.02
0.00
0.00
0.02
0.02
0.02
0.02
0.02
0.00
0.02
0.01
0.02
0.02
0.02
0.02
0.02
0.02
0.00
0.00
0.00
0.00
0.00
0.00
0.03
0.03
0.22
0.43
0.28
0.28
0.01
0.03
0.07
0.07
0.03
0.07
0.07
0.10
0.07
0.03
0.15
0.44
0.91
0.61
0.83
0.72
0.70
0.64
0.16
0.16
0.11
0.10
0.03
0.02
0.02
0.03
0.03
0.02
0.00
0.00
0.00
0.00
0.02
0.02
0.01
0.03
0.03
0.01
0.06
0.01
0.02
0.00
0.02
0.03
0.02
0.07
0.11
0.16
0.18
0.12
0.10
0.07
0.03
0.01
0.00
0.00
0.00
0.00
0.01
0.01
0.00
0.01
0.00
0.01
0.00
0.00
0.00
0.00
0.00
0.00
0.00
0.02
0.00
0.02
0.02
0.02
0.00
0.02
0.02
0.00
0.00
0.02
0.00
0.00
0.00
0.00
0.00
0.00
0.00
0.00
0.00
0.02
0.09
0.03
0.28
0.26
0.44
0.26
0.09
0.00
0.10
0.07
0.07
0.07
0.07
0.07
0.07
0.07
0.07
0.44
0.72
0.72
0.66
0.81
0.67
0.62
0.58
0.11
0.16
0.10
0.07
0.10
0.02
0.03
0.03
0.03
0.03
0.01
0.00
0.00
0.00
0.00
0.00
0.02
0.00
0.02
0.00
0.00
0.01
0.01
0.03
0.07
0.12
0.11
0.16
0.19
0.19
0.18
0.16
0.11
0.07
0.03
0.01
0.02
0.00
0.00
0.00
0.00
0.00
0.00
0.00
0.01
0.00
0.03
0.02
0.02
0.02
0.01
0.03
0.02
0.02
0.07
0.03
0.02
0.03
0.02
0.02
0.01
0.02
0.03
0.02
0.01
0.02
0.02
0.03
0.01
0.01
0.02
0.02
0.07
0.02
0.02
0.00
0.01
0.00
0.03
0.02
0.40
0.03
0.02
0.02
0.16
0.11
0.12
0.07
0.10
0.11
0.07
0.11
0.16
0.15
0.67
0.72
0.62
0.66
0.65
0.62
0.61
0.18
0.25
0.18
0.18
0.12
0.12
0.11
0.11
0.11
0.10
0.10
0.10
0.10
0.10
0.10
0.07
0.10
0.12
0.12
0.12
0.16
0.16
0.19
0.21
0.28
0.25
0.21
0.29
0.25
0.32
0.21
0.21
0.16
0.10
0.07
0.10
0.07
0.01
0.02
0.02
0.02
0.03
0.02
0.03
0.07
0.07
0.07
0.02
0.07
0.10
0.07
0.11
0.07
0.07
0.07
0.10
0.07
0.07
0.07
0.07
0.07
0.07
0.07
0.07
0.07
0.07
0.07
0.07
0.07
0.07
0.03
0.00
0.02
0.06
0.15
0.22
0.09
0.01
0.03
0.07
0.11
0.12
0.16
0.12
0.16
0.12
0.12
0.19
0.09
0.67
0.35
0.65
0.65
0.70
0.62
0.58
0.16
0.19
0.12
0.11
0.03
0.03
0.07
0.03
0.03
0.02
0.01
0.01
0.00
0.02
0.00
0.00
0.00
0.00
0.00
0.00
0.00
0.01
0.01
0.03
0.07
0.11
0.12
0.18
0.19
0.19
0.18
0.12
0.10
0.07
0.03
0.02
0.00
0.00
0.00
0.00
0.00
0.00
0.00
0.02
0.00
0.00
0.00
0.02
0.00
0.00
0.00
0.00
0.00
0.00
0.00
0.00
0.00
0.00
0.00
0.00
0.00
0.00
0.00
0.00
0.02
0.00
0.00
0.00
0.00
0.00
0.00
0.00
0.01
0.26
0.09
0.35
0.35
0.44
0.26
0.22
0.00
0.07
0.03
0.02
0.02
0.02
0.02
0.02
0.01
0.00
0.58
0.82
0.40
0.70
0.84
0.70
0.62
0.46
0.01
0.02
0.00
0.01
0.06
0.03
0.06
0.09
0.15
0.09
0.22
0.15
0.26
0.22
0.26
0.22
0.35
0.28
0.37
0.35
0.28
0.26
0.22
0.09
0.01
0.00
0.01
0.03
0.10
0.11
0.11
0.10
0.07
0.02
0.00
0.00
0.02
0.01
0.01
0.01
0.00
0.00
0.00
0.00
0.02
0.00
0.02
0.00
0.01
0.01
0.03
0.03
0.01
0.03
0.06
0.06
0.06
0.06
0.06
0.06
0.06
0.03
0.06
0.01
0.03
0.03
0.03
0.01
0.03
0.06
0.09
0.06
0.09
0.03
0.09
0.37
0.40
0.40
0.42
0.55
0.50
0.40
0.35
0.01
0.00
0.00
0.00
0.01
0.02
0.02
0.02
0.03
0.40
0.70
0.92
0.60
0.70
0.70
0.69
0.60
0.10
0.00
0.00
0.02
0.03
0.06
0.09
0.22
0.22
0.15
0.22
0.26
0.22
0.26
0.26
0.26
0.26
0.28
0.35
0.26
0.26
0.15
0.15
0.06
0.01
0.00
0.01
0.01
0.03
0.07
0.07
0.07
0.02
0.00
0.02
0.03
0.06
0.03
0.09
0.09
0.06
0.06
0.09
0.06
0.09
0.22
0.06
0.09
0.09
0.06
0.09
0.09
0.06
0.09
0.09
0.09
0.09
0.03
0.03
0.03
0.03
0.03
0.03
0.01
0.01
0.01
0.03
0.01
0.06
0.02
0.02
0.01
0.02
0.02
0.00
0.02
0.01
0.15
0.03
0.26
0.22
0.50
0.22
0.06
0.00
0.12
0.07
0.07
0.02
0.02
0.03
0.03
0.01
0.07
0.44
0.71
0.85
0.62
0.69
0.64
0.62
0.59
0.07
0.10
0.07
0.02
0.02
0.00
0.00
0.00
0.00
0.00
0.00
0.00
0.00
0.00
0.00
0.01
0.00
0.03
0.02
0.03
0.07
0.10
0.11
0.16
0.18
0.21
0.21
0.21
0.28
0.21
0.21
0.18
0.16
0.07
0.07
0.07
0.01
0.00
0.00
0.00
0.00
0.01
0.00
0.00
0.00
0.00
0.00
0.01
0.00
0.00
0.00
0.00
0.00
0.00
0.00
0.00
0.01
0.00
0.01
0.00
0.00
0.01
0.00
0.00
0.00
0.00
0.00
0.00
0.01
0.02
0.00
0.00
0.01
0.02
0.03
0.02
0.15
0.02
0.42
0.15
0.02
0.00
0.11
0.11
0.16
0.11
0.11
0.18
0.12
0.16
0.16
0.09
0.48
0.82
0.62
0.67
0.65
0.62
0.63
0.29
0.18
0.11
0.10
0.07
0.02
0.02
0.01
0.00
0.00
0.00
0.00
0.02
0.01
0.01
0.02
0.03
0.01
0.03
0.06
0.03
0.01
0.02
0.00
0.00
0.02
0.07
0.11
0.11
0.12
0.12
0.11
0.07
0.07
0.02
0.00
0.00
0.00
0.00
0.00
0.00
0.00
0.00
0.01
0.00
0.00
0.00
0.00
0.00
0.00
0.00
0.00
0.00
0.01
0.02
0.01
0.02
0.02
0.03
0.07
0.03
0.02
0.02
0.02
0.03
0.01
0.00
0.00
0.01
0.01
0.01
0.00
0.00
0.01
0.00
0.02
0.00
0.01
0.06
0.06
0.06
0.28
0.28
0.01
0.00
0.07
0.16
0.11
0.12
0.10
0.11
0.11
0.10
0.07
0.00
0.55
0.87
0.56
0.79
0.84
0.80
0.61
0.37
0.12
0.12
0.07
0.07
0.02
0.01
0.00
0.00
0.00
0.00
0.01
0.03
0.03
0.06
0.06
0.15
0.15
0.22
0.26
0.22
0.15
0.15
0.03
0.00
0.00
0.03
0.07
0.11
0.18
0.21
0.21
0.16
0.11
0.07
0.02
0.02
0.01
0.00
0.00
0.00
0.00
0.00
0.00
0.00
0.00
0.00
0.00
0.00
0.00
0.00
0.00
0.00
0.02
0.01
0.02
0.00
0.00
0.02
0.02
0.03
0.02
0.02
0.00
0.00
0.02
0.00
0.00
0.00
0.00
0.00
0.02
0.00
0.00
0.02
0.02
0.00
0.02
0.00
0.00
0.00
0.00
0.00
0.00
0.09
0.01
0.26
0.06
0.44
0.09
0.01
0.00
0.11
0.10
0.11
0.07
0.07
0.07
0.07
0.07
0.10
0.37
0.66
0.90
0.62
0.82
0.66
0.64
0.61
0.10
0.11
0.07
0.02
0.00
0.00
0.00
0.02
0.01
0.01
0.01
0.01
0.01
0.06
0.06
0.03
0.15
0.09
0.06
0.03
0.01
0.00
0.00
0.01
0.03
0.07
0.07
0.16
0.18
0.19
0.19
0.19
0.16
0.12
0.03
0.02
0.01
0.00
0.01
0.01
0.00
0.01
0.00
0.00
0.01
0.02
0.00
0.01
0.01
0.01
0.00
0.01
0.00
0.00
0.00
0.01
0.00
0.00
0.00
0.00
0.01
0.00
0.00
0.00
0.00
0.00
0.00
0.00
0.00
0.00
0.01
0.00
0.01
0.00
0.00
0.02
0.09
0.03
0.26
0.06
0.44
0.26
0.09
0.00
0.07
0.11
0.07
0.07
0.07
0.07
0.07
0.10
0.07
0.22
0.54
0.87
0.62
0.67
0.65
0.62
0.64
0.21
0.18
0.11
0.07
0.10
0.07
0.07
0.07
0.07
0.02
0.03
0.03
0.07
0.02
0.00
0.02
0.02
0.03
0.02
0.02
0.02
0.02
0.07
0.10
0.07
0.11
0.12
0.16
0.19
0.19
0.18
0.16
0.10
0.10
0.07
0.02
0.02
0.01
0.02
0.00
0.00
0.00
0.00
0.00
0.00
0.00
0.00
0.02
0.01
0.02
0.02
0.02
0.02
0.03
0.07
0.07
0.07
0.07
0.07
0.10
0.07
0.07
0.07
0.07
0.07
0.07
0.07
0.07
0.10
0.07
0.10
0.07
0.07
0.07
0.02
0.00
0.00
0.01
0.06
0.26
0.01
0.02
0.16
0.25
0.21
0.21
0.21
0.21
0.21
0.19
0.18
0.11
0.37
0.78
0.12
0.72
0.82
0.75
0.62
0.42
0.11
0.10
0.10
0.01
0.00
0.00
0.00
0.02
0.01
0.03
0.01
0.03
0.06
0.06
0.22
0.09
0.22
0.15
0.26
0.22
0.22
0.15
0.03
0.01
0.02
0.01
0.02
0.10
0.12
0.12
0.11
0.07
0.07
0.03
0.00
0.00
0.00
0.00
0.00
0.00
0.00
0.02
0.00
0.00
0.00
0.00
0.02
0.02
0.00
0.00
0.02
0.01
0.01
0.02
0.02
0.00
0.02
0.01
0.02
0.02
0.00
0.02
0.00
0.00
0.00
0.01
0.01
0.01
0.01
0.01
0.01
0.01
0.00
0.01
0.00
0.02
0.02
0.00
0.03
0.01
0.09
0.01
0.42
0.22
0.01
0.00
0.11
0.11
0.10
0.07
0.03
0.07
0.03
0.01
0.01
0.43
0.67
0.92
0.62
0.83
0.67
0.65
0.62
0.10
0.10
0.03
0.02
0.01
0.00
0.00
0.03
0.01
0.03
0.03
0.09
0.06
0.09
0.09
0.09
0.15
0.15
0.15
0.15
0.09
0.09
0.03
0.00
0.00
0.02
0.03
0.07
0.11
0.16
0.18
0.18
0.11
0.07
0.03
0.01
0.01
0.00
0.00
0.02
0.00
0.00
0.00
0.00
0.00
0.00
0.02
0.00
0.01
0.01
0.01
0.02
0.01
0.01
0.06
0.01
0.03
0.02
0.03
0.01
0.01
0.01
0.02
0.03
0.02
0.01
0.01
0.01
0.02
0.02
0.02
0.02
0.00
0.00
0.02
0.02
0.00
0.00
0.00
0.02
0.15
0.09
0.26
0.09
0.44
0.15
0.06
0.00
0.12
0.12
0.11
0.07
0.07
0.07
0.11
0.07
0.10
0.37
0.67
0.88
0.62
0.79
0.65
0.61
0.60
0.10
0.12
0.10
0.07
0.02
0.01
0.00
0.00
0.00
0.00
0.00
0.00
0.02
0.00
0.02
0.00
0.00
0.00
0.01
0.02
0.07
0.07
0.10
0.12
0.18
0.21
0.19
0.21
0.29
0.29
0.25
0.21
0.16
0.12
0.10
0.03
0.03
0.02
0.01
0.01
0.03
0.03
0.03
0.03
0.03
0.07
0.07
0.03
0.02
0.02
0.02
0.03
0.07
0.02
0.00
0.01
0.01
0.02
0.02
0.00
0.01
0.01
0.02
0.02
0.03
0.01
0.01
0.02
0.02
0.01
0.02
0.02
0.03
0.01
0.02
0.00
0.02
0.00
0.01
0.06
0.37
0.01
0.02
0.07
0.18
0.12
0.16
0.16
0.10
0.16
0.12
0.16
0.18
0.09
0.67
0.44
0.66
0.67
0.68
0.61
0.58
0.11
0.16
0.12
0.07
0.03
0.01
0.00
0.02
0.00
0.01
0.00
0.00
0.00
0.00
0.00
0.02
0.00
0.00
0.00
0.00
0.01
0.01
0.03
0.07
0.07
0.11
0.12
0.16
0.19
0.21
0.19
0.18
0.12
0.11
0.11
0.07
0.03
0.03
0.01
0.03
0.03
0.02
0.01
0.02
0.02
0.03
0.03
0.03
0.02
0.02
0.03
0.01
0.02
0.02
0.01
0.02
0.01
0.00
0.00
0.01
0.01
0.01
0.00
0.00
0.00
0.00
0.00
0.00
0.00
0.00
0.00
0.00
0.01
0.00
0.06
0.09
0.22
0.15
0.48
0.35
0.15
0.01
0.07
0.07
0.07
0.02
0.07
0.10
0.07
0.07
0.02
0.37
0.66
0.91
0.63
0.85
0.69
0.65
0.64
0.11
0.10
0.03
0.02
0.01
0.00
0.00
0.02
0.02
0.01
0.03
0.06
0.15
0.15
0.22
0.26
0.35
0.28
0.35
0.37
0.28
0.35
0.28
0.22
0.09
0.03
0.00
0.00
0.02
0.07
0.10
0.10
0.07
0.02
0.01
0.00
0.00
0.02
0.01
0.01
0.00
0.00
0.00
0.02
0.00
0.02
0.00
0.00
0.02
0.01
0.02
0.02
0.00
0.01
0.02
0.01
0.00
0.02
0.02
0.00
0.00
0.00
0.01
0.00
0.02
0.00
0.00
0.00
0.00
0.00
0.00
0.00
0.00
0.00
0.01
0.00
0.00
0.00
0.01
0.00
0.01
0.01
0.09
0.09
0.15
0.40
0.35
0.03
0.01
0.07
0.11
0.07
0.07
0.07
0.07
0.07
0.02
0.02
0.15
0.58
0.91
0.63
0.77
0.70
0.72
0.63
0.16
0.07
0.07
0.07
0.02
0.01
0.00
0.00
0.00
0.00
0.00
0.00
0.02
0.01
0.02
0.01
0.01
0.02
0.02
0.00
0.00
0.00
0.01
0.03
0.10
0.16
0.19
0.19
0.21
0.29
0.29
0.29
0.25
0.19
0.16
0.10
0.07
0.03
0.03
0.01
0.02
0.02
0.02
0.02
0.01
0.00
0.02
0.01
0.00
0.00
0.00
0.00
0.00
0.00
0.00
0.00
0.00
0.00
0.00
0.00
0.00
0.00
0.00
0.00
0.00
0.00
0.00
0.00
0.01
0.00
0.00
0.01
0.02
0.03
0.01
0.01
0.02
0.02
0.01
0.00
0.03
0.06
0.03
0.40
0.22
0.03
0.00
0.11
0.12
0.07
0.07
0.10
0.10
0.07
0.11
0.07
0.09
0.43
0.86
0.62
0.66
0.63
0.62
0.64
0.21
0.18
0.10
0.11
0.07
0.02
0.07
0.01
0.00
0.01
0.00
0.02
0.00
0.00
0.00
0.00
0.00
0.00
0.01
0.03
0.03
0.07
0.07
0.10
0.12
0.16
0.18
0.18
0.19
0.18
0.19
0.19
0.16
0.11
0.07
0.02
0.00
0.01
0.01
0.00
0.00
0.00
0.01
0.01
0.01
0.00
0.01
0.02
0.03
0.01
0.01
0.01
0.03
0.03
0.02
0.03
0.03
0.02
0.01
0.03
0.03
0.03
0.01
0.07
0.07
0.07
0.07
0.07
0.07
0.07
0.03
0.07
0.07
0.07
0.00
0.00
0.03
0.01
0.40
0.22
0.03
0.02
0.07
0.07
0.10
0.07
0.07
0.07
0.07
0.07
0.12
0.15
0.50
0.84
0.62
0.66
0.65
0.62
0.63
0.21
0.18
0.10
0.07
0.03
0.01
0.02
0.03
0.00
0.00
0.00
0.00
0.00
0.00
0.02
0.02
0.00
0.02
0.02
0.01
0.01
0.02
0.00
0.00
0.00
0.02
0.07
0.10
0.12
0.16
0.16
0.18
0.12
0.11
0.10
0.07
0.02
0.01
0.01
0.01
0.00
0.00
0.00
0.02
0.00
0.02
0.00
0.02
0.02
0.00
0.00
0.00
0.00
0.00
0.00
0.01
0.00
0.00
0.01
0.01
0.02
0.02
0.00
0.02
0.03
0.03
0.01
0.02
0.01
0.02
0.02
0.07
0.03
0.01
0.02
0.03
0.00
0.03
0.37
0.09
0.00
0.00
0.11
0.21
0.19
0.19
0.19
0.19
0.19
0.21
0.18
0.00
0.42
0.89
0.62
0.84
0.81
0.81
0.62
0.34
0.21
0.19
0.16
0.10
0.07
0.07
0.03
0.02
0.01
0.00
0.00
0.00
0.02
0.01
0.09
0.15
0.09
0.22
0.22
0.22
0.26
0.26
0.15
0.06
0.03
0.02
0.00
0.00
0.03
0.07
0.07
0.02
0.01
0.00
0.02
0.06
0.09
0.09
0.06
0.09
0.06
0.09
0.06
0.03
0.03
0.03
0.09
0.09
0.06
0.03
0.03
0.03
0.09
0.06
0.03
0.01
0.03
0.01
0.01
0.01
0.03
0.01
0.01
0.01
0.02
0.01
0.02
0.03
0.01
0.01
0.02
0.02
0.06
0.06
0.26
0.28
0.26
0.35
0.55
0.42
0.26
0.09
0.02
0.07
0.02
0.02
0.01
0.01
0.01
0.01
0.00
0.15
0.62
0.92
0.63
0.75
0.72
0.72
0.61
0.07
0.02
0.01
0.00
0.00
0.03
0.03
0.06
0.06
0.06
0.09
0.15
0.15
0.15
0.22
0.26
0.26
0.15
0.26
0.15
0.15
0.15
0.06
0.02
0.00
0.02
0.02
0.03
0.07
0.11
0.16
0.07
0.07
0.01
0.01
0.00
0.01
0.06
0.01
0.03
0.06
0.09
0.06
0.03
0.03
0.01
0.03
0.06
0.03
0.03
0.01
0.01
0.01
0.01
0.01
0.02
0.00
0.00
0.00
0.00
0.02
0.01
0.03
0.03
0.01
0.02
0.03
0.03
0.07
0.03
0.03
0.07
0.07
0.07
0.03
0.00
0.00
0.00
0.06
0.09
0.40
0.01
0.01
0.07
0.16
0.11
0.11
0.07
0.11
0.11
0.07
0.10
0.11
0.37
0.72
0.67
0.64
0.70
0.66
0.62
0.58
0.11
0.16
0.11
0.07
0.01
0.01
0.00
0.00
0.00
0.01
0.00
0.00
0.00
0.00
0.00
0.02
0.00
0.00
0.00
0.02
0.02
0.03
0.03
0.10
0.11
0.12
0.12
0.16
0.18
0.19
0.18
0.18
0.11
0.10
0.10
0.07
0.03
0.01
0.01
0.02
0.02
0.02
0.07
0.02
0.03
0.03
0.10
0.07
0.07
0.10
0.07
0.07
0.07
0.03
0.07
0.07
0.07
0.07
0.03
0.02
0.07
0.03
0.03
0.03
0.02
0.03
0.03
0.07
0.03
0.07
0.03
0.07
0.00
0.02
0.00
0.01
0.26
0.26
0.00
0.00
0.11
0.18
0.16
0.18
0.21
0.12
0.19
0.18
0.18
0.11
0.15
0.72
0.21
0.67
0.69
0.68
0.62
0.48
0.16
0.16
0.10
0.07
0.02
0.02
0.01
0.01
0.00
0.00
0.00
0.00
0.02
0.01
0.03
0.03
0.06
0.06
0.06
0.09
0.06
0.03
0.01
0.00
0.00
0.01
0.02
0.11
0.12
0.16
0.12
0.10
0.10
0.07
0.03
0.01
0.01
0.01
0.00
0.00
0.00
0.01
0.01
0.00
0.00
0.01
0.00
0.00
0.01
0.00
0.00
0.00
0.00
0.00
0.02
0.01
0.00
0.00
0.00
0.01
0.00
0.00
0.00
0.00
0.00
0.00
0.00
0.00
0.00
0.02
0.00
0.01
0.01
0.22
0.15
0.22
0.26
0.54
0.28
0.22
0.03
0.03
0.03
0.07
0.02
0.01
0.03
0.03
0.02
0.00
0.44
0.67
0.92
0.64
0.85
0.69
0.66
0.61
0.07
0.03
0.01
0.00
0.02
0.01
0.06
0.06
0.09
0.06
0.09
0.22
0.26
0.22
0.26
0.28
0.35
0.35
0.40
0.35
0.40
0.35
0.28
0.15
0.09
0.03
0.01
0.00
0.02
0.07
0.10
0.07
0.03
0.01
0.00
0.00
0.01
0.03
0.03
0.06
0.02
0.01
0.00
0.02
0.00
0.02
0.00
0.00
0.02
0.00
0.00
0.00
0.02
0.01
0.01
0.01
0.02
0.02
0.02
0.02
0.02
0.02
0.00
0.02
0.02
0.02
0.00
0.00
0.00
0.00
0.00
0.00
0.00
0.00
0.00
0.00
0.00
0.06
0.03
0.22
0.06
0.44
0.26
0.03
0.00
0.10
0.10
0.07
0.03
0.03
0.02
0.01
0.02
0.00
0.37
0.67
0.92
0.61
0.82
0.66
0.62
0.58
0.01
0.03
0.01
0.00
0.02
0.02
0.01
0.03
0.03
0.09
0.09
0.03
0.15
0.06
0.06
0.09
0.09
0.09
0.09
0.06
0.01
0.01
0.00
0.00
0.07
0.07
0.10
0.11
0.11
0.18
0.16
0.16
0.12
0.07
0.03
0.02
0.00
0.00
0.00
0.00
0.00
0.00
0.00
0.00
0.01
0.02
0.01
0.01
0.00
0.01
0.01
0.02
0.00
0.00
0.00
0.01
0.00
0.00
0.00
0.00
0.00
0.01
0.02
0.00
0.00
0.00
0.00
0.00
0.00
0.00
0.00
0.01
0.00
0.00
0.00
0.02
0.06
0.02
0.28
0.15
0.44
0.09
0.03
0.01
0.11
0.07
0.11
0.07
0.11
0.11
0.07
0.10
0.12
0.22
0.69
0.67
0.64
0.66
0.66
0.61
0.58
0.10
0.11
0.07
0.07
0.01
0.00
0.00
0.00
0.00
0.00
0.01
0.01
0.01
0.02
0.00
0.00
0.01
0.01
0.02
0.00
0.02
0.03
0.10
0.07
0.11
0.12
0.12
0.12
0.16
0.19
0.16
0.12
0.10
0.07
0.07
0.03
0.02
0.02
0.01
0.01
0.02
0.00
0.02
0.02
0.03
0.03
0.02
0.03
0.07
0.07
0.07
0.07
0.07
0.03
0.07
0.07
0.03
0.03
0.03
0.03
0.07
0.03
0.03
0.03
0.03
0.02
0.07
0.07
0.03
0.07
0.03
0.00
0.02
0.01
0.01
0.37
0.15
0.01
0.00
0.11
0.11
0.18
0.12
0.12
0.11
0.16
0.11
0.11
0.15
0.60
0.86
0.63
0.81
0.69
0.62
0.64
0.16
0.19
0.07
0.07
0.03
0.02
0.02
0.01
0.00
0.00
0.00
0.00
0.02
0.01
0.03
0.09
0.09
0.15
0.15
0.28
0.15
0.22
0.03
0.06
0.01
0.02
0.00
0.07
0.10
0.11
0.12
0.16
0.10
0.10
0.02
0.01
0.00
0.01
0.00
0.00
0.00
0.00
0.00
0.01
0.00
0.00
0.00
0.00
0.00
0.00
0.00
0.00
0.00
0.00
0.00
0.00
0.02
0.00
0.00
0.00
0.00
0.02
0.02
0.00
0.00
0.00
0.00
0.00
0.00
0.00
0.00
0.00
0.00
0.01
0.06
0.09
0.09
0.44
0.26
0.03
0.00
0.07
0.07
0.10
0.07
0.07
0.07
0.07
0.07
0.01
0.35
0.66
0.92
0.62
0.84
0.69
0.69
0.63
0.07
0.11
0.03
0.02
0.00
0.00
0.00
0.02
0.02
0.03
0.03
0.09
0.09
0.15
0.22
0.22
0.26
0.28
0.22
0.26
0.15
0.22
0.09
0.01
0.00
0.00
0.01
0.01
0.07
0.10
0.11
0.10
0.07
0.02
0.00
0.00
0.02
0.03
0.02
0.03
0.00
0.02
0.02
0.00
0.00
0.00
0.00
0.00
0.00
0.00
0.00
0.00
0.00
0.00
0.00
0.00
0.00
0.00
0.00
0.00
0.00
0.00
0.00
0.02
0.00
0.00
0.02
0.00
0.00
0.00
0.00
0.00
0.00
0.00
0.00
0.00
0.01
0.15
0.03
0.28
0.37
0.40
0.06
0.01
0.03
0.11
0.07
0.07
0.07
0.03
0.07
0.03
0.07
0.02
0.58
0.90
0.64
0.75
0.75
0.72
0.63
0.21
0.07
0.07
0.07
0.01
0.00
0.00
0.00
0.00
0.00
0.01
0.02
0.02
0.02
0.01
0.01
0.01
0.02
0.02
0.00
0.00
0.01
0.03
0.07
0.11
0.12
0.12
0.16
0.21
0.28
0.21
0.21
0.18
0.16
0.11
0.10
0.07
0.02
0.02
0.03
0.02
0.02
0.01
0.01
0.00
0.01
0.00
0.00
0.02
0.00
0.01
0.00
0.00
0.00
0.01
0.02
0.01
0.01
0.01
0.01
0.02
0.02
0.03
0.07
0.03
0.07
0.07
0.07
0.07
0.07
0.03
0.03
0.03
0.03
0.00
0.02
0.00
0.15
0.09
0.40
0.03
0.03
0.10
0.12
0.07
0.11
0.10
0.07
0.10
0.07
0.11
0.11
0.26
0.70
0.58
0.63
0.67
0.66
0.62
0.57
0.11
0.12
0.11
0.11
0.07
0.03
0.02
0.02
0.03
0.02
0.01
0.01
0.01
0.02
0.00
0.02
0.01
0.07
0.02
0.10
0.07
0.07
0.11
0.16
0.18
0.16
0.18
0.19
0.21
0.25
0.21
0.12
0.16
0.11
0.07
0.07
0.03
0.02
0.02
0.02
0.02
0.02
0.02
0.03
0.03
0.07
0.03
0.03
0.07
0.03
0.07
0.03
0.07
0.03
0.07
0.03
0.03
0.02
0.02
0.02
0.03
0.03
0.02
0.02
0.03
0.03
0.03
0.03
0.03
0.03
0.03
0.03
0.00
0.00
0.02
0.03
0.37
0.22
0.01
0.00
0.10
0.11
0.16
0.10
0.12
0.12
0.12
0.16
0.12
0.09
0.54
0.88
0.61
0.75
0.67
0.64
0.64
0.18
0.12
0.10
0.07
0.01
0.02
0.00
0.00
0.00
0.02
0.02
0.02
0.03
0.09
0.09
0.09
0.15
0.22
0.26
0.28
0.26
0.28
0.09
0.06
0.01
0.01
0.00
0.01
0.07
0.11
0.12
0.12
0.10
0.07
0.02
0.01
0.00
0.00
0.02
0.00
0.02
0.02
0.02
0.02
0.00
0.02
0.01
0.00
0.02
0.02
0.00
0.02
0.00
0.02
0.00
0.02
0.02
0.02
0.02
0.02
0.02
0.00
0.02
0.00
0.02
0.00
0.02
0.02
0.02
0.02
0.00
0.00
0.02
0.00
0.00
0.02
0.02
0.15
0.26
0.22
0.26
0.42
0.43
0.28
0.22
0.00
0.07
0.01
0.03
0.00
0.00
0.00
0.00
0.00
0.15
0.62
0.91
0.50
0.72
0.81
0.75
0.64
0.21
0.02
0.02
0.00
0.00
0.01
0.02
0.03
0.06
0.09
0.09
0.06
0.09
0.22
0.26
0.28
0.28
0.26
0.28
0.28
0.26
0.26
0.09
0.06
0.02
0.00
0.01
0.07
0.07
0.10
0.12
0.12
0.11
0.07
0.03
0.01
0.00
0.00
0.00
0.00
0.00
0.00
0.00
0.00
0.00
0.00
0.00
0.02
0.02
0.03
0.03
0.06
0.06
0.06
0.09
0.06
0.09
0.03
0.06
0.06
0.09
0.06
0.06
0.01
0.03
0.03
0.06
0.06
0.03
0.01
0.06
0.06
0.01
0.03
0.01
0.01
0.02
0.02
0.02
0.15
0.15
0.22
0.26
0.42
0.37
0.06
0.01
0.07
0.11
0.07
0.07
0.07
0.07
0.07
0.07
0.03
0.22
0.58
0.91
0.62
0.81
0.67
0.66
0.63
0.16
0.18
0.12
0.11
0.07
0.03
0.03
0.01
0.02
0.00
0.00
0.00
0.00
0.00
0.00
0.00
0.00
0.00
0.00
0.00
0.01
0.00
0.03
0.07
0.10
0.12
0.18
0.16
0.21
0.28
0.21
0.21
0.19
0.11
0.07
0.03
0.01
0.00
0.00
0.00
0.01
0.00
0.00
0.01
0.00
0.02
0.01
0.00
0.00
0.01
0.02
0.00
0.01
0.01
0.00
0.00
0.00
0.00
0.00
0.00
0.00
0.00
0.00
0.00
0.00
0.00
0.01
0.00
0.00
0.01
0.00
0.00
0.01
0.00
0.01
0.09
0.03
0.06
0.42
0.37
0.06
0.01
0.07
0.11
0.11
0.07
0.10
0.07
0.11
0.07
0.10
0.00
0.37
0.81
0.58
0.65
0.65
0.66
0.63
0.29
0.21
0.18
0.11
0.10
0.11
0.07
0.07
0.07
0.07
0.07
0.07
0.07
0.07
0.03
0.07
0.07
0.07
0.07
0.10
0.10
0.12
0.12
0.19
0.16
0.19
0.19
0.19
0.21
0.19
0.19
0.19
0.18
0.11
0.10
0.10
0.03
0.07
0.03
0.02
0.03
0.02
0.03
0.03
0.02
0.07
0.03
0.07
0.03
0.07
0.07
0.07
0.07
0.07
0.07
0.03
0.07
0.03
0.07
0.07
0.03
0.03
0.07
0.07
0.03
0.07
0.07
0.07
0.07
0.10
0.07
0.07
0.02
0.00
0.02
0.06
0.09
0.15
0.03
0.02
0.07
0.16
0.11
0.16
0.11
0.12
0.12
0.11
0.12
0.16
0.28
0.71
0.62
0.66
0.79
0.70
0.62
0.58
0.07
0.12
0.07
0.07
0.02
0.01
0.00
0.00
0.00
0.01
0.01
0.03
0.03
0.09
0.09
0.09
0.15
0.22
0.22
0.15
0.26
0.22
0.22
0.03
0.01
0.00
0.00
0.02
0.10
0.10
0.11
0.10
0.07
0.03
0.01
0.01
0.00
0.00
0.00
0.00
0.00
0.00
0.00
0.00
0.00
0.00
0.01
0.00
0.00
0.01
0.00
0.02
0.01
0.02
0.00
0.02
0.01
0.02
0.01
0.01
0.01
0.00
0.02
0.00
0.00
0.00
0.00
0.00
0.00
0.00
0.00
0.00
0.00
0.01
0.22
0.26
0.26
0.28
0.50
0.37
0.22
0.06
0.01
0.07
0.02
0.01
0.01
0.02
0.02
0.01
0.00
0.40
0.54
0.93
0.62
0.82
0.70
0.70
0.64
0.18
0.12
0.12
0.07
0.07
0.03
0.02
0.00
0.00
0.00
0.00
0.02
0.03
0.09
0.06
0.15
0.15
0.15
0.22
0.22
0.15
0.06
0.06
0.02
0.00
0.00
0.02
0.07
0.10
0.12
0.12
0.12
0.10
0.07
0.02
0.00
0.00
0.00
0.00
0.02
0.00
0.00
0.00
0.00
0.02
0.02
0.02
0.02
0.02
0.01
0.02
0.02
0.02
0.00
0.00
0.02
0.02
0.02
0.02
0.00
0.02
0.02
0.00
0.02
0.00
0.02
0.02
0.02
0.02
0.01
0.02
0.02
0.03
0.22
0.26
0.26
0.35
0.54
0.43
0.37
0.22
0.01
0.02
0.03
0.01
0.01
0.02
0.01
0.00
0.01
0.09
0.60
0.91
0.62
0.75
0.71
0.75
0.64
0.21
0.12
0.10
0.07
0.07
0.02
0.01
0.00
0.00
0.01
0.00
0.00
0.00
0.00
0.00
0.00
0.00
0.02
0.00
0.00
0.02
0.01
0.01
0.03
0.12
0.16
0.18
0.16
0.21
0.19
0.21
0.18
0.12
0.07
0.07
0.00
0.01
0.00
0.02
0.00
0.00
0.00
0.00
0.00
0.00
0.00
0.00
0.00
0.00
0.02
0.00
0.00
0.00
0.00
0.02
0.00
0.00
0.00
0.00
0.00
0.00
0.00
0.00
0.00
0.00
0.00
0.00
0.00
0.00
0.01
0.00
0.00
0.02
0.06
0.09
0.09
0.44
0.35
0.22
0.09
0.03
0.02
0.11
0.03
0.07
0.07
0.10
0.07
0.10
0.22
0.48
0.86
0.62
0.66
0.64
0.61
0.64
0.18
0.18
0.10
0.07
0.03
0.02
0.02
0.01
0.00
0.01
0.00
0.00
0.00
0.00
0.00
0.01
0.00
0.00
0.00
0.01
0.02
0.02
0.02
0.03
0.07
0.11
0.10
0.11
0.16
0.12
0.18
0.12
0.11
0.10
0.07
0.02
0.02
0.00
0.00
0.00
0.00
0.00
0.02
0.00
0.00
0.00
0.01
0.00
0.00
0.00
0.00
0.01
0.01
0.00
0.00
0.01
0.00
0.02
0.00
0.01
0.00
0.01
0.00
0.00
0.00
0.00
0.00
0.01
0.00
0.00
0.00
0.06
0.06
0.22
0.22
0.50
0.35
0.28
0.06
0.03
0.02
0.07
0.02
0.03
0.07
0.07
0.07
0.11
0.44
0.67
0.76
0.67
0.83
0.70
0.63
0.58
0.03
0.12
0.07
0.07
0.00
0.00
0.00
0.00
0.02
0.02
0.01
0.06
0.09
0.06
0.09
0.15
0.15
0.22
0.22
0.15
0.26
0.22
0.03
0.03
0.00
0.00
0.01
0.03
0.10
0.07
0.11
0.07
0.03
0.02
0.00
0.00
0.01
0.01
0.03
0.01
0.01
0.01
0.03
0.01
0.03
0.01
0.01
0.06
0.01
0.03
0.03
0.06
0.03
0.06
0.03
0.06
0.01
0.03
0.03
0.06
0.06
0.01
0.03
0.03
0.06
0.03
0.03
0.01
0.03
0.03
0.03
0.06
0.22
0.28
0.26
0.28
0.55
0.40
0.22
0.09
0.02
0.07
0.10
0.02
0.07
0.03
0.03
0.03
0.03
0.43
0.57
0.91
0.62
0.84
0.67
0.65
0.61
0.07
0.11
0.07
0.03
0.00
0.00
0.00
0.02
0.02
0.02
0.01
0.02
0.01
0.01
0.03
0.03
0.01
0.03
0.03
0.01
0.03
0.02
0.00
0.03
0.07
0.10
0.10
0.16
0.21
0.25
0.25
0.21
0.21
0.16
0.16
0.10
0.10
0.07
0.07
0.07
0.10
0.07
0.10
0.07
0.10
0.10
0.07
0.07
0.03
0.03
0.03
0.02
0.00
0.00
0.01
0.02
0.00
0.00
0.00
0.00
0.00
0.00
0.01
0.00
0.00
0.00
0.01
0.00
0.00
0.00
0.01
0.02
0.00
0.00
0.01
0.02
0.06
0.03
0.44
0.22
0.06
0.00
0.12
0.11
0.16
0.10
0.10
0.12
0.12
0.07
0.12
0.40
0.55
0.87
0.65
0.83
0.66
0.61
0.61
0.10
0.16
0.07
0.07
0.03
0.01
0.00
0.00
0.00
0.01
0.00
0.00
0.02
0.00
0.01
0.02
0.02
0.01
0.00
0.02
0.00
0.01
0.02
0.07
0.07
0.12
0.12
0.18
0.19
0.21
0.19
0.19
0.12
0.07
0.03
0.03
0.02
0.01
0.00
0.00
0.00
0.00
0.02
0.01
0.00
0.00
0.00
0.00
0.00
0.01
0.00
0.02
0.02
0.00
0.01
0.02
0.01
0.02
0.02
0.01
0.02
0.03
0.02
0.03
0.02
0.02
0.02
0.03
0.03
0.02
0.07
0.00
0.02
0.00
0.02
0.40
0.09
0.01
0.00
0.11
0.12
0.19
0.12
0.18
0.18
0.19
0.18
0.19
0.00
0.40
0.86
0.61
0.67
0.64
0.61
0.64
0.18
0.25
0.16
0.12
0.11
0.07
0.07
0.03
0.07
0.07
0.03
0.03
0.03
0.07
0.10
0.03
0.07
0.07
0.12
0.16
0.16
0.18
0.21
0.25
0.28
0.32
0.29
0.32
0.29
0.32
0.28
0.21
0.16
0.16
0.12
0.11
0.07
0.07
0.02
0.07
0.07
0.03
0.03
0.03
0.03
0.03
0.10
0.07
0.03
0.07
0.07
0.07
0.07
0.07
0.07
0.07
0.07
0.10
0.07
0.07
0.07
0.07
0.07
0.07
0.07
0.07
0.07
0.07
0.07
0.02
0.00
0.00
0.01
0.03
0.40
0.15
0.03
0.00
0.10
0.11
0.16
0.12
0.12
0.18
0.16
0.19
0.25
0.03
0.66
0.48
0.68
0.70
0.70
0.62
0.58
0.18
0.18
0.18
0.12
0.07
0.07
0.03
0.07
0.03
0.07
0.03
0.03
0.03
0.01
0.03
0.02
0.02
0.03
0.02
0.02
0.01
0.02
0.03
0.07
0.10
0.10
0.10
0.12
0.19
0.21
0.19
0.16
0.11
0.07
0.07
0.02
0.02
0.00
0.00
0.00
0.00
0.00
0.00
0.00
0.00
0.00
0.00
0.00
0.01
0.01
0.00
0.01
0.01
0.00
0.02
0.01
0.03
0.02
0.02
0.03
0.07
0.07
0.02
0.03
0.07
0.03
0.07
0.07
0.03
0.07
0.01
0.00
0.00
0.02
0.40
0.09
0.06
0.00
0.07
0.10
0.12
0.10
0.11
0.12
0.12
0.10
0.11
0.15
0.43
0.91
0.62
0.85
0.77
0.73
0.63
0.19
0.11
0.11
0.07
0.07
0.00
0.00
0.00
0.00
0.02
0.03
0.06
0.06
0.06
0.09
0.15
0.26
0.26
0.26
0.28
0.26
0.26
0.22
0.06
0.03
0.00
0.00
0.01
0.07
0.10
0.12
0.11
0.10
0.07
0.02
0.00
0.00
0.00
0.00
0.01
0.00
0.01
0.00
0.00
0.00
0.01
0.01
0.01
0.00
0.00
0.00
0.00
0.00
0.00
0.02
0.02
0.01
0.02
0.03
0.01
0.01
0.01
0.02
0.01
0.02
0.01
0.00
0.02
0.01
0.02
0.01
0.01
0.03
0.22
0.09
0.37
0.42
0.44
0.28
0.22
0.00
0.03
0.02
0.03
0.02
0.01
0.02
0.02
0.03
0.00
0.54
0.85
0.25
0.71
0.81
0.72
0.64
0.25
0.03
0.07
0.00
0.00
0.02
0.00
0.02
0.02
0.03
0.06
0.09
0.06
0.06
0.09
0.09
0.15
0.15
0.06
0.09
0.09
0.06
0.01
0.00
0.00
0.00
0.03
0.03
0.10
0.12
0.07
0.07
0.03
0.00
0.00
0.01
0.03
0.06
0.03
0.01
0.01
0.01
0.01
0.03
0.02
0.01
0.03
0.06
0.03
0.03
0.03
0.03
0.03
0.19
0.01
0.03
0.00
0.56
0.62
0.61
0.40
0.84
0.95
0.97
0.97
0.97
0.97
0.95
0.78
0.44
0.62
0.10
0.03
0.07
0.03
0.00
0.02
0.10
0.18
0.32
0.48
0.52
0.55
0.56
0.58
0.62
0.64
0.64
0.62
0.62
0.62
0.62
0.63
0.64
0.58
0.50
0.29
0.21
0.10
0.03
0.00
0.00
0.00
0.02
0.00
0.00
0.01
0.02
0.02
0.03
0.02
0.01
0.02
0.00
0.00
0.02
0.00
0.00
0.00
0.02
0.00
0.00
0.00
0.00
0.00
0.00
0.00
0.00
0.00
0.00
0.00
0.00
0.00
0.00
0.00
0.00
0.00
0.01
0.01
0.02
0.02
0.00
0.02
0.02
0.02
0.03
0.03
0.03
0.02
0.03
0.03
0.07
0.07
0.07
0.07
0.07
0.07
0.03
0.07
0.07
0.07
0.07
0.03
0.07
0.02
0.02
0.02
0.02
0.00
0.03
0.02
0.06
0.44
0.37
0.40
0.09
0.00
0.01
0.07
0.03
0.03
0.07
0.07
0.11
0.21
0.01
0.57
0.74
0.60
0.63
0.65
0.62
0.62
0.18
0.19
0.12
0.10
0.07
0.07
0.03
0.03
0.00
0.00
0.00
0.01
0.00
0.00
0.00
0.00
0.00
0.00
0.00
0.00
0.00
0.00
0.00
0.00
0.00
0.00
0.00
0.01
0.07
0.12
0.19
0.21
0.25
0.19
0.11
0.10
0.07
0.01
0.02
0.00
0.00
0.00
0.00
0.00
0.00
0.00
0.00
0.00
0.00
0.00
0.00
0.01
0.16
0.56
0.63
0.62
0.52
0.78
0.97
1.00
1.00
1.00
1.00
0.99
0.97
0.97
1.00
1.00
0.97
0.88
0.03
0.52
0.56
0.61
0.62
0.62
0.62
0.62
0.61
0.64
0.67
0.70
0.75
0.82
0.85
0.86
0.87
0.88
0.88
0.88
0.88
0.89
0.88
0.88
0.87
0.86
0.81
0.65
0.62
0.64
0.57
0.42
0.34
0.21
0.21
0.18
0.18
0.18
0.16
0.16
0.16
0.12
0.12
0.12
0.12
0.12
0.12
0.12
0.11
0.10
0.10
0.11
0.11
0.11
0.07
0.07
0.07
0.03
0.03
0.07
0.03
0.03
0.07
0.03
0.07
0.07
0.03
0.07
0.07
0.07
0.07
0.07
0.10
0.10
0.10
0.07
0.07
0.07
0.07
0.07
0.07
0.03
0.07
0.03
0.03
0.07
0.07
0.03
0.03
0.07
0.07
0.07
0.07
0.07
0.00
0.00
0.03
0.22
0.37
0.09
0.06
0.01
0.11
0.07
0.12
0.11
0.10
0.11
0.11
0.12
0.07
0.42
0.89
0.55
0.71
0.80
0.79
0.63
0.34
0.19
0.19
0.11
0.10
0.07
0.07
0.02
0.02
0.02
0.02
0.00
0.00
0.00
0.00
0.00
0.02
0.00
0.02
0.00
0.00
0.00
0.02
0.00
0.00
0.00
0.00
0.00
0.02
0.10
0.18
0.25
0.32
0.28
0.25
0.21
0.19
0.12
0.11
0.10
0.10
0.10
0.07
0.07
0.07
0.03
0.03
0.07
0.01
0.00
0.01
0.02
0.01
0.01
0.00
0.02
0.00
0.01
0.03
0.02
0.02
0.03
0.02
0.07
0.07
0.03
0.01
0.01
0.00
0.01
0.37
0.06
0.09
0.03
0.11
0.10
0.18
0.19
0.11
0.21
0.18
0.12
0.21
0.02
0.54
0.84
0.63
0.72
0.66
0.61
0.64
0.21
0.28
0.21
0.18
0.16
0.11
0.12
0.11
0.11
0.11
0.11
0.07
0.07
0.07
0.10
0.03
0.07
0.07
0.10
0.11
0.11
0.12
0.12
0.18
0.18
0.18
0.19
0.16
0.21
0.19
0.18
0.12
0.10
0.07
0.02
0.01
0.00
0.00
0.02
0.02
0.00
0.00
0.02
0.00
0.00
0.00
0.00
0.00
0.00
0.00
0.00
0.00
0.02
0.01
0.01
0.02
0.01
0.01
0.01
0.01
0.03
0.02
0.00
0.02
0.01
0.00
0.03
0.00
0.06
0.43
0.42
0.40
0.28
0.01
0.01
0.00
0.02
0.07
0.03
0.07
0.07
0.07
0.07
0.28
0.72
0.26
0.70
0.72
0.70
0.61
0.58
0.10
0.12
0.07
0.07
0.07
0.03
0.01
0.01
0.00
0.01
0.00
0.00
0.00
0.00
0.00
0.00
0.00
0.00
0.00
0.00
0.00
0.00
0.00
0.03
0.02
0.07
0.07
0.11
0.16
0.18
0.16
0.16
0.10
0.07
0.03
0.01
0.01
0.00
0.02
0.00
0.00
0.00
0.00
0.01
0.02
0.01
0.01
0.02
0.01
0.01
0.02
0.02
0.00
0.02
0.02
0.00
0.02
0.00
0.00
0.00
0.00
0.00
0.00
0.00
0.02
0.06
0.09
0.22
0.26
0.55
0.37
0.37
0.06
0.00
0.00
0.03
0.02
0.00
0.03
0.03
0.03
0.02
0.50
0.70
0.89
0.68
0.86
0.72
0.62
0.58
0.02
0.07
0.00
0.00
0.02
0.00
0.01
0.03
0.03
0.09
0.06
0.15
0.22
0.28
0.28
0.37
0.37
0.40
0.42
0.43
0.42
0.37
0.37
0.35
0.26
0.15
0.06
0.02
0.00
0.02
0.01
0.01
0.00
0.00
0.01
0.01
0.03
0.01
0.06
0.06
0.01
0.01
0.02
0.03
0.01
0.06
0.03
0.09
0.06
0.15
0.22
0.09
0.26
0.22
0.22
0.26
0.22
0.15
0.15
0.15
0.15
0.09
0.06
0.03
0.01
0.06
0.06
0.22
0.28
0.26
0.40
0.57
0.44
0.44
0.28
0.02
0.00
0.00
0.00
0.00
0.00
0.00
0.00
0.00
0.28
0.58
0.92
0.63
0.81
0.79
0.77
0.62
0.10
0.07
0.02
0.00
0.00
0.03
0.03
0.01
0.03
0.01
0.06
0.09
0.09
0.09
0.09
0.15
0.22
0.22
0.15
0.09
0.15
0.06
0.03
0.02
0.00
0.00
0.01
0.01
0.07
0.10
0.11
0.11
0.07
0.01
0.00
0.00
0.02
0.01
0.02
0.02
0.00
0.00
0.00
0.00
0.00
0.00
0.00
0.00
0.00
0.00
0.02
0.00
0.02
0.02
0.02
0.00
0.02
0.02
0.01
0.01
0.01
0.03
0.02
0.01
0.01
0.03
0.03
0.01
0.03
0.09
0.28
0.15
0.42
0.37
0.50
0.37
0.15
0.00
0.07
0.07
0.11
0.11
0.12
0.19
0.18
0.18
0.19
0.15
0.67
0.62
0.70
0.85
0.75
0.62
0.64
0.39
0.42
0.39
0.34
0.32
0.29
0.29
0.28
0.29
0.29
0.28
0.25
0.21
0.25
0.25
0.25
0.25
0.21
0.28
0.25
0.34
0.34
0.34
0.37
0.39
0.39
0.42
0.46
0.39
0.37
0.34
0.29
0.21
0.21
0.12
0.12
0.12
0.10
0.10
0.10
0.12
0.10
0.11
0.07
0.10
0.07
0.10
0.07
0.10
0.07
0.07
0.10
0.07
0.07
0.07
0.02
0.03
0.03
0.01
0.02
0.02
0.07
0.02
0.00
0.01
0.02
0.01
0.01
0.00
0.03
0.01
0.09
0.44
0.35
0.26
0.15
0.01
0.02
0.10
0.07
0.07
0.07
0.07
0.11
0.11
0.03
0.43
0.82
0.63
0.72
0.69
0.64
0.62
0.28
0.21
0.12
0.10
0.07
0.07
0.03
0.02
0.01
0.00
0.01
0.01
0.00
0.00
0.02
0.00
0.00
0.00
0.02
0.02
0.02
0.00
0.00
0.00
0.00
0.01
0.01
0.07
0.07
0.07
0.07
0.02
0.01
0.00
0.00
0.01
0.01
0.01
0.01
0.03
0.01
0.03
0.01
0.01
0.01
0.01
0.02
0.01
0.02
0.00
0.00
0.00
0.00
0.00
0.00
0.00
0.00
0.00
0.00
0.00
0.00
0.02
0.02
0.00
0.00
0.00
0.01
0.02
0.26
0.06
0.35
0.28
0.50
0.40
0.35
0.03
0.00
0.01
0.02
0.01
0.00
0.01
0.01
0.00
0.00
0.58
0.78
0.57
0.72
0.86
0.72
0.62
0.55
0.00
0.00
0.00
0.02
0.06
0.06
0.09
0.09
0.15
0.22
0.22
0.26
0.28
0.26
0.35
0.37
0.40
0.40
0.37
0.40
0.40
0.37
0.22
0.15
0.03
0.01
0.00
0.02
0.07
0.11
0.07
0.07
0.01
0.00
0.00
0.02
0.03
0.01
0.01
0.02
0.02
0.02
0.00
0.02
0.00
0.00
0.02
0.01
0.02
0.02
0.01
0.01
0.01
0.01
0.02
0.02
0.00
0.02
0.02
0.02
0.00
0.00
0.00
0.00
0.02
0.00
0.00
0.00
0.00
0.02
0.06
0.03
0.26
0.26
0.48
0.37
0.09
0.03
0.07
0.02
0.07
0.02
0.03
0.03
0.02
0.02
0.01
0.54
0.67
0.87
0.67
0.86
0.67
0.61
0.58
0.03
0.07
0.03
0.02
0.00
0.00
0.00
0.00
0.00
0.02
0.01
0.03
0.06
0.03
0.09
0.09
0.22
0.22
0.15
0.09
0.09
0.09
0.02
0.00
0.01
0.03
0.07
0.10
0.12
0.12
0.11
0.10
0.03
0.02
0.00
0.00
0.02
0.00
0.02
0.00
0.00
0.02
0.02
0.00
0.02
0.02
0.00
0.01
0.01
0.01
0.01
0.01
0.01
0.03
0.01
0.01
0.01
0.03
0.01
0.01
0.01
0.03
0.02
0.01
0.01
0.02
0.03
0.00
0.00
0.02
0.02
0.00
0.01
0.15
0.02
0.28
0.22
0.42
0.15
0.09
0.01
0.10
0.07
0.07
0.07
0.07
0.07
0.10
0.10
0.02
0.44
0.78
0.26
0.65
0.73
0.67
0.63
0.52
0.07
0.12
0.07
0.03
0.01
0.00
0.01
0.00
0.00
0.00
0.00
0.02
0.02
0.00
0.02
0.03
0.07
0.07
0.07
0.10
0.12
0.12
0.18
0.18
0.19
0.21
0.21
0.21
0.21
0.18
0.16
0.12
0.11
0.03
0.03
0.01
0.01
0.01
0.00
0.02
0.01
0.00
0.00
0.01
0.00
0.00
0.00
0.00
0.01
0.00
0.00
0.00
0.01
0.00
0.00
0.00
0.00
0.00
0.00
0.01
0.00
0.00
0.01
0.01
0.01
0.01
0.01
0.00
0.01
0.00
0.06
0.00
0.15
0.40
0.28
0.22
0.15
0.00
0.03
0.07
0.07
0.07
0.03
0.07
0.07
0.11
0.00
0.43
0.80
0.61
0.68
0.68
0.66
0.61
0.32
0.16
0.12
0.10
0.03
0.07
0.02
0.03
0.00
0.00
0.00
0.00
0.00
0.02
0.01
0.03
0.03
0.06
0.06
0.09
0.09
0.09
0.06
0.01
0.01
0.00
0.00
0.01
0.07
0.07
0.07
0.07
0.03
0.02
0.00
0.00
0.02
0.00
0.00
0.01
0.01
0.01
0.03
0.03
0.00
0.01
0.01
0.01
0.01
0.01
0.02
0.02
0.02
0.02
0.00
0.00
0.00
0.00
0.00
0.00
0.00
0.00
0.01
0.01
0.01
0.03
0.02
0.01
0.01
0.02
0.02
0.02
0.00
0.01
0.03
0.15
0.09
0.43
0.22
0.06
0.00
0.07
0.07
0.10
0.03
0.03
0.07
0.03
0.03
0.01
0.48
0.62
0.89
0.66
0.86
0.69
0.62
0.60
0.07
0.07
0.02
0.02
0.00
0.00
0.02
0.02
0.02
0.01
0.01
0.03
0.06
0.06
0.06
0.09
0.15
0.15
0.15
0.09
0.09
0.03
0.03
0.02
0.00
0.02
0.07
0.10
0.10
0.12
0.12
0.12
0.10
0.03
0.02
0.00
0.00
0.00
0.00
0.00
0.00
0.00
0.00
0.00
0.00
0.00
0.00
0.00
0.02
0.02
0.01
0.00
0.00
0.02
0.02
0.02
0.00
0.00
0.00
0.00
0.00
0.00
0.00
0.01
0.01
0.00
0.00
0.00
0.01
0.01
0.01
0.00
0.01
0.00
0.00
0.09
0.01
0.26
0.09
0.44
0.22
0.03
0.00
0.10
0.10
0.10
0.03
0.07
0.07
0.07
0.07
0.03
0.44
0.58
0.91
0.63
0.84
0.67
0.62
0.60
0.10
0.12
0.07
0.03
0.02
0.01
0.01
0.00
0.02
0.00
0.02
0.00
0.01
0.01
0.03
0.01
0.06
0.03
0.06
0.03
0.02
0.00
0.01
0.03
0.07
0.10
0.16
0.18
0.18
0.19
0.18
0.16
0.12
0.07
0.03
0.02
0.00
0.01
0.01
0.01
0.00
0.02
0.01
0.01
0.00
0.00
0.00
0.00
0.00
0.00
0.00
0.00
0.00
0.00
0.00
0.00
0.00
0.00
0.00
0.00
0.00
0.00
0.00
0.01
0.01
0.02
0.01
0.01
0.01
0.03
0.01
0.01
0.03
0.01
0.00
0.02
0.15
0.02
0.42
0.09
0.01
0.01
0.18
0.18
0.21
0.18
0.16
0.18
0.18
0.19
0.25
0.09
0.50
0.79
0.61
0.71
0.66
0.63
0.62
0.19
0.21
0.19
0.12
0.10
0.07
0.07
0.10
0.07
0.03
0.02
0.03
0.07
0.03
0.07
0.07
0.07
0.07
0.10
0.07
0.07
0.11
0.12
0.18
0.18
0.18
0.19
0.21
0.21
0.25
0.25
0.21
0.18
0.16
0.12
0.11
0.10
0.11
0.10
0.10
0.10
0.07
0.07
0.10
0.10
0.10
0.07
0.11
0.10
0.12
0.11
0.12
0.16
0.12
0.16
0.16
0.11
0.12
0.10
0.10
0.12
0.07
0.10
0.10
0.07
0.07
0.10
0.03
0.03
0.02
0.03
0.02
0.02
0.03
0.06
0.06
0.42
0.28
0.09
0.01
0.07
0.10
0.10
0.07
0.10
0.11
0.10
0.11
0.10
0.15
0.50
0.87
0.63
0.68
0.66
0.64
0.63
0.19
0.18
0.10
0.07
0.03
0.02
0.02
0.00
0.00
0.00
0.02
0.01
0.02
0.09
0.15
0.15
0.26
0.26
0.28
0.28
0.28
0.28
0.22
0.09
0.03
0.02
0.02
0.02
0.03
0.10
0.10
0.07
0.10
0.03
0.01
0.00
0.00
0.00
0.02
0.01
0.01
0.01
0.01
0.02
0.01
0.01
0.03
0.01
0.01
0.00
0.02
0.00
0.00
0.00
0.00
0.01
0.00
0.02
0.02
0.02
0.02
0.01
0.01
0.02
0.03
0.02
0.01
0.01
0.01
0.00
0.01
0.00
0.00
0.01
0.00
0.02
0.15
0.01
0.28
0.15
0.43
0.09
0.06
0.02
0.12
0.10
0.11
0.03
0.07
0.07
0.07
0.10
0.07
0.50
0.78
0.55
0.69
0.85
0.72
0.63
0.58
0.10
0.16
0.07
0.03
0.01
0.00
0.00
0.00
0.00
0.01
0.01
0.03
0.03
0.09
0.09
0.22
0.26
0.15
0.26
0.26
0.15
0.09
0.06
0.03
0.02
0.00
0.00
0.07
0.07
0.10
0.11
0.07
0.02
0.01
0.00
0.02
0.02
0.03
0.01
0.01
0.01
0.01
0.01
0.02
0.02
0.00
0.01
0.02
0.02
0.00
0.00
0.00
0.00
0.00
0.00
0.00
0.00
0.02
0.02
0.02
0.00
0.00
0.00
0.00
0.00
0.00
0.00
0.00
0.00
0.00
0.00
0.00
0.06
0.06
0.09
0.15
0.48
0.37
0.22
0.03
0.07
0.07
0.07
0.01
0.07
0.03
0.07
0.07
0.03
0.35
0.62
0.91
0.62
0.82
0.67
0.65
0.64
0.16
0.19
0.16
0.10
0.07
0.07
0.03
0.01
0.00
0.01
0.00
0.00
0.02
0.00
0.03
0.02
0.01
0.02
0.03
0.02
0.02
0.00
0.00
0.02
0.07
0.10
0.11
0.16
0.16
0.16
0.18
0.12
0.11
0.07
0.02
0.01
0.00
0.00
0.00
0.00
0.00
0.00
0.00
0.00
0.00
0.00
0.00
0.00
0.00
0.00
0.00
0.01
0.00
0.00
0.00
0.00
0.00
0.00
0.00
0.00
0.00
0.00
0.00
0.00
0.00
0.02
0.00
0.00
0.00
0.01
0.00
0.01
0.02
0.06
0.02
0.06
0.40
0.28
0.26
0.03
0.07
0.12
0.10
0.12
0.12
0.11
0.16
0.12
0.16
0.16
0.06
0.72
0.18
0.64
0.65
0.67
0.62
0.48
0.18
0.16
0.16
0.11
0.07
0.07
0.03
0.03
0.03
0.07
0.07
0.01
0.03
0.03
0.03
0.02
0.02
0.03
0.07
0.07
0.07
0.10
0.07
0.11
0.12
0.18
0.11
0.16
0.12
0.16
0.16
0.12
0.07
0.02
0.01
0.00
0.00
0.00
0.00
0.00
0.00
0.01
0.00
0.00
0.01
0.01
0.02
0.03
0.02
0.03
0.07
0.07
0.07
0.10
0.07
0.07
0.10
0.10
0.07
0.07
0.07
0.07
0.07
0.07
0.07
0.03
0.02
0.02
0.02
0.02
0.02
0.01
0.15
0.09
0.48
0.40
0.37
0.15
0.00
0.02
0.02
0.00
0.02
0.03
0.03
0.02
0.02
0.15
0.54
0.87
0.63
0.68
0.67
0.66
0.62
0.28
0.11
0.07
0.07
0.01
0.01
0.00
0.00
0.00
0.01
0.02
0.03
0.03
0.09
0.09
0.22
0.22
0.28
0.35
0.37
0.35
0.37
0.35
0.28
0.26
0.15
0.03
0.01
0.00
0.01
0.01
0.01
0.00
0.00
0.00
0.01
0.01
0.01
0.03
0.03
0.01
0.06
0.02
0.01
0.01
0.06
0.02
0.01
0.02
0.03
0.01
0.02
0.00
0.02
0.00
0.00
0.02
0.00
0.00
0.00
0.00
0.00
0.00
0.00
0.00
0.00
0.00
0.01
0.00
0.00
0.00
0.00
0.00
0.06
0.06
0.22
0.22
0.55
0.40
0.28
0.09
0.01
0.03
0.07
0.01
0.03
0.07
0.03
0.07
0.03
0.42
0.57
0.89
0.64
0.85
0.68
0.62
0.62
0.07
0.12
0.07
0.07
0.01
0.01
0.00
0.00
0.02
0.03
0.06
0.09
0.09
0.15
0.15
0.26
0.26
0.26
0.26
0.26
0.26
0.22
0.09
0.03
0.00
0.02
0.00
0.02
0.07
0.11
0.07
0.03
0.02
0.00
0.00
0.02
0.02
0.01
0.00
0.00
0.00
0.00
0.00
0.00
0.02
0.01
0.01
0.01
0.00
0.00
0.00
0.00
0.00
0.00
0.00
0.00
0.00
0.00
0.00
0.00
0.00
0.01
0.00
0.00
0.00
0.00
0.00
0.00
0.00
0.00
0.00
0.00
0.01
0.01
0.06
0.06
0.43
0.22
0.03
0.00
0.11
0.11
0.16
0.07
0.10
0.10
0.11
0.07
0.07
0.37
0.67
0.91
0.62
0.82
0.66
0.62
0.61
0.07
0.12
0.03
0.01
0.00
0.00
0.00
0.02
0.02
0.02
0.02
0.02
0.02
0.02
0.02
0.00
0.00
0.00
0.00
0.00
0.01
0.07
0.10
0.12
0.19
0.21
0.21
0.28
0.29
0.29
0.21
0.21
0.19
0.16
0.10
0.07
0.02
0.03
0.02
0.03
0.03
0.02
0.07
0.07
0.07
0.03
0.03
0.02
0.02
0.03
0.02
0.03
0.02
0.03
0.03
0.07
0.07
0.07
0.03
0.10
0.07
0.07
0.10
0.07
0.07
0.10
0.10
0.07
0.07
0.07
0.07
0.07
0.03
0.00
0.02
0.00
0.22
0.06
0.01
0.00
0.11
0.19
0.19
0.16
0.18
0.19
0.21
0.19
0.19
0.02
0.26
0.80
0.62
0.66
0.66
0.65
0.62
0.42
0.32
0.21
0.21
0.18
0.19
0.16
0.12
0.07
0.16
0.11
0.07
0.07
0.10
0.10
0.07
0.10
0.07
0.11
0.10
0.12
0.12
0.11
0.12
0.18
0.19
0.19
0.18
0.18
0.21
0.21
0.19
0.18
0.12
0.11
0.10
0.07
0.10
0.03
0.07
0.03
0.07
0.07
0.03
0.07
0.03
0.07
0.03
0.07
0.10
0.07
0.07
0.10
0.07
0.07
0.07
0.07
0.07
0.07
0.07
0.03
0.03
0.03
0.03
0.03
0.02
0.02
0.03
0.03
0.00
0.00
0.06
0.01
0.42
0.09
0.09
0.00
0.10
0.10
0.16
0.12
0.10
0.16
0.16
0.16
0.18
0.26
0.66
0.78
0.65
0.81
0.70
0.62
0.60
0.16
0.21
0.11
0.07
0.07
0.03
0.07
0.01
0.02
0.00
0.00
0.02
0.00
0.03
0.06
0.06
0.15
0.15
0.26
0.26
0.26
0.26
0.09
0.06
0.03
0.02
0.00
0.03
0.10
0.10
0.11
0.07
0.03
0.07
0.00
0.00
0.00
0.00
0.00
0.00
0.00
0.00
0.02
0.00
0.02
0.02
0.00
0.02
0.00
0.02
0.00
0.00
0.00
0.00
0.00
0.00
0.00
0.00
0.01
0.01
0.02
0.01
0.01
0.01
0.02
0.02
0.01
0.01
0.01
0.02
0.00
0.00
0.00
0.09
0.02
0.22
0.26
0.44
0.22
0.22
0.02
0.07
0.07
0.07
0.07
0.03
0.10
0.10
0.10
0.07
0.43
0.78
0.07
0.72
0.83
0.79
0.62
0.48
0.16
0.18
0.10
0.07
0.03
0.01
0.00
0.00
0.00
0.00
0.02
0.01
0.01
0.01
0.01
0.03
0.01
0.03
0.01
0.01
0.01
0.02
0.00
0.01
0.03
0.03
0.07
0.11
0.18
0.18
0.19
0.12
0.07
0.07
0.03
0.03
0.01
0.00
0.00
0.00
0.00
0.00
0.00
0.00
0.00
0.02
0.00
0.01
0.02
0.01
0.03
0.06
0.06
0.06
0.06
0.06
0.01
0.06
0.06
0.06
0.06
0.01
0.01
0.03
0.06
0.01
0.03
0.02
0.02
0.02
0.00
0.00
0.00
0.00
0.03
0.06
0.06
0.15
0.42
0.37
0.03
0.01
0.07
0.12
0.07
0.07
0.07
0.07
0.07
0.03
0.03
0.01
0.55
0.90
0.64
0.72
0.70
0.70
0.64
0.21
0.12
0.10
0.07
0.03
0.01
0.00
0.00
0.00
0.02
0.01
0.02
0.06
0.01
0.03
0.01
0.02
0.02
0.00
0.01
0.03
0.07
0.11
0.16
0.21
0.25
0.28
0.28
0.34
0.37
0.32
0.32
0.21
0.21
0.16
0.12
0.07
0.07
0.03
0.03
0.03
0.10
0.03
0.03
0.03
0.03
0.07
0.07
0.03
0.03
0.07
0.02
0.02
0.02
0.02
0.01
0.03
0.03
0.01
0.01
0.01
0.03
0.03
0.01
0.02
0.03
0.03
0.07
0.03
0.07
0.07
0.00
0.00
0.02
0.15
0.15
0.06
0.02
0.07
0.11
0.16
0.11
0.11
0.12
0.10
0.11
0.11
0.02
0.26
0.79
0.57
0.64
0.65
0.66
0.62
0.46
0.28
0.21
0.21
0.18
0.11
0.16
0.11
0.11
0.11
0.07
0.07
0.10
0.07
0.11
0.07
0.07
0.07
0.07
0.07
0.07
0.11
0.11
0.12
0.16
0.18
0.18
0.18
0.19
0.21
0.21
0.18
0.12
0.10
0.07
0.07
0.02
0.02
0.02
0.01
0.01
0.01
0.02
0.00
0.02
0.02
0.02
0.01
0.01
0.01
0.02
0.03
0.03
0.02
0.03
0.02
0.07
0.03
0.03
0.03
0.03
0.03
0.02
0.03
0.03
0.03
0.07
0.07
0.03
0.03
0.01
0.00
0.00
0.02
0.37
0.15
0.01
0.00
0.12
0.11
0.16
0.12
0.11
0.11
0.11
0.11
0.12
0.26
0.60
0.87
0.62
0.75
0.66
0.61
0.64
0.10
0.12
0.07
0.07
0.01
0.01
0.00
0.01
0.00
0.00
0.02
0.03
0.03
0.06
0.09
0.15
0.22
0.26
0.26
0.22
0.26
0.26
0.09
0.09
0.02
0.00
0.00
0.01
0.10
0.11
0.11
0.11
0.07
0.07
0.02
0.02
0.00
0.00
0.00
0.00
0.00
0.02
0.02
0.00
0.02
0.00
0.02
0.01
0.01
0.01
0.01
0.01
0.01
0.02
0.02
0.00
0.00
0.00
0.00
0.00
0.00
0.00
0.00
0.00
0.00
0.00
0.02
0.00
0.00
0.00
0.00
0.00
0.00
0.00
0.02
0.09
0.06
0.22
0.15
0.44
0.35
0.06
0.03
0.07
0.07
0.07
0.03
0.03
0.03
0.03
0.01
0.03
0.35
0.44
0.92
0.62
0.80
0.68
0.68
0.64
0.12
0.10
0.07
0.03
0.02
0.00
0.00
0.00
0.00
0.00
0.01
0.06
0.06
0.06
0.09
0.09
0.15
0.15
0.15
0.09
0.03
0.01
0.02
0.00
0.01
0.07
0.07
0.11
0.16
0.16
0.21
0.18
0.12
0.10
0.07
0.02
0.02
0.02
0.01
0.01
0.01
0.02
0.02
0.01
0.00
0.01
0.01
0.00
0.00
0.00
0.02
0.02
0.01
0.01
0.06
0.01
0.06
0.02
0.02
0.01
0.01
0.02
0.02
0.02
0.02
0.00
0.00
0.00
0.00
0.00
0.00
0.00
0.00
0.00
0.00
0.02
0.15
0.02
0.22
0.09
0.43
0.09
0.03
0.00
0.11
0.07
0.07
0.02
0.02
0.07
0.02
0.03
0.07
0.44
0.78
0.57
0.65
0.80
0.69
0.62
0.48
0.10
0.10
0.07
0.03
0.01
0.00
0.00
0.02
0.02
0.01
0.01
0.03
0.01
0.03
0.03
0.09
0.06
0.01
0.02
0.00
0.00
0.01
0.03
0.10
0.12
0.16
0.18
0.16
0.19
0.19
0.18
0.11
0.10
0.03
0.02
0.00
0.00
0.00
0.00
0.00
0.00
0.00
0.00
0.00
0.00
0.00
0.00
0.00
0.00
0.00
0.02
0.02
0.02
0.02
0.01
0.02
0.02
0.00
0.02
0.00
0.01
0.02
0.00
0.00
0.00
0.00
0.00
0.00
0.00
0.00
0.01
0.00
0.01
0.06
0.03
0.15
0.03
0.43
0.28
0.15
0.02
0.10
0.11
0.11
0.07
0.07
0.11
0.16
0.11
0.18
0.03
0.55
0.82
0.61
0.66
0.64
0.63
0.62
0.18
0.19
0.10
0.07
0.07
0.01
0.01
0.00
0.00
0.01
0.00
0.00
0.00
0.00
0.00
0.00
0.00
0.00
0.00
0.03
0.01
0.07
0.07
0.07
0.11
0.11
0.12
0.11
0.18
0.16
0.16
0.12
0.11
0.07
0.03
0.01
0.00
0.00
0.00
0.00
0.00
0.00
0.00
0.00
0.00
0.00
0.00
0.00
0.00
0.00
0.00
0.00
0.00
0.00
0.00
0.00
0.00
0.00
0.00
0.00
0.00
0.00
0.00
0.00
0.00
0.00
0.00
0.00
0.00
0.02
0.09
0.22
0.26
0.22
0.48
0.35
0.26
0.09
0.02
0.07
0.07
0.02
0.03
0.07
0.07
0.07
0.07
0.22
0.48
0.89
0.62
0.72
0.68
0.66
0.63
0.18
0.10
0.03
0.01
0.00
0.00
0.00
0.02
0.02
0.02
0.01
0.03
0.06
0.09
0.09
0.09
0.22
0.26
0.28
0.28
0.28
0.26
0.26
0.22
0.06
0.01
0.00
0.01
0.02
0.07
0.10
0.07
0.10
0.07
0.03
0.01
0.00
0.00
0.01
0.00
0.00
0.00
0.00
0.00
0.00
0.00
0.00
0.00
0.00
0.00
0.00
0.00
0.02
0.00
0.02
0.02
0.01
0.01
0.01
0.01
0.02
0.01
0.02
0.01
0.02
0.01
0.01
0.02
0.02
0.02
0.00
0.02
0.00
0.02
0.06
0.09
0.15
0.26
0.40
0.42
0.06
0.09
0.01
0.07
0.07
0.07
0.01
0.00
0.01
0.00
0.00
0.26
0.57
0.91
0.59
0.71
0.72
0.73
0.64
0.21
0.07
0.07
0.02
0.01
0.00
0.00
0.00
0.00
0.01
0.02
0.01
0.01
0.03
0.06
0.09
0.09
0.15
0.06
0.06
0.06
0.03
0.02
0.00
0.00
0.03
0.03
0.07
0.11
0.12
0.12
0.12
0.10
0.07
0.07
0.00
0.00
0.00
0.00
0.00
0.00
0.00
0.00
0.00
0.01
0.00
0.00
0.00
0.00
0.00
0.00
0.02
0.00
0.02
0.02
0.00
0.00
0.01
0.00
0.00
0.00
0.00
0.00
0.00
0.00
0.00
0.00
0.00
0.02
0.02
0.02
0.00
0.02
0.03
0.22
0.09
0.28
0.40
0.43
0.15
0.09
0.01
0.10
0.07
0.07
0.03
0.03
0.07
0.03
0.03
0.00
0.44
0.84
0.12
0.69
0.75
0.72
0.63
0.32
0.07
0.07
0.02
0.00
0.00
0.00
0.02
0.02
0.02
0.02
0.03
0.00
0.01
0.01
0.01
0.01
0.03
0.02
0.02
0.00
0.00
0.02
0.07
0.10
0.11
0.18
0.18
0.19
0.21
0.21
0.19
0.16
0.07
0.07
0.02
0.01
0.01
0.00
0.01
0.01
0.01
0.00
0.00
0.02
0.02
0.02
0.07
0.07
0.02
0.03
0.02
0.03
0.02
0.03
0.01
0.01
0.00
0.03
0.01
0.02
0.01
0.01
0.01
0.00
0.01
0.01
0.01
0.01
0.02
0.02
0.00
0.09
0.02
0.06
0.37
0.37
0.22
0.01
0.07
0.11
0.11
0.11
0.11
0.12
0.16
0.16
0.18
0.07
0.15
0.78
0.58
0.65
0.65
0.66
0.61
0.46
0.25
0.21
0.19
0.16
0.11
0.10
0.07
0.07
0.03
0.03
0.03
0.07
0.00
0.02
0.03
0.02
0.01
0.01
0.03
0.03
0.11
0.07
0.16
0.12
0.16
0.16
0.16
0.18
0.21
0.21
0.18
0.12
0.11
0.10
0.07
0.07
0.03
0.02
0.02
0.01
0.00
0.02
0.01
0.01
0.01
0.01
0.02
0.01
0.00
0.00
0.01
0.02
0.00
0.02
0.02
0.02
0.02
0.03
0.01
0.00
0.02
0.02
0.02
0.03
0.02
0.03
0.07
0.07
0.07
0.00
0.00
0.00
0.02
0.35
0.15
0.06
0.02
0.10
0.10
0.11
0.07
0.10
0.10
0.10
0.07
0.07
0.15
0.44
0.87
0.63
0.70
0.66
0.63
0.63
0.21
0.19
0.11
0.10
0.07
0.07
0.02
0.02
0.01
0.00
0.01
0.00
0.00
0.02
0.02
0.03
0.09
0.09
0.15
0.15
0.09
0.06
0.06
0.03
0.02
0.00
0.02
0.07
0.07
0.10
0.10
0.11
0.07
0.07
0.00
0.00
0.00
0.02
0.00
0.02
0.00
0.00
0.00
0.00
0.00
0.00
0.00
0.00
0.02
0.00
0.00
0.00
0.00
0.00
0.02
0.02
0.01
0.00
0.02
0.02
0.03
0.01
0.03
0.02
0.03
0.03
0.06
0.03
0.03
0.06
0.06
0.06
0.09
0.26
0.09
0.40
0.35
0.48
0.28
0.09
0.00
0.07
0.03
0.03
0.02
0.00
0.00
0.00
0.00
0.00
0.57
0.82
0.03
0.68
0.80
0.72
0.64
0.29
0.03
0.03
0.00
0.00
0.03
0.01
0.03
0.01
0.06
0.06
0.09
0.09
0.09
0.15
0.22
0.22
0.26
0.22
0.15
0.15
0.09
0.06
0.01
0.00
0.00
0.01
0.02
0.07
0.10
0.10
0.07
0.07
0.02
0.01
0.00
0.00
0.01
0.01
0.01
0.01
0.01
0.03
0.03
0.03
0.01
0.03
0.03
0.09
0.06
0.06
0.06
0.09
0.06
0.09
0.03
0.03
0.06
0.03
0.06
0.01
0.01
0.03
0.06
0.01
0.03
0.01
0.01
0.03
0.01
0.01
0.03
0.09
0.15
0.15
0.26
0.50
0.42
0.28
0.09
0.02
0.03
0.03
0.00
0.00
0.01
0.01
0.01
0.00
0.42
0.54
0.91
0.62
0.77
0.65
0.63
0.62
0.10
0.12
0.07
0.03
0.07
0.01
0.02
0.00
0.00
0.00
0.00
0.00
0.00
0.00
0.02
0.00
0.02
0.01
0.00
0.00
0.01
0.02
0.03
0.07
0.11
0.10
0.16
0.18
0.19
0.19
0.18
0.16
0.11
0.11
0.03
0.01
0.02
0.02
0.02
0.02
0.03
0.07
0.07
0.03
0.07
0.07
0.03
0.03
0.07
0.03
0.01
0.03
0.02
0.00
0.01
0.02
0.02
0.01
0.00
0.00
0.00
0.00
0.00
0.00
0.00
0.00
0.01
0.00
0.01
0.00
0.02
0.03
0.03
0.03
0.43
0.15
0.09
0.03
0.07
0.10
0.16
0.10
0.07
0.11
0.12
0.12
0.18
0.02
0.40
0.82
0.62
0.64
0.62
0.61
0.64
0.21
0.25
0.12
0.11
0.07
0.07
0.03
0.02
0.01
0.02
0.02
0.00
0.00
0.02
0.02
0.02
0.03
0.03
0.07
0.10
0.12
0.10
0.12
0.19
0.19
0.21
0.21
0.19
0.21
0.19
0.12
0.10
0.11
0.03
0.00
0.00
0.00
0.00
0.00
0.00
0.00
0.01
0.00
0.01
0.07
0.03
0.02
0.03
0.03
0.07
0.07
0.07
0.07
0.07
0.07
0.03
0.07
0.07
0.07
0.11
0.10
0.07
0.07
0.07
0.07
0.07
0.07
0.02
0.00
0.00
0.02
0.35
0.26
0.15
0.03
0.07
0.07
0.11
0.10
0.10
0.16
0.12
0.11
0.16
0.01
0.42
0.82
0.62
0.65
0.64
0.62
0.64
0.19
0.16
0.11
0.07
0.07
0.02
0.01
0.02
0.00
0.02
0.00
0.00
0.00
0.00
0.00
0.02
0.01
0.01
0.01
0.03
0.01
0.01
0.01
0.00
0.00
0.01
0.03
0.07
0.10
0.10
0.11
0.07
0.02
0.01
0.00
0.00
0.02
0.02
0.01
0.01
0.01
0.03
0.06
0.06
0.03
0.06
0.06
0.03
0.09
0.03
0.02
0.00
0.02
0.02
0.00
0.02
0.00
0.00
0.02
0.00
0.01
0.02
0.00
0.02
0.00
0.00
0.00
0.00
0.00
0.02
0.06
0.01
0.15
0.15
0.43
0.22
0.06
0.00
0.07
0.07
0.10
0.07
0.07
0.07
0.07
0.07
0.07
0.44
0.78
0.26
0.69
0.83
0.72
0.62
0.55
0.11
0.11
0.10
0.03
0.01
0.00
0.00
0.02
0.01
0.03
0.09
0.09
0.22
0.26
0.26
0.35
0.37
0.35
0.35
0.37
0.28
0.26
0.15
0.06
0.02
0.00
0.00
0.02
0.07
0.07
0.07
0.03
0.01
0.02
0.00
0.00
0.02
0.00
0.00
0.00
0.00
0.00
0.00
0.00
0.00
0.00
0.02
0.02
0.02
0.02
0.01
0.02
0.02
0.03
0.01
0.02
0.00
0.00
0.00
0.00
0.00
0.01
0.00
0.00
0.00
0.01
0.02
0.03
0.02
0.03
0.03
0.03
0.02
0.01
0.00
0.15
0.02
0.42
0.09
0.02
0.00
0.12
0.10
0.10
0.03
0.02
0.01
0.02
0.01
0.02
0.50
0.72
0.87
0.62
0.80
0.65
0.62
0.58
0.02
0.07
0.01
0.00
0.01
0.01
0.01
0.06
0.06
0.09
0.06
0.06
0.09
0.22
0.09
0.09
0.03
0.06
0.06
0.03
0.02
0.00
0.00
0.03
0.07
0.10
0.11
0.18
0.18
0.18
0.18
0.12
0.10
0.07
0.02
0.00
0.00
0.00
0.02
0.01
0.03
0.01
0.03
0.01
0.03
0.03
0.01
0.02
0.00
0.02
0.01
0.00
0.00
0.00
0.00
0.00
0.00
0.01
0.02
0.01
0.01
0.00
0.01
0.01
0.01
0.00
0.00
0.01
0.01
0.03
0.01
0.03
0.00
0.03
0.00
0.09
0.06
0.42
0.15
0.03
0.00
0.10
0.07
0.12
0.07
0.07
0.07
0.07
0.10
0.12
0.35
0.67
0.54
0.63
0.67
0.67
0.62
0.56
0.18
0.19
0.16
0.11
0.07
0.03
0.01
0.07
0.01
0.01
0.00
0.00
0.01
0.00
0.00
0.00
0.00
0.01
0.02
0.03
0.07
0.10
0.10
0.18
0.21
0.19
0.19
0.21
0.25
0.21
0.18
0.11
0.11
0.03
0.02
0.02
0.02
0.00
0.00
0.00
0.00
0.01
0.00
0.01
0.01
0.00
0.00
0.01
0.02
0.03
0.03
0.02
0.02
0.00
0.01
0.02
0.01
0.00
0.01
0.01
0.02
0.02
0.03
0.03
0.03
0.03
0.07
0.07
0.03
0.00
0.02
0.02
0.22
0.28
0.22
0.02
0.02
0.10
0.12
0.12
0.18
0.19
0.16
0.18
0.18
0.07
0.22
0.72
0.46
0.66
0.66
0.67
0.62
0.52
0.12
0.11
0.07
0.03
0.01
0.01
0.00
0.00
0.00
0.00
0.02
0.00
0.01
0.02
0.01
0.03
0.06
0.06
0.03
0.06
0.06
0.01
0.02
0.00
0.00
0.01
0.03
0.07
0.10
0.11
0.07
0.03
0.01
0.00
0.00
0.01
0.01
0.03
0.06
0.06
0.06
0.06
0.09
0.09
0.09
0.06
0.15
0.15
0.15
0.09
0.06
0.06
0.09
0.03
0.06
0.03
0.06
0.06
0.03
0.06
0.03
0.03
0.06
0.03
0.03
0.01
0.02
0.02
0.01
0.02
0.01
0.02
0.15
0.22
0.28
0.22
0.54
0.40
0.26
0.06
0.01
0.07
0.07
0.07
0.07
0.07
0.07
0.07
0.01
0.26
0.64
0.91
0.62
0.81
0.79
0.75
0.63
0.21
0.10
0.07
0.01
0.00
0.00
0.00
0.02
0.02
0.01
0.06
0.09
0.15
0.26
0.26
0.28
0.35
0.37
0.42
0.43
0.43
0.43
0.28
0.37
0.22
0.22
0.03
0.00
0.00
0.02
0.02
0.02
0.00
0.00
0.02
0.01
0.06
0.06
0.06
0.06
0.06
0.03
0.01
0.01
0.02
0.01
0.01
0.01
0.01
0.03
0.01
0.06
0.03
0.03
0.02
0.03
0.03
0.03
0.06
0.01
0.01
0.06
0.03
0.01
0.06
0.06
0.03
0.03
0.03
0.01
0.01
0.03
0.09
0.06
0.09
0.26
0.37
0.35
0.43
0.48
0.48
0.35
0.28
0.02
0.01
0.00
0.00
0.00
0.02
0.00
0.00
0.00
0.22
0.66
0.88
0.34
0.70
0.79
0.71
0.63
0.19
0.03
0.01
0.00
0.00
0.01
0.01
0.01
0.03
0.03
0.09
0.06
0.09
0.22
0.15
0.28
0.26
0.28
0.28
0.28
0.15
0.15
0.03
0.03
0.00
0.01
0.02
0.10
0.11
0.16
0.11
0.11
0.07
0.03
0.01
0.00
0.00
0.02
0.02
0.02
0.01
0.01
0.01
0.02
0.02
0.01
0.02
0.02
0.02
0.01
0.01
0.03
0.01
0.02
0.00
0.02
0.00
0.00
0.00
0.00
0.00
0.00
0.00
0.00
0.00
0.02
0.00
0.00
0.00
0.01
0.02
0.02
0.01
0.01
0.03
0.03
0.03
0.02
0.07
0.02
0.00
0.00
0.01
0.03
0.35
0.22
0.06
0.02
0.03
0.07
0.07
0.07
0.07
0.02
0.03
0.03
0.07
0.03
0.44
0.85
0.61
0.64
0.65
0.66
0.64
0.29
0.12
0.12
0.10
0.03
0.07
0.03
0.07
0.01
0.03
0.01
0.01
0.02
0.02
0.02
0.01
0.02
0.02
0.03
0.02
0.07
0.10
0.10
0.18
0.18
0.18
0.19
0.21
0.25
0.25
0.25
0.21
0.19
0.19
0.12
0.07
0.07
0.02
0.03
0.07
0.01
0.02
0.07
0.07
0.07
0.03
0.07
0.03
0.03
0.07
0.03
0.07
0.07
0.03
0.07
0.11
0.07
0.11
0.07
0.12
0.11
0.10
0.10
0.10
0.11
0.11
0.12
0.12
0.10
0.11
0.11
0.12
0.10
0.07
0.07
0.07
0.07
0.02
0.00
0.06
0.00
0.37
0.09
0.02
0.00
0.12
0.12
0.18
0.12
0.12
0.16
0.16
0.18
0.19
0.00
0.40
0.81
0.62
0.67
0.66
0.64
0.61
0.34
0.21
0.16
0.16
0.10
0.07
0.03
0.03
0.02
0.01
0.01
0.00
0.00
0.00
0.01
0.01
0.01
0.01
0.01
0.06
0.03
0.01
0.00
0.00
0.00
0.02
0.03
0.11
0.11
0.18
0.18
0.18
0.12
0.11
0.10
0.07
0.07
0.02
0.02
0.01
0.01
0.01
0.00
0.01
0.00
0.01
0.01
0.00
0.00
0.00
0.00
0.00
0.00
0.00
0.00
0.00
0.00
0.00
0.00
0.01
0.00
0.00
0.00
0.00
0.00
0.00
0.00
0.00
0.00
0.00
0.01
0.01
0.01
0.02
0.02
0.07
0.07
0.07
0.02
0.07
0.07
0.01
0.00
0.01
0.03
0.01
0.22
0.00
0.00
0.10
0.21
0.18
0.12
0.11
0.10
0.11
0.07
0.07
0.00
0.55
0.87
0.34
0.70
0.81
0.73
0.64
0.21
0.10
0.02
0.00
0.02
0.03
0.06
0.09
0.22
0.22
0.22
0.28
0.35
0.28
0.37
0.37
0.35
0.35
0.40
0.37
0.37
0.28
0.22
0.09
0.01
0.02
0.01
0.07
0.11
0.16
0.18
0.19
0.18
0.16
0.11
0.07
0.07
0.07
0.10
0.07
0.07
0.07
0.10
0.12
0.10
0.11
0.07
0.11
0.10
0.10
0.07
0.07
0.07
0.07
0.07
0.07
0.03
0.07
0.07
0.07
0.07
0.07
0.07
0.07
0.03
0.07
0.02
0.03
0.02
0.03
0.03
0.02
0.00
0.02
0.01
0.02
0.00
0.01
0.00
0.01
0.00
0.00
0.06
0.01
0.26
0.15
0.42
0.06
0.02
0.00
0.11
0.11
0.10
0.07
0.07
0.03
0.07
0.07
0.01
0.48
0.79
0.28
0.66
0.81
0.70
0.62
0.50
0.11
0.11
0.07
0.02
0.01
0.01
0.00
0.00
0.00
0.00
0.02
0.00
0.02
0.03
0.06
0.06
0.03
0.09
0.03
0.06
0.02
0.00
0.00
0.02
0.07
0.03
0.11
0.12
0.12
0.16
0.12
0.11
0.10
0.03
0.01
0.00
0.00
0.00
0.02
0.00
0.00
0.00
0.00
0.00
0.01
0.00
0.01
0.00
0.03
0.00
0.00
0.00
0.00
0.01
0.00
0.00
0.00
0.00
0.00
0.00
0.00
0.00
0.00
0.00
0.00
0.00
0.01
0.00
0.02
0.02
0.02
0.01
0.07
0.03
0.07
0.07
0.03
0.03
0.07
0.07
0.10
0.03
0.02
0.01
0.02
0.01
0.28
0.00
0.00
0.03
0.18
0.16
0.12
0.11
0.10
0.10
0.07
0.10
0.07
0.28
0.72
0.01
0.62
0.64
0.65
0.63
0.50
0.16
0.16
0.10
0.03
0.02
0.02
0.00
0.00
0.00
0.02
0.00
0.00
0.02
0.02
0.00
0.00
0.02
0.00
0.00
0.00
0.02
0.03
0.03
0.10
0.07
0.16
0.16
0.16
0.18
0.18
0.18
0.16
0.11
0.07
0.03
0.02
0.07
0.07
0.02
0.01
0.03
0.02
0.07
0.03
0.07
0.02
0.03
0.07
0.03
0.07
0.07
0.07
0.07
0.03
0.03
0.03
0.01
0.01
0.01
0.01
0.00
0.00
0.00
0.00
0.00
0.00
0.00
0.00
0.00
0.02
0.00
0.02
0.01
0.02
0.01
0.01
0.00
0.06
0.01
0.09
0.15
0.42
0.06
0.01
0.03
0.16
0.10
0.11
0.11
0.11
0.12
0.12
0.12
0.07
0.26
0.76
0.21
0.65
0.66
0.67
0.62
0.46
0.16
0.16
0.10
0.07
0.01
0.01
0.00
0.00
0.00
0.00
0.01
0.03
0.15
0.15
0.22
0.22
0.26
0.28
0.26
0.26
0.26
0.15
0.09
0.06
0.02
0.00
0.01
0.03
0.11
0.11
0.10
0.07
0.03
0.01
0.00
0.00
0.02
0.02
0.01
0.01
0.02
0.02
0.01
0.02
0.02
0.02
0.02
0.02
0.01
0.00
0.00
0.00
0.00
0.00
0.00
0.01
0.01
0.00
0.00
0.00
0.01
0.00
0.01
0.00
0.01
0.01
0.02
0.02
0.02
0.01
0.02
0.02
0.03
0.02
0.02
0.02
0.00
0.01
0.01
0.15
0.01
0.42
0.09
0.01
0.00
0.11
0.11
0.10
0.07
0.07
0.03
0.07
0.07
0.03
0.42
0.67
0.89
0.62
0.83
0.66
0.61
0.58
0.03
0.10
0.02
0.01
0.00
0.00
0.02
0.02
0.03
0.01
0.03
0.03
0.06
0.06
0.09
0.06
0.06
0.06
0.06
0.09
0.03
0.03
0.00
0.01
0.01
0.01
0.07
0.07
0.12
0.19
0.18
0.18
0.12
0.10
0.03
0.03
0.01
0.00
0.01
0.01
0.00
0.01
0.01
0.02
0.03
0.03
0.02
0.03
0.03
0.02
0.01
0.01
0.00
0.00
0.01
0.00
0.00
0.00
0.01
0.01
0.01
0.01
0.01
0.01
0.02
0.02
0.02
0.02
0.02
0.03
0.03
0.07
0.07
0.03
0.03
0.07
0.07
0.07
0.07
0.03
0.00
0.01
0.03
0.00
0.37
0.01
0.00
0.02
0.16
0.16
0.16
0.12
0.10
0.11
0.10
0.12
0.16
0.26
0.66
0.80
0.62
0.83
0.67
0.61
0.62
0.19
0.19
0.12
0.12
0.07
0.07
0.03
0.02
0.00
0.00
0.00
0.00
0.00
0.02
0.02
0.01
0.01
0.01
0.02
0.00
0.00
0.00
0.03
0.07
0.11
0.16
0.12
0.18
0.21
0.25
0.25
0.21
0.19
0.12
0.07
0.07
0.07
0.00
0.02
0.01
0.01
0.00
0.00
0.02
0.01
0.01
0.01
0.00
0.01
0.01
0.01
0.02
0.02
0.02
0.01
0.01
0.03
0.03
0.02
0.02
0.03
0.03
0.07
0.07
0.03
0.07
0.07
0.07
0.07
0.07
0.07
0.07
0.07
0.07
0.07
0.03
0.07
0.03
0.00
0.01
0.03
0.02
0.26
0.00
0.00
0.11
0.21
0.18
0.19
0.18
0.16
0.19
0.18
0.21
0.12
0.06
0.75
0.46
0.63
0.65
0.66
0.63
0.48
0.25
0.21
0.19
0.16
0.10
0.11
0.11
0.10
0.07
0.07
0.07
0.07
0.07
0.10
0.07
0.07
0.10
0.11
0.11
0.16
0.18
0.21
0.21
0.29
0.29
0.32
0.34
0.37
0.34
0.29
0.28
0.25
0.21
0.18
0.10
0.07
0.07
0.07
0.03
0.02
0.03
0.07
0.02
0.07
0.03
0.03
0.03
0.03
0.02
0.07
0.01
0.03
0.03
0.07
0.02
0.02
0.02
0.07
0.07
0.07
0.07
0.07
0.03
0.07
0.07
0.07
0.07
0.07
0.07
0.07
0.07
0.03
0.00
0.00
0.06
0.03
0.37
0.22
0.01
0.00
0.10
0.10
0.11
0.12
0.07
0.16
0.12
0.12
0.18
0.09
0.67
0.67
0.64
0.66
0.66
0.62
0.58
0.12
0.16
0.12
0.07
0.07
0.00
0.01
0.00
0.00
0.00
0.00
0.02
0.02
0.01
0.02
0.03
0.01
0.06
0.01
0.02
0.00
0.00
0.00
0.01
0.03
0.10
0.11
0.16
0.21
0.25
0.25
0.25
0.21
0.19
0.16
0.16
0.12
0.11
0.07
0.07
0.07
0.10
0.07
0.07
0.03
0.02
0.03
0.02
0.01
0.01
0.00
0.00
0.00
0.00
0.00
0.00
0.02
0.00
0.01
0.02
0.02
0.00
0.00
0.01
0.02
0.01
0.02
0.02
0.02
0.02
0.01
0.00
0.00
0.00
0.06
0.26
0.15
0.28
0.44
0.40
0.28
0.15
0.00
0.03
0.00
0.00
0.00
0.00
0.00
0.00
0.02
0.43
0.62
0.92
0.63
0.81
0.70
0.67
0.62
0.07
0.03
0.00
0.00
0.01
0.02
0.06
0.09
0.26
0.26
0.28
0.28
0.35
0.37
0.35
0.40
0.40
0.43
0.44
0.44
0.43
0.44
0.43
0.40
0.28
0.22
0.03
0.01
0.00
0.01
0.01
0.03
0.01
0.00
0.01
0.01
0.15
0.09
0.09
0.15
0.09
0.06
0.15
0.06
0.09
0.09
0.06
0.06
0.06
0.09
0.06
0.09
0.06
0.03
0.09
0.09
0.09
0.15
0.06
0.06
0.06
0.06
0.09
0.09
0.06
0.03
0.06
0.09
0.03
0.06
0.06
0.06
0.09
0.06
0.01
0.15
0.15
0.09
0.26
0.37
0.26
0.44
0.43
0.57
0.35
0.26
0.03
0.02
0.00
0.01
0.00
0.00
0.00
0.00
0.00
0.01
0.64
0.86
0.16
0.67
0.75
0.71
0.62
0.18
0.03
0.01
0.01
0.01
0.03
0.06
0.06
0.06
0.03
0.09
0.15
0.09
0.09
0.15
0.15
0.15
0.15
0.15
0.09
0.09
0.06
0.02
0.02
0.00
0.00
0.00
0.02
0.07
0.10
0.07
0.07
0.03
0.02
0.00
0.00
0.01
0.01
0.01
0.01
0.00
0.01
0.00
0.02
0.00
0.02
0.00
0.02
0.00
0.02
0.02
0.02
0.01
0.02
0.02
0.02
0.00
0.00
0.00
0.00
0.00
0.01
0.00
0.00
0.01
0.00
0.02
0.01
0.01
0.02
0.01
0.01
0.01
0.00
0.00
0.00
0.09
0.06
0.35
0.26
0.48
0.26
0.06
0.00
0.07
0.07
0.07
0.03
0.03
0.03
0.01
0.03
0.07
0.37
0.67
0.78
0.60
0.68
0.64
0.62
0.58
0.11
0.18
0.11
0.07
0.02
0.01
0.00
0.00
0.00
0.00
0.00
0.00
0.00
0.00
0.02
0.00
0.00
0.00
0.02
0.00
0.01
0.02
0.07
0.10
0.11
0.12
0.12
0.16
0.19
0.21
0.18
0.16
0.10
0.07
0.03
0.02
0.01
0.01
0.01
0.01
0.00
0.00
0.00
0.01
0.02
0.01
0.02
0.01
0.01
0.01
0.03
0.02
0.02
0.00
0.01
0.00
0.00
0.00
0.00
0.01
0.01
0.01
0.00
0.01
0.00
0.01
0.03
0.01
0.01
0.03
0.02
0.03
0.02
0.01
0.02
0.06
0.01
0.15
0.35
0.42
0.22
0.22
0.01
0.07
0.03
0.07
0.07
0.07
0.10
0.07
0.10
0.07
0.28
0.74
0.00
0.65
0.66
0.67
0.62
0.56
0.12
0.12
0.11
0.07
0.07
0.02
0.00
0.00
0.00
0.00
0.00
0.02
0.02
0.01
0.06
0.03
0.06
0.09
0.06
0.09
0.09
0.06
0.06
0.02
0.00
0.00
0.01
0.03
0.11
0.12
0.18
0.12
0.11
0.07
0.03
0.07
0.03
0.01
0.01
0.00
0.00
0.01
0.01
0.00
0.00
0.00
0.00
0.00
0.00
0.00
0.00
0.00
0.00
0.00
0.00
0.00
0.00
0.00
0.00
0.00
0.00
0.00
0.00
0.00
0.00
0.00
0.00
0.00
0.00
0.00
0.00
0.00
0.00
0.01
0.00
0.02
0.00
0.00
0.01
0.00
0.09
0.00
0.28
0.00
0.00
0.07
0.21
0.21
0.21
0.21
0.19
0.19
0.18
0.19
0.19
0.22
0.62
0.80
0.66
0.85
0.70
0.61
0.60
0.19
0.19
0.16
0.07
0.07
0.03
0.03
0.02
0.01
0.00
0.00
0.00
0.02
0.03
0.06
0.09
0.15
0.15
0.26
0.22
0.22
0.15
0.06
0.02
0.02
0.01
0.02
0.10
0.12
0.12
0.18
0.12
0.12
0.10
0.07
0.03
0.02
0.02
0.03
0.03
0.07
0.07
0.07
0.07
0.07
0.07
0.03
0.07
0.03
0.02
0.03
0.02
0.02
0.02
0.03
0.02
0.03
0.02
0.03
0.07
0.07
0.03
0.07
0.03
0.07
0.03
0.03
0.02
0.01
0.00
0.02
0.00
0.01
0.00
0.00
0.00
0.00
0.00
0.01
0.03
0.22
0.09
0.40
0.28
0.48
0.22
0.09
0.00
0.03
0.02
0.03
0.01
0.00
0.02
0.01
0.02
0.01
0.54
0.84
0.12
0.68
0.81
0.72
0.63
0.39
0.11
0.12
0.07
0.07
0.02
0.01
0.00
0.01
0.00
0.00
0.00
0.00
0.00
0.00
0.00
0.00
0.00
0.00
0.00
0.00
0.00
0.02
0.03
0.07
0.07
0.10
0.12
0.16
0.19
0.19
0.18
0.16
0.11
0.07
0.02
0.00
0.00
0.00
0.00
0.00
0.00
0.02
0.00
0.00
0.00
0.00
0.00
0.00
0.00
0.00
0.01
0.01
0.00
0.00
0.00
0.00
0.00
0.00
0.00
0.02
0.00
0.00
0.00
0.00
0.01
0.00
0.01
0.00
0.00
0.01
0.00
0.00
0.00
0.00
0.00
0.00
0.06
0.01
0.22
0.09
0.44
0.26
0.09
0.02
0.07
0.07
0.03
0.03
0.07
0.02
0.07
0.07
0.07
0.06
0.50
0.84
0.63
0.64
0.63
0.61
0.64
0.21
0.16
0.12
0.07
0.07
0.03
0.01
0.01
0.01
0.01
0.00
0.00
0.00
0.00
0.00
0.00
0.00
0.01
0.01
0.01
0.03
0.02
0.02
0.07
0.07
0.07
0.07
0.11
0.12
0.18
0.18
0.16
0.12
0.10
0.07
0.07
0.03
0.02
0.01
0.01
0.02
0.01
0.01
0.01
0.01
0.02
0.02
0.00
0.02
0.02
0.02
0.03
0.02
0.02
0.03
0.02
0.07
0.03
0.07
0.03
0.03
0.07
0.07
0.07
0.07
0.07
0.07
0.07
0.07
0.07
0.07
0.07
0.07
0.07
0.02
0.00
0.01
0.03
0.03
0.37
0.22
0.01
0.01
0.10
0.12
0.10
0.11
0.11
0.12
0.12
0.10
0.11
0.06
0.50
0.87
0.62
0.72
0.68
0.65
0.64
0.16
0.12
0.07
0.01
0.00
0.02
0.01
0.03
0.01
0.03
0.09
0.22
0.22
0.26
0.22
0.35
0.35
0.35
0.28
0.28
0.26
0.35
0.22
0.15
0.06
0.01
0.00
0.00
0.03
0.11
0.11
0.11
0.07
0.03
0.02
0.02
0.00
0.00
0.00
0.00
0.00
0.00
0.00
0.00
0.00
0.00
0.00
0.00
0.02
0.01
0.00
0.01
0.00
0.00
0.02
0.00
0.02
0.01
0.01
0.01
0.01
0.01
0.02
0.01
0.03
0.02
0.02
0.02
0.00
0.02
0.00
0.00
0.00
0.00
0.00
0.01
0.15
0.06
0.35
0.22
0.48
0.15
0.06
0.00
0.07
0.03
0.07
0.03
0.02
0.02
0.02
0.02
0.03
0.50
0.74
0.74
0.66
0.85
0.70
0.63
0.56
0.07
0.11
0.03
0.03
0.00
0.00
0.00
0.00
0.00
0.02
0.01
0.03
0.06
0.06
0.06
0.15
0.22
0.15
0.09
0.09
0.06
0.06
0.01
0.00
0.01
0.01
0.07
0.07
0.10
0.16
0.16
0.11
0.07
0.02
0.00
0.00
0.01
0.01
0.01
0.02
0.00
0.00
0.00
0.00
0.00
0.00
0.00
0.00
0.00
0.00
0.01
0.01
0.01
0.00
0.01
0.00
0.01
0.01
0.00
0.00
0.01
0.00
0.00
0.00
0.00
0.00
0.00
0.00
0.00
0.00
0.00
0.00
0.00
0.00
0.00
0.00
0.00
0.00
0.00
0.02
0.09
0.01
0.26
0.15
0.43
0.03
0.03
0.01
0.12
0.07
0.07
0.07
0.02
0.03
0.02
0.03
0.02
0.50
0.79
0.37
0.65
0.79
0.69
0.63
0.50
0.10
0.10
0.03
0.01
0.02
0.01
0.00
0.00
0.00
0.00
0.00
0.00
0.00
0.00
0.00
0.00
0.00
0.00
0.03
0.03
0.07
0.07
0.11
0.18
0.19
0.21
0.21
0.21
0.21
0.25
0.25
0.21
0.12
0.10
0.07
0.01
0.01
0.00
0.00
0.00
0.00
0.00
0.00
0.00
0.00
0.00
0.00
0.00
0.00
0.00
0.00
0.00
0.00
0.00
0.01
0.00
0.00
0.00
0.00
0.00
0.00
0.00
0.00
0.01
0.00
0.00
0.01
0.00
0.01
0.01
0.01
0.01
0.00
0.00
0.03
0.03
0.06
0.01
0.43
0.26
0.06
0.06
0.07
0.07
0.07
0.01
0.03
0.03
0.03
0.03
0.11
0.26
0.58
0.84
0.62
0.66
0.64
0.63
0.62
0.16
0.16
0.07
0.07
0.03
0.02
0.01
0.00
0.00
0.00
0.00
0.00
0.00
0.00
0.00
0.01
0.01
0.00
0.02
0.02
0.02
0.03
0.07
0.07
0.11
0.11
0.16
0.12
0.16
0.18
0.18
0.12
0.11
0.07
0.03
0.02
0.02
0.00
0.00
0.00
0.00
0.00
0.00
0.00
0.00
0.01
0.00
0.00
0.00
0.00
0.00
0.01
0.02
0.02
0.01
0.01
0.01
0.01
0.02
0.02
0.01
0.02
0.03
0.02
0.02
0.02
0.03
0.02
0.02
0.02
0.02
0.01
0.02
0.01
0.06
0.03
0.15
0.35
0.26
0.00
0.02
0.07
0.11
0.10
0.07
0.07
0.02
0.03
0.03
0.01
0.35
0.64
0.91
0.62
0.79
0.68
0.65
0.62
0.07
0.07
0.03
0.00
0.00
0.03
0.01
0.01
0.06
0.09
0.15
0.15
0.26
0.28
0.37
0.37
0.37
0.37
0.40
0.40
0.42
0.40
0.35
0.26
0.15
0.06
0.06
0.02
0.01
0.03
0.07
0.07
0.03
0.01
0.02
0.00
0.01
0.02
0.02
0.02
0.02
0.01
0.01
0.02
0.03
0.02
0.03
0.03
0.06
0.01
0.03
0.01
0.03
0.03
0.01
0.01
0.01
0.01
0.02
0.00
0.00
0.00
0.00
0.00
0.00
0.00
0.00
0.00
0.00
0.00
0.00
0.00
0.00
0.02
0.00
0.00
0.00
0.02
0.22
0.03
0.28
0.22
0.44
0.06
0.03
0.01
0.11
0.11
0.11
0.07
0.07
0.07
0.10
0.07
0.03
0.44
0.82
0.07
0.71
0.82
0.75
0.63
0.34
0.16
0.11
0.07
0.02
0.01
0.00
0.00
0.02
0.02
0.03
0.02
0.09
0.09
0.09
0.15
0.15
0.15
0.22
0.15
0.15
0.06
0.01
0.02
0.00
0.01
0.03
0.07
0.11
0.16
0.18
0.18
0.12
0.12
0.07
0.03
0.02
0.00
0.00
0.00
0.00
0.00
0.00
0.00
0.01
0.00
0.00
0.00
0.01
0.02
0.01
0.02
0.03
0.03
0.07
0.07
0.07
0.07
0.07
0.10
0.10
0.10
0.10
0.10
0.10
0.07
0.07
0.07
0.07
0.10
0.10
0.11
0.10
0.11
0.11
0.11
0.11
0.07
0.07
0.01
0.00
0.00
0.03
0.28
0.22
0.00
0.00
0.12
0.16
0.16
0.10
0.07
0.10
0.07
0.07
0.10
0.26
0.55
0.91
0.62
0.79
0.65
0.63
0.62
0.12
0.18
0.11
0.12
0.07
0.07
0.07
0.07
0.07
0.07
0.07
0.03
0.07
0.07
0.07
0.10
0.07
0.07
0.12
0.10
0.16
0.19
0.21
0.25
0.28
0.32
0.29
0.29
0.32
0.32
0.29
0.28
0.18
0.16
0.10
0.07
0.07
0.02
0.02
0.03
0.03
0.03
0.07
0.07
0.07
0.03
0.07
0.07
0.07
0.07
0.07
0.07
0.03
0.07
0.07
0.07
0.07
0.07
0.07
0.07
0.07
0.07
0.07
0.10
0.03
0.03
0.07
0.03
0.07
0.03
0.02
0.02
0.07
0.00
0.02
0.00
0.03
0.26
0.26
0.02
0.00
0.07
0.18
0.10
0.10
0.07
0.10
0.10
0.10
0.12
0.01
0.26
0.78
0.62
0.65
0.65
0.64
0.62
0.37
0.18
0.18
0.12
0.11
0.07
0.07
0.07
0.03
0.03
0.03
0.02
0.02
0.01
0.01
0.00
0.00
0.01
0.02
0.03
0.02
0.03
0.03
0.07
0.10
0.10
0.10
0.10
0.16
0.18
0.16
0.12
0.10
0.07
0.03
0.02
0.01
0.00
0.00
0.02
0.00
0.02
0.00
0.00
0.00
0.00
0.00
0.00
0.00
0.02
0.02
0.01
0.01
0.01
0.00
0.01
0.02
0.01
0.00
0.00
0.00
0.01
0.00
0.00
0.00
0.02
0.00
0.02
0.02
0.02
0.02
0.02
0.01
0.22
0.28
0.26
0.35
0.48
0.43
0.28
0.15
0.00
0.01
0.00
0.00
0.00
0.00
0.00
0.02
0.00
0.35
0.54
0.91
0.62
0.79
0.68
0.66
0.63
0.07
0.02
0.00
0.00
0.01
0.06
0.06
0.06
0.09
0.06
0.15
0.09
0.22
0.26
0.28
0.28
0.35
0.35
0.37
0.40
0.40
0.37
0.35
0.28
0.22
0.15
0.03
0.02
0.00
0.02
0.07
0.07
0.03
0.02
0.00
0.00
0.00
0.01
0.01
0.01
0.03
0.02
0.01
0.00
0.00
0.00
0.00
0.00
0.00
0.00
0.02
0.02
0.02
0.02
0.02
0.00
0.02
0.02
0.00
0.00
0.00
0.00
0.00
0.00
0.00
0.00
0.00
0.00
0.00
0.00
0.00
0.00
0.01
0.02
0.03
0.15
0.06
0.35
0.15
0.50
0.15
0.09
0.00
0.07
0.03
0.07
0.02
0.01
0.02
0.03
0.03
0.07
0.54
0.76
0.67
0.68
0.85
0.72
0.62
0.54
0.07
0.11
0.07
0.02
0.00
0.00
0.00
0.00
0.02
0.02
0.02
0.01
0.01
0.03
0.01
0.06
0.03
0.03
0.06
0.06
0.03
0.02
0.00
0.00
0.01
0.03
0.07
0.11
0.16
0.18
0.12
0.11
0.07
0.07
0.01
0.01
0.00
0.00
0.00
0.00
0.00
0.00
0.01
0.00
0.00
0.00
0.00
0.00
0.00
0.00
0.00
0.00
0.00
0.00
0.01
0.00
0.00
0.00
0.00
0.01
0.00
0.01
0.01
0.01
0.00
0.02
0.01
0.01
0.00
0.00
0.00
0.00
0.00
0.00
0.00
0.00
0.00
0.00
0.09
0.06
0.06
0.06
0.44
0.26
0.03
0.00
0.10
0.07
0.07
0.00
0.01
0.01
0.00
0.01
0.00
0.44
0.67
0.90
0.61
0.77
0.62
0.61
0.58
0.03
0.11
0.03
0.02
0.01
0.00
0.00
0.00
0.00
0.00
0.00
0.00
0.00
0.00
0.02
0.00
0.02
0.00
0.02
0.02
0.07
0.07
0.11
0.11
0.16
0.21
0.19
0.21
0.21
0.25
0.25
0.25
0.18
0.12
0.11
0.07
0.07
0.03
0.02
0.01
0.02
0.02
0.02
0.02
0.07
0.03
0.02
0.03
0.03
0.02
0.07
0.02
0.07
0.02
0.03
0.03
0.07
0.07
0.02
0.03
0.03
0.03
0.02
0.07
0.02
0.02
0.02
0.02
0.02
0.01
0.02
0.00
0.01
0.00
0.01
0.03
0.15
0.06
0.43
0.28
0.03
0.06
0.07
0.10
0.07
0.07
0.03
0.07
0.07
0.10
0.11
0.03
0.44
0.82
0.62
0.66
0.65
0.62
0.62
0.29
0.21
0.16
0.12
0.07
0.07
0.07
0.07
0.03
0.03
0.02
0.03
0.01
0.01
0.01
0.00
0.00
0.01
0.00
0.00
0.00
0.01
0.02
0.03
0.07
0.07
0.07
0.11
0.16
0.19
0.18
0.18
0.16
0.12
0.07
0.07
0.02
0.00
0.01
0.00
0.00
0.00
0.00
0.00
0.00
0.00
0.00
0.00
0.00
0.01
0.00
0.01
0.00
0.02
0.02
0.01
0.01
0.01
0.01
0.02
0.01
0.02
0.01
0.03
0.03
0.02
0.03
0.01
0.02
0.02
0.03
0.01
0.00
0.01
0.02
0.09
0.01
0.42
0.15
0.01
0.00
0.12
0.10
0.10
0.07
0.07
0.07
0.03
0.03
0.03
0.40
0.58
0.91
0.62
0.83
0.69
0.66
0.64
0.11
0.12
0.07
0.07
0.02
0.00
0.00
0.00
0.02
0.00
0.01
0.03
0.06
0.06
0.09
0.15
0.22
0.09
0.15
0.09
0.06
0.06
0.02
0.00
0.00
0.07
0.07
0.11
0.16
0.21
0.25
0.19
0.18
0.12
0.10
0.07
0.03
0.03
0.02
0.01
0.02
0.02
0.01
0.01
0.00
0.00
0.00
0.00
0.02
0.00
0.00
0.02
0.02
0.01
0.02
0.02
0.02
0.00
0.00
0.02
0.00
0.00
0.00
0.00
0.02
0.01
0.01
0.02
0.01
0.02
0.01
0.02
0.01
0.02
0.01
0.02
0.01
0.15
0.15
0.26
0.15
0.44
0.28
0.06
0.02
0.07
0.10
0.07
0.03
0.03
0.02
0.02
0.02
0.07
0.44
0.58
0.91
0.61
0.83
0.66
0.63
0.60
0.07
0.10
0.02
0.01
0.00
0.00
0.01
0.02
0.02
0.03
0.03
0.06
0.03
0.03
0.03
0.09
0.06
0.03
0.06
0.01
0.01
0.01
0.00
0.00
0.02
0.03
0.07
0.07
0.10
0.18
0.18
0.12
0.11
0.07
0.07
0.02
0.00
0.00
0.00
0.00
0.00
0.00
0.00
0.00
0.00
0.00
0.00
0.00
0.00
0.00
0.00
0.01
0.00
0.00
0.00
0.00
0.01
0.02
0.00
0.01
0.01
0.01
0.00
0.00
0.00
0.00
0.01
0.01
0.00
0.00
0.00
0.01
0.02
0.02
0.03
0.02
0.06
0.28
0.35
0.06
0.03
0.07
0.12
0.12
0.11
0.11
0.07
0.11
0.11
0.10
0.11
0.28
0.72
0.44
0.64
0.70
0.66
0.63
0.57
0.12
0.18
0.10
0.07
0.07
0.07
0.07
0.03
0.02
0.03
0.02
0.01
0.03
0.01
0.02
0.02
0.07
0.07
0.07
0.10
0.10
0.16
0.16
0.18
0.19
0.25
0.21
0.21
0.21
0.21
0.21
0.19
0.16
0.10
0.07
0.01
0.03
0.03
0.02
0.00
0.01
0.01
0.02
0.02
0.03
0.03
0.07
0.07
0.07
0.10
0.07
0.07
0.10
0.10
0.11
0.10
0.11
0.12
0.16
0.12
0.12
0.12
0.16
0.12
0.18
0.12
0.16
0.11
0.16
0.18
0.11
0.07
0.02
0.02
0.00
0.22
0.06
0.00
0.00
0.16
0.19
0.19
0.16
0.16
0.18
0.21
0.16
0.18
0.03
0.44
0.85
0.62
0.68
0.65
0.62
0.64
0.18
0.21
0.11
0.07
0.07
0.07
0.02
0.02
0.02
0.00
0.00
0.00
0.00
0.00
0.01
0.00
0.01
0.03
0.06
0.03
0.06
0.03
0.01
0.02
0.00
0.00
0.03
0.03
0.10
0.10
0.12
0.11
0.07
0.03
0.02
0.00
0.02
0.00
0.02
0.02
0.02
0.02
0.00
0.02
0.01
0.02
0.00
0.00
0.02
0.00
0.00
0.00
0.00
0.00
0.00
0.00
0.00
0.02
0.00
0.00
0.00
0.00
0.00
0.00
0.00
0.00
0.00
0.00
0.00
0.00
0.01
0.15
0.03
0.28
0.35
0.44
0.35
0.15
0.00
0.07
0.03
0.07
0.03
0.02
0.07
0.07
0.07
0.00
0.50
0.84
0.11
0.72
0.84
0.75
0.62
0.39
0.07
0.07
0.02
0.02
0.00
0.00
0.02
0.00
0.02
0.03
0.01
0.03
0.09
0.09
0.15
0.15
0.15
0.22
0.15
0.09
0.09
0.06
0.03
0.02
0.01
0.01
0.03
0.07
0.11
0.12
0.12
0.11
0.07
0.02
0.00
0.00
0.00
0.00
0.00
0.00
0.00
0.00
0.00
0.00
0.02
0.02
0.02
0.00
0.01
0.02
0.02
0.01
0.02
0.01
0.01
0.02
0.02
0.00
0.00
0.02
0.00
0.00
0.00
0.00
0.02
0.02
0.02
0.02
0.00
0.02
0.00
0.00
0.01
0.06
0.01
0.26
0.15
0.44
0.22
0.06
0.01
0.07
0.07
0.10
0.07
0.01
0.02
0.02
0.07
0.07
0.50
0.76
0.58
0.66
0.84
0.70
0.62
0.52
0.07
0.10
0.07
0.02
0.00
0.00
0.02
0.00
0.02
0.01
0.01
0.01
0.03
0.06
0.06
0.09
0.03
0.06
0.02
0.02
0.00
0.00
0.07
0.07
0.12
0.12
0.16
0.19
0.21
0.21
0.19
0.19
0.16
0.11
0.07
0.07
0.03
0.07
0.02
0.02
0.03
0.07
0.03
0.07
0.03
0.02
0.02
0.01
0.03
0.01
0.02
0.00
0.01
0.00
0.01
0.01
0.00
0.00
0.00
0.00
0.01
0.01
0.01
0.01
0.00
0.02
0.02
0.00
0.00
0.00
0.00
0.03
0.01
0.09
0.06
0.43
0.26
0.01
0.01
0.10
0.10
0.18
0.10
0.11
0.12
0.12
0.12
0.21
0.02
0.44
0.84
0.61
0.68
0.66
0.62
0.64
0.25
0.32
0.21
0.21
0.18
0.18
0.18
0.18
0.16
0.11
0.12
0.12
0.16
0.11
0.12
0.11
0.18
0.16
0.18
0.16
0.19
0.21
0.21
0.25
0.25
0.25
0.28
0.29
0.28
0.28
0.21
0.21
0.16
0.16
0.10
0.07
0.07
0.03
0.01
0.03
0.00
0.01
0.02
0.00
0.01
0.00
0.01
0.00
0.01
0.00
0.01
0.01
0.02
0.02
0.01
0.02
0.02
0.01
0.02
0.02
0.02
0.02
0.01
0.01
0.01
0.02
0.01
0.02
0.00
0.00
0.00
0.06
0.01
0.15
0.40
0.28
0.15
0.03
0.03
0.07
0.07
0.07
0.03
0.07
0.07
0.07
0.07
0.22
0.57
0.89
0.62
0.72
0.66
0.64
0.64
0.11
0.11
0.07
0.02
0.00
0.00
0.00
0.00
0.01
0.03
0.01
0.03
0.03
0.06
0.15
0.15
0.26
0.22
0.28
0.35
0.35
0.26
0.22
0.09
0.06
0.02
0.00
0.01
0.07
0.10
0.07
0.10
0.07
0.03
0.01
0.00
0.00
0.02
0.00
0.00
0.02
0.02
0.02
0.02
0.02
0.01
0.06
0.02
0.03
0.02
0.03
0.01
0.03
0.01
0.01
0.02
0.02
0.01
0.02
0.00
0.02
0.00
0.02
0.00
0.00
0.00
0.00
0.00
0.00
0.00
0.00
0.00
0.00
0.00
0.09
0.09
0.15
0.15
0.44
0.35
0.06
0.03
0.03
0.07
0.03
0.01
0.01
0.01
0.00
0.00
0.00
0.44
0.62
0.93
0.62
0.82
0.66
0.66
0.60
0.02
0.07
0.02
0.00
0.00
0.01
0.03
0.03
0.03
0.06
0.06
0.09
0.09
0.09
0.06
0.15
0.15
0.15
0.22
0.15
0.09
0.06
0.01
0.02
0.00
0.00
0.03
0.07
0.10
0.12
0.12
0.11
0.07
0.03
0.02
0.01
0.00
0.00
0.00
0.02
0.00
0.02
0.00
0.00
0.02
0.02
0.00
0.01
0.02
0.01
0.02
0.02
0.03
0.01
0.03
0.01
0.01
0.03
0.06
0.03
0.01
0.03
0.01
0.03
0.01
0.06
0.03
0.03
0.02
0.01
0.02
0.02
0.00
0.02
0.06
0.15
0.06
0.15
0.42
0.40
0.09
0.01
0.07
0.12
0.07
0.10
0.07
0.03
0.07
0.07
0.03
0.15
0.44
0.91
0.62
0.77
0.68
0.70
0.64
0.18
0.16
0.11
0.07
0.07
0.07
0.02
0.02
0.01
0.01
0.01
0.00
0.00
0.00
0.00
0.00
0.00
0.00
0.00
0.00
0.03
0.02
0.07
0.10
0.16
0.18
0.18
0.18
0.21
0.19
0.19
0.18
0.11
0.07
0.03
0.02
0.01
0.02
0.00
0.00
0.00
0.01
0.02
0.01
0.02
0.01
0.02
0.03
0.01
0.01
0.00
0.01
0.01
0.01
0.00
0.01
0.02
0.01
0.01
0.00
0.01
0.01
0.01
0.02
0.00
0.00
0.01
0.02
0.02
0.01
0.01
0.00
0.01
0.00
0.06
0.15
0.37
0.15
0.06
0.03
0.12
0.07
0.12
0.11
0.11
0.11
0.11
0.12
0.16
0.06
0.71
0.01
0.66
0.68
0.67
0.62
0.52
0.16
0.16
0.12
0.12
0.07
0.07
0.07
0.07
0.07
0.07
0.07
0.07
0.03
0.03
0.03
0.03
0.02
0.03
0.07
0.03
0.07
0.07
0.07
0.10
0.12
0.12
0.12
0.16
0.19
0.18
0.18
0.16
0.11
0.07
0.07
0.07
0.07
0.02
0.02
0.01
