0.79
0.88
0.88
0.10
0.75
0.70
0.54
0.51
0.39
0.19
0.11
0.11
0.11
0.11
0.11
0.06
0.11
0.11
0.06
0.11
0.06
0.19
0.11
0.01
0.11
0.06
0.06
0.01
0.01
0.00
0.02
0.10
0.15
0.21
0.33
0.41
0.41
0.33
0.29
0.26
0.15
0.06
0.02
0.00
0.01
0.01
0.01
0.00
0.01
0.06
0.01
0.06
0.06
0.06
0.06
0.01
0.06
0.06
0.01
0.06
0.06
0.06
0.01
0.00
0.06
0.06
0.02
0.02
0.00
0.01
0.01
0.01
0.06
0.06
0.06
0.01
0.01
0.01
0.06
0.78
0.88
0.87
0.21
0.75
0.70
0.54
0.49
0.45
0.19
0.19
0.11
0.11
0.11
0.19
0.11
0.06
0.11
0.11
0.06
0.06
0.06
0.06
0.01
0.01
0.01
0.01
0.00
0.00
0.02
0.02
0.10
0.21
0.21
0.29
0.33
0.33
0.29
0.21
0.15
0.10
0.02
0.00
0.01
0.01
0.01
0.01
0.06
0.01
0.01
0.06
0.06
0.01
0.01
0.06
0.06
0.01
0.06
0.06
0.06
0.01
0.01
0.00
0.06
0.06
0.02
0.00
0.00
0.01
0.01
0.06
0.06
0.01
0.01
0.06
0.01
0.00
0.00
0.72
0.89
0.88
0.71
0.75
0.70
0.58
0.49
0.49
0.19
0.01
0.11
0.11
0.11
0.11
0.11
0.11
0.06
0.01
0.06
0.06
0.06
0.06
0.06
0.06
0.06
0.01
0.01
0.01
0.01
0.02
0.02
0.06
0.15
0.21
0.29
0.26
0.29
0.26
0.21
0.10
0.06
0.02
0.01
0.01
0.01
0.01
0.01
0.01
0.01
0.00
0.01
0.01
0.01
0.01
0.01
0.01
0.06
0.01
0.00
0.01
0.00
0.00
0.02
0.06
0.02
0.06
0.00
0.00
0.01
0.06
0.01
0.01
0.06
0.01
0.00
0.00
0.00
0.66
0.88
0.88
0.63
0.70
0.65
0.49
0.48
0.39
0.11
0.11
0.11
0.06
0.11
0.11
0.11
0.06
0.11
0.11
0.06
0.06
0.11
0.11
0.06
0.06
0.06
0.06
0.06
0.01
0.06
0.01
0.02
0.02
0.10
0.15
0.26
0.29
0.29
0.21
0.15
0.10
0.02
0.00
0.01
0.01
0.06
0.11
0.06
0.06
0.06
0.11
0.06
0.06
0.11
0.11
0.11
0.06
0.06
0.06
0.06
0.01
0.00
0.02
0.00
0.00
0.01
0.01
0.01
0.01
0.11
0.11
0.11
0.06
0.06
0.06
0.01
0.02
0.78
0.92
0.88
0.58
0.84
0.80
0.58
0.51
0.39
0.19
0.19
0.19
0.19
0.19
0.19
0.11
0.11
0.11
0.11
0.06
0.11
0.11
0.11
0.06
0.11
0.06
0.06
0.06
0.06
0.01
0.01
0.06
0.06
0.10
0.21
0.29
0.29
0.26
0.21
0.21
0.06
0.02
0.00
0.00
0.01
0.06
0.01
0.01
0.01
0.01
0.06
0.06
0.01
0.06
0.06
0.01
0.01
0.01
0.01
0.01
0.02
0.00
0.06
0.06
0.02
0.02
0.00
0.01
0.01
0.06
0.06
0.00
0.00
0.01
0.00
0.01
0.29
0.84
0.99
0.83
0.58
0.75
0.65
0.51
0.45
0.11
0.06
0.01
0.11
0.06
0.06
0.06
0.06
0.01
0.01
0.01
0.01
0.01
0.01
0.00
0.01
0.01
0.00
0.00
0.02
0.00
0.06
0.06
0.15
0.21
0.29
0.41
0.41
0.45
0.41
0.33
0.21
0.15
0.15
0.10
0.06
0.06
0.06
0.02
0.02
0.02
0.02
0.06
0.02
0.02
0.06
0.06
0.02
0.02
0.02
0.06
0.06
0.10
0.10
0.10
0.21
0.15
0.15
0.10
0.10
0.06
0.06
0.06
0.06
0.02
0.06
0.10
0.06
0.10
0.65
0.88
0.99
0.83
0.54
0.54
0.51
0.49
0.11
0.00
0.00
0.02
0.02
0.06
0.02
0.02
0.06
0.06
0.06
0.02
0.02
0.06
0.06
0.06
0.02
0.06
0.10
0.06
0.10
0.15
0.15
0.26
0.33
0.41
0.41
0.58
0.63
0.63
0.58
0.45
0.33
0.29
0.21
0.15
0.10
0.10
0.10
0.06
0.10
0.10
0.06
0.06
0.06
0.15
0.06
0.06
0.10
0.10
0.10
0.06
0.10
0.15
0.15
0.15
0.26
0.21
0.21
0.21
0.15
0.15
0.10
0.06
0.10
0.06
0.10
0.10
0.15
0.15
0.53
0.85
1.00
0.85
0.51
0.58
0.51
0.45
0.11
0.00
0.02
0.02
0.02
0.00
0.02
0.02
0.02
0.02
0.02
0.02
0.02
0.02
0.02
0.02
0.06
0.02
0.06
0.10
0.10
0.10
0.21
0.21
0.26
0.33
0.41
0.53
0.58
0.53
0.53
0.41
0.29
0.21
0.15
0.10
0.06
0.06
0.06
0.06
0.02
0.02
0.02
0.02
0.02
0.02
0.06
0.10
0.06
0.06
0.06
0.06
0.06
0.02
0.06
0.15
0.21
0.15
0.15
0.15
0.10
0.06
0.06
0.06
0.06
0.06
0.06
0.10
0.06
0.10
0.21
0.81
0.88
0.89
0.10
0.54
0.51
0.49
0.45
0.11
0.00
0.00
0.02
0.00
0.02
0.00
0.02
0.02
0.02
0.02
0.06
0.00
0.06
0.02
0.06
0.10
0.06
0.06
0.10
0.15
0.15
0.26
0.26
0.33
0.41
0.53
0.53
0.58
0.53
0.33
0.29
0.29
0.15
0.15
0.15
0.06
0.10
0.06
0.10
0.10
0.15
0.06
0.10
0.10
0.10
0.06
0.10
0.06
0.06
0.06
0.10
0.15
0.15
0.15
0.21
0.21
0.21
0.15
0.15
0.15
0.10
0.06
0.10
0.10
0.10
0.10
0.10
0.15
0.29
0.82
0.90
0.88
0.06
0.49
0.49
0.45
0.30
0.06
0.02
0.06
0.02
0.02
0.06
0.06
0.06
0.06
0.06
0.10
0.06
0.06
0.06
0.10
0.06
0.06
0.10
0.15
0.10
0.10
0.15
0.21
0.26
0.26
0.33
0.45
0.53
0.58
0.58
0.45
0.41
0.29
0.26
0.21
0.15
0.15
0.15
0.15
0.15
0.15
0.10
0.21
0.10
0.15
0.10
0.15
0.10
0.10
0.15
0.15
0.15
0.15
0.21
0.15
0.29
0.26
0.26
0.26
0.15
0.15
0.15
0.15
0.10
0.15
0.15
0.21
0.15
0.10
0.53
0.85
1.00
0.87
0.45
0.49
0.48
0.39
0.19
0.02
0.02
0.02
0.02
0.06
0.06
0.02
0.06
0.06
0.06
0.10
0.10
0.10
0.10
0.06
0.06
0.10
0.10
0.10
0.10
0.21
0.21
0.21
0.26
0.33
0.41
0.45
0.58
0.63
0.58
0.53
0.45
0.33
0.29
0.26
0.21
0.26
0.21
0.15
0.15
0.21
0.15
0.10
0.15
0.15
0.10
0.15
0.15
0.15
0.15
0.15
0.15
0.21
0.21
0.29
0.26
0.26
0.26
0.15
0.15
0.21
0.15
0.10
0.06
0.15
0.15
0.21
0.15
0.58
0.83
1.00
0.88
0.01
0.58
0.49
0.45
0.11
0.00
0.00
0.02
0.02
0.02
0.02
0.06
0.06
0.06
0.06
0.06
0.06
0.06
0.02
0.06
0.06
0.02
0.10
0.02
0.10
0.10
0.15
0.15
0.26
0.29
0.29
0.41
0.45
0.58
0.53
0.41
0.41
0.26
0.15
0.10
0.10
0.10
0.02
0.02
0.06
0.02
0.06
0.06
0.06
0.06
0.02
0.02
0.06
0.02
0.02
0.02
0.06
0.06
0.10
0.10
0.26
0.15
0.10
0.15
0.06
0.02
0.02
0.02
0.02
0.02
0.02
0.06
0.06
0.06
0.63
0.88
0.99
0.82
0.65
0.70
0.54
0.48
0.30
0.06
0.00
0.06
0.01
0.01
0.01
0.01
0.01
0.01
0.01
0.01
0.01
0.01
0.01
0.06
0.01
0.01
0.01
0.01
0.01
0.00
0.02
0.10
0.15
0.15
0.26
0.33
0.41
0.33
0.29
0.26
0.15
0.06
0.06
0.00
0.00
0.01
0.00
0.01
0.01
0.01
0.00
0.01
0.06
0.01
0.00
0.00
0.01
0.01
0.01
0.01
0.01
0.01
0.02
0.02
0.06
0.06
0.06
0.02
0.00
0.02
0.00
0.00
0.01
0.01
0.00
0.00
0.00
0.00
0.29
0.84
0.99
0.86
0.49
0.80
0.58
0.54
0.49
0.19
0.11
0.06
0.06
0.11
0.06
0.11
0.06
0.06
0.11
0.01
0.06
0.01
0.06
0.01
0.01
0.01
0.01
0.00
0.00
0.00
0.02
0.06
0.15
0.21
0.26
0.41
0.45
0.41
0.33
0.26
0.15
0.10
0.02
0.02
0.02
0.00
0.00
0.01
0.01
0.01
0.01
0.00
0.00
0.00
0.01
0.01
0.00
0.01
0.01
0.00
0.00
0.00
0.02
0.06
0.10
0.06
0.06
0.06
0.02
0.00
0.00
0.01
0.00
0.00
0.01
0.00
0.00
0.02
0.53
0.85
0.93
0.81
0.65
0.65
0.54
0.49
0.45
0.11
0.06
0.11
0.06
0.06
0.06
0.06
0.06
0.06
0.01
0.01
0.06
0.06
0.00
0.01
0.01
0.01
0.00
0.00
0.02
0.06
0.10
0.10
0.10
0.21
0.29
0.41
0.41
0.45
0.33
0.29
0.15
0.10
0.10
0.02
0.00
0.00
0.00
0.00
0.00
0.00
0.00
0.01
0.01
0.00
0.00
0.01
0.01
0.01
0.01
0.01
0.00
0.00
0.02
0.02
0.06
0.02
0.06
0.02
0.00
0.02
0.00
0.01
0.01
0.01
0.00
0.00
0.02
0.02
0.68
0.88
0.88
0.73
0.58
0.70
0.49
0.51
0.39
0.11
0.06
0.11
0.01
0.01
0.06
0.01
0.06
0.01
0.06
0.01
0.01
0.01
0.01
0.01
0.00
0.01
0.01
0.01
0.00
0.00
0.02
0.06
0.15
0.10
0.21
0.26
0.33
0.41
0.33
0.29
0.26
0.10
0.06
0.02
0.02
0.00
0.00
0.00
0.00
0.00
0.00
0.00
0.00
0.00
0.01
0.01
0.00
0.01
0.01
0.00
0.00
0.00
0.00
0.00
0.06
0.06
0.02
0.02
0.02
0.00
0.00
0.01
0.01
0.01
0.01
0.01
0.00
0.00
0.00
0.68
0.88
0.88
0.63
0.75
0.65
0.49
0.51
0.45
0.11
0.11
0.11
0.11
0.11
0.06
0.06
0.06
0.01
0.06
0.06
0.06
0.06
0.06
0.06
0.06
0.01
0.06
0.06
0.01
0.01
0.00
0.06
0.10
0.15
0.29
0.29
0.33
0.33
0.26
0.21
0.10
0.06
0.02
0.00
0.00
0.01
0.01
0.01
0.01
0.00
0.01
0.01
0.06
0.01
0.01
0.06
0.06
0.01
0.01
0.06
0.00
0.00
0.02
0.02
0.02
0.02
0.00
0.00
0.01
0.01
0.06
0.11
0.06
0.06
0.01
0.01
0.01
0.45
0.88
0.98
0.77
0.80
0.75
0.58
0.49
0.39
0.19
0.19
0.11
0.11
0.11
0.19
0.11
0.06
0.19
0.11
0.11
0.11
0.11
0.11
0.11
0.11
0.06
0.06
0.11
0.06
0.06
0.06
0.01
0.02
0.06
0.10
0.21
0.29
0.26
0.26
0.15
0.10
0.02
0.00
0.00
0.01
0.06
0.06
0.06
0.01
0.06
0.06
0.01
0.01
0.01
0.06
0.06
0.01
0.01
0.01
0.01
0.00
0.01
0.02
0.06
0.02
0.02
0.00
0.02
0.00
0.00
0.01
0.01
0.01
0.01
0.00
0.02
0.00
0.66
0.85
0.99
0.83
0.54
0.84
0.65
0.49
0.49
0.19
0.11
0.06
0.11
0.06
0.06
0.06
0.06
0.06
0.06
0.01
0.01
0.06
0.06
0.01
0.01
0.06
0.01
0.06
0.01
0.00
0.02
0.06
0.10
0.15
0.15
0.29
0.33
0.41
0.41
0.33
0.26
0.21
0.10
0.06
0.02
0.00
0.02
0.02
0.00
0.00
0.02
0.02
0.00
0.02
0.00
0.02
0.02
0.02
0.02
0.02
0.02
0.02
0.10
0.15
0.15
0.10
0.10
0.10
0.06
0.06
0.06
0.06
0.02
0.02
0.02
0.06
0.06
0.06
0.65
0.88
0.99
0.84
0.49
0.65
0.54
0.48
0.30
0.01
0.01
0.00
0.00
0.00
0.00
0.00
0.00
0.00
0.00
0.00
0.00
0.02
0.02
0.00
0.02
0.06
0.02
0.06
0.02
0.06
0.15
0.15
0.26
0.29
0.33
0.45
0.53
0.58
0.45
0.41
0.26
0.26
0.15
0.10
0.06
0.06
0.06
0.02
0.02
0.02
0.02
0.02
0.02
0.02
0.02
0.02
0.06
0.02
0.02
0.02
0.02
0.06
0.06
0.10
0.15
0.21
0.15
0.10
0.06
0.06
0.06
0.02
0.02
0.02
0.02
0.02
0.06
0.10
0.26
0.82
0.99
0.88
0.10
0.75
0.54
0.48
0.45
0.11
0.00
0.00
0.01
0.00
0.00
0.00
0.02
0.00
0.00
0.02
0.00
0.00
0.00
0.02
0.00
0.00
0.02
0.06
0.06
0.06
0.10
0.10
0.15
0.26
0.29
0.45
0.53
0.53
0.53
0.41
0.33
0.26
0.15
0.15
0.06
0.06
0.06
0.06
0.06
0.02
0.02
0.06
0.02
0.02
0.02
0.02
0.02
0.02
0.02
0.06
0.02
0.02
0.02
0.06
0.10
0.21
0.15
0.10
0.10
0.06
0.06
0.02
0.06
0.02
0.00
0.02
0.02
0.02
0.06
0.21
0.82
0.94
0.85
0.45
0.65
0.49
0.48
0.30
0.06
0.01
0.00
0.00
0.01
0.00
0.00
0.00
0.00
0.00
0.00
0.02
0.00
0.02
0.02
0.06
0.06
0.06
0.06
0.10
0.10
0.15
0.21
0.29
0.33
0.41
0.53
0.53
0.45
0.41
0.33
0.21
0.10
0.06
0.10
0.06
0.02
0.00
0.00
0.06
0.06
0.02
0.06
0.06
0.02
0.00
0.02
0.02
0.02
0.00
0.02
0.02
0.06
0.06
0.10
0.15
0.10
0.10
0.06
0.10
0.06
0.02
0.02
0.02
0.02
0.02
0.06
0.10
0.10
0.63
0.86
0.90
0.81
0.51
0.51
0.45
0.39
0.19
0.02
0.06
0.02
0.02
0.06
0.06
0.02
0.02
0.02
0.06
0.02
0.02
0.02
0.06
0.06
0.02
0.06
0.06
0.06
0.10
0.06
0.15
0.21
0.21
0.29
0.33
0.41
0.45
0.53
0.41
0.29
0.26
0.21
0.15
0.15
0.06
0.10
0.10
0.06
0.06
0.06
0.10
0.10
0.06
0.10
0.06
0.06
0.06
0.06
0.10
0.06
0.10
0.10
0.15
0.10
0.15
0.21
0.21
0.15
0.15
0.15
0.15
0.10
0.06
0.10
0.06
0.10
0.10
0.15
0.15
0.66
0.88
0.94
0.79
0.49
0.51
0.49
0.30
0.11
0.00
0.06
0.06
0.02
0.06
0.06
0.06
0.06
0.06
0.06
0.06
0.06
0.06
0.06
0.06
0.06
0.06
0.10
0.06
0.10
0.10
0.15
0.21
0.21
0.29
0.41
0.45
0.53
0.58
0.53
0.45
0.33
0.29
0.21
0.15
0.15
0.15
0.15
0.15
0.10
0.10
0.10
0.15
0.10
0.10
0.15
0.15
0.10
0.10
0.10
0.10
0.15
0.15
0.21
0.26
0.26
0.21
0.21
0.21
0.21
0.15
0.15
0.15
0.10
0.10
0.10
0.15
0.15
0.10
0.33
0.84
1.00
0.88
0.01
0.54
0.48
0.45
0.11
0.02
0.02
0.02
0.02
0.06
0.06
0.02
0.06
0.06
0.06
0.02
0.06
0.06
0.06
0.06
0.06
0.06
0.06
0.06
0.06
0.10
0.10
0.10
0.21
0.29
0.29
0.33
0.45
0.53
0.53
0.41
0.33
0.29
0.21
0.15
0.10
0.10
0.06
0.06
0.06
0.10
0.10
0.06
0.06
0.06
0.02
0.06
0.06
0.06
0.06
0.06
0.06
0.10
0.10
0.15
0.26
0.21
0.15
0.15
0.10
0.10
0.06
0.02
0.02
0.06
0.02
0.06
0.06
0.06
0.53
0.87
1.00
0.82
0.54
0.70
0.49
0.48
0.30
0.06
0.01
0.01
0.01
0.01
0.01
0.00
0.06
0.01
0.01
0.01
0.01
0.01
0.01
0.06
0.01
0.00
0.01
0.00
0.01
0.00
0.02
0.02
0.10
0.10
0.15
0.29
0.33
0.33
0.41
0.29
0.26
0.10
0.02
0.06
0.06
0.00
0.00
0.00
0.00
0.01
0.01
0.00
0.00
0.01
0.01
0.01
0.01
0.01
0.01
0.01
0.00
0.01
0.00
0.00
0.02
0.10
0.06
0.06
0.00
0.02
0.00
0.00
0.01
0.01
0.01
0.00
0.00
0.06
0.00
0.65
0.89
0.99
0.79
0.70
0.70
0.58
0.51
0.30
0.11
0.06
0.11
0.01
0.06
0.06
0.06
0.06
0.06
0.06
0.06
0.01
0.01
0.06
0.01
0.01
0.01
0.01
0.00
0.00
0.00
0.06
0.06
0.15
0.21
0.29
0.33
0.45
0.45
0.29
0.26
0.15
0.10
0.02
0.02
0.02
0.00
0.01
0.00
0.00
0.00
0.01
0.00
0.00
0.00
0.01
0.01
0.00
0.01
0.01
0.00
0.02
0.00
0.02
0.02
0.15
0.06
0.06
0.06
0.02
0.00
0.00
0.01
0.01
0.01
0.01
0.01
0.02
0.00
0.26
0.84
0.99
0.85
0.48
0.84
0.65
0.54
0.48
0.30
0.11
0.11
0.11
0.11
0.06
0.06
0.06
0.06
0.06
0.06
0.11
0.06
0.01
0.01
0.01
0.01
0.01
0.01
0.01
0.02
0.02
0.10
0.10
0.21
0.26
0.33
0.41
0.45
0.33
0.29
0.21
0.10
0.06
0.00
0.00
0.01
0.00
0.01
0.01
0.01
0.01
0.01
0.01
0.01
0.00
0.01
0.01
0.01
0.01
0.01
0.01
0.01
0.00
0.00
0.02
0.06
0.02
0.02
0.00
0.00
0.00
0.01
0.01
0.06
0.06
0.06
0.01
0.00
0.00
0.66
0.88
0.94
0.79
0.75
0.70
0.58
0.49
0.45
0.19
0.19
0.19
0.11
0.11
0.11
0.11
0.11
0.11
0.11
0.11
0.06
0.11
0.11
0.06
0.06
0.11
0.06
0.06
0.06
0.00
0.00
0.06
0.10
0.15
0.26
0.33
0.33
0.29
0.26
0.15
0.06
0.02
0.01
0.06
0.06
0.11
0.11
0.06
0.06
0.06
0.11
0.06
0.11
0.11
0.06
0.11
0.11
0.11
0.11
0.06
0.06
0.06
0.00
0.02
0.00
0.00
0.01
0.01
0.06
0.06
0.06
0.11
0.19
0.11
0.06
0.06
0.06
0.06
0.82
0.88
0.84
0.51
0.75
0.70
0.58
0.54
0.49
0.19
0.30
0.19
0.30
0.19
0.30
0.19
0.19
0.19
0.19
0.11
0.11
0.11
0.11
0.11
0.11
0.06
0.11
0.11
0.06
0.01
0.01
0.00
0.02
0.10
0.15
0.26
0.21
0.26
0.10
0.02
0.00
0.01
0.06
0.11
0.11
0.19
0.19
0.11
0.11
0.11
0.11
0.19
0.19
0.11
0.11
0.19
0.19
0.19
0.19
0.19
0.11
0.06
0.06
0.01
0.01
0.06
0.11
0.11
0.11
0.11
0.19
0.19
0.19
0.11
0.06
0.06
0.11
0.21
0.83
0.88
0.81
0.65
0.80
0.65
0.54
0.51
0.39
0.30
0.19
0.19
0.30
0.19
0.19
0.19
0.19
0.19
0.19
0.11
0.30
0.19
0.19
0.19
0.11
0.19
0.19
0.11
0.11
0.11
0.06
0.00
0.02
0.06
0.10
0.26
0.26
0.21
0.15
0.10
0.02
0.00
0.01
0.01
0.06
0.06
0.11
0.11
0.11
0.06
0.11
0.06
0.11
0.11
0.06
0.11
0.11
0.11
0.11
0.06
0.06
0.01
0.02
0.00
0.00
0.00
0.06
0.01
0.01
0.11
0.11
0.06
0.11
0.06
0.06
0.01
0.00
0.77
0.88
0.88
0.65
0.84
0.75
0.54
0.51
0.39
0.19
0.19
0.11
0.19
0.19
0.11
0.19
0.19
0.11
0.11
0.11
0.11
0.11
0.06
0.11
0.11
0.19
0.11
0.06
0.06
0.01
0.02
0.02
0.06
0.15
0.21
0.29
0.29
0.29
0.29
0.15
0.10
0.06
0.02
0.00
0.00
0.00
0.00
0.01
0.01
0.01
0.01
0.01
0.01
0.01
0.00
0.01
0.00
0.00
0.00
0.00
0.02
0.06
0.10
0.06
0.02
0.02
0.02
0.00
0.01
0.01
0.01
0.00
0.01
0.02
0.02
0.02
0.63
0.88
0.98
0.81
0.65
0.70
0.49
0.51
0.30
0.06
0.01
0.06
0.06
0.06
0.01
0.01
0.01
0.01
0.01
0.06
0.06
0.01
0.01
0.01
0.01
0.00
0.00
0.00
0.00
0.00
0.02
0.10
0.10
0.21
0.29
0.33
0.41
0.41
0.29
0.26
0.21
0.10
0.06
0.02
0.02
0.00
0.02
0.02
0.00
0.00
0.00
0.00
0.00
0.00
0.01
0.00
0.01
0.00
0.00
0.02
0.02
0.06
0.10
0.10
0.06
0.06
0.06
0.02
0.02
0.00
0.00
0.00
0.00
0.01
0.02
0.02
0.02
0.63
0.88
1.00
0.82
0.70
0.70
0.54
0.48
0.39
0.06
0.06
0.06
0.01
0.01
0.06
0.06
0.06
0.01
0.06
0.01
0.01
0.00
0.01
0.00
0.00
0.00
0.00
0.00
0.02
0.10
0.06
0.10
0.21
0.26
0.33
0.41
0.45
0.53
0.33
0.29
0.21
0.15
0.06
0.02
0.02
0.02
0.02
0.02
0.00
0.00
0.02
0.00
0.00
0.02
0.02
0.00
0.02
0.02
0.02
0.00
0.02
0.06
0.10
0.21
0.10
0.10
0.06
0.06
0.06
0.06
0.02
0.02
0.02
0.02
0.06
0.06
0.06
0.53
0.84
0.99
0.86
0.49
0.70
0.49
0.48
0.39
0.06
0.00
0.00
0.00
0.00
0.00
0.00
0.02
0.00
0.00
0.00
0.02
0.00
0.00
0.00
0.06
0.02
0.02
0.06
0.02
0.06
0.10
0.21
0.26
0.29
0.33
0.53
0.58
0.53
0.45
0.33
0.33
0.21
0.15
0.10
0.06
0.06
0.02
0.02
0.06
0.02
0.02
0.02
0.02
0.02
0.02
0.02
0.06
0.02
0.02
0.06
0.02
0.10
0.10
0.15
0.21
0.10
0.10
0.06
0.06
0.06
0.02
0.02
0.02
0.02
0.02
0.06
0.06
0.33
0.83
0.99
0.86
0.48
0.65
0.49
0.48
0.39
0.06
0.01
0.00
0.00
0.00
0.00
0.00
0.00
0.00
0.02
0.02
0.02
0.00
0.02
0.02
0.02
0.02
0.02
0.10
0.06
0.10
0.15
0.21
0.26
0.33
0.41
0.58
0.58
0.58
0.53
0.41
0.29
0.21
0.15
0.10
0.10
0.06
0.06
0.06
0.06
0.06
0.06
0.06
0.06
0.02
0.06
0.06
0.06
0.06
0.06
0.06
0.06
0.10
0.15
0.26
0.15
0.15
0.15
0.15
0.10
0.10
0.02
0.06
0.06
0.02
0.10
0.15
0.10
0.15
0.76
0.87
0.88
0.58
0.54
0.48
0.45
0.45
0.19
0.00
0.00
0.00
0.02
0.02
0.02
0.02
0.02
0.02
0.06
0.06
0.06
0.10
0.06
0.06
0.06
0.10
0.10
0.10
0.15
0.21
0.21
0.26
0.29
0.41
0.53
0.58
0.58
0.58
0.45
0.33
0.29
0.21
0.15
0.15
0.10
0.15
0.10
0.10
0.10
0.06
0.10
0.10
0.06
0.10
0.10
0.06
0.10
0.06
0.06
0.06
0.15
0.15
0.21
0.21
0.21
0.21
0.15
0.15
0.10
0.10
0.10
0.10
0.06
0.06
0.10
0.15
0.15
0.41
0.83
0.93
0.83
0.48
0.49
0.49
0.45
0.19
0.00
0.06
0.02
0.02
0.06
0.06
0.06
0.06
0.06
0.02
0.06
0.06
0.06
0.06
0.06
0.10
0.06
0.10
0.06
0.10
0.15
0.15
0.21
0.26
0.29
0.33
0.45
0.58
0.53
0.45
0.41
0.33
0.26
0.15
0.10
0.10
0.10
0.10
0.06
0.10
0.10
0.06
0.06
0.10
0.10
0.06
0.10
0.06
0.06
0.06
0.10
0.10
0.10
0.15
0.21
0.26
0.21
0.15
0.15
0.15
0.10
0.06
0.02
0.06
0.02
0.02
0.06
0.06
0.06
0.33
0.84
0.96
0.88
0.30
0.58
0.49
0.48
0.39
0.06
0.00
0.01
0.01
0.01
0.01
0.01
0.01
0.01
0.00
0.01
0.01
0.01
0.01
0.00
0.01
0.01
0.00
0.00
0.00
0.02
0.00
0.06
0.10
0.10
0.26
0.26
0.33
0.41
0.33
0.29
0.21
0.15
0.15
0.06
0.02
0.00
0.00
0.00
0.00
0.00
0.02
0.00
0.01
0.00
0.01
0.01
0.01
0.01
0.01
0.00
0.00
0.02
0.10
0.02
0.02
0.00
0.00
0.01
0.01
0.01
0.01
0.01
0.06
0.01
0.00
0.01
0.29
0.84
0.99
0.82
0.70
0.80
0.58
0.49
0.49
0.19
0.11
0.19
0.19
0.11
0.11
0.11
0.19
0.11
0.11
0.11
0.11
0.11
0.06
0.11
0.11
0.06
0.06
0.06
0.06
0.01
0.00
0.00
0.02
0.10
0.15
0.21
0.26
0.29
0.26
0.21
0.10
0.02
0.02
0.00
0.01
0.01
0.00
0.01
0.06
0.06
0.06
0.06
0.01
0.06
0.01
0.06
0.11
0.06
0.06
0.06
0.01
0.01
0.02
0.06
0.02
0.00
0.00
0.00
0.01
0.01
0.01
0.06
0.06
0.06
0.01
0.01
0.06
0.15
0.83
0.99
0.84
0.58
0.84
0.70
0.54
0.48
0.19
0.19
0.19
0.19
0.19
0.19
0.19
0.19
0.11
0.11
0.11
0.11
0.11
0.11
0.19
0.11
0.06
0.11
0.06
0.11
0.01
0.01
0.02
0.06
0.15
0.15
0.29
0.33
0.33
0.26
0.21
0.10
0.02
0.00
0.00
0.00
0.00
0.01
0.11
0.01
0.06
0.01
0.06
0.06
0.01
0.01
0.06
0.06
0.01
0.06
0.06
0.01
0.00
0.02
0.06
0.02
0.02
0.00
0.00
0.01
0.06
0.06
0.06
0.06
0.01
0.01
0.01
0.00
0.41
0.88
0.95
0.79
0.80
0.75
0.65
0.49
0.39
0.19
0.19
0.11
0.06
0.11
0.11
0.11
0.11
0.11
0.11
0.11
0.06
0.06
0.11
0.06
0.06
0.06
0.06
0.06
0.01
0.00
0.02
0.02
0.06
0.10
0.21
0.29
0.33
0.29
0.21
0.15
0.06
0.02
0.00
0.06
0.01
0.01
0.11
0.06
0.11
0.11
0.06
0.06
0.06
0.11
0.06
0.06
0.06
0.06
0.06
0.06
0.01
0.01
0.02
0.02
0.00
0.00
0.01
0.01
0.01
0.06
0.06
0.06
0.11
0.06
0.06
0.01
0.00
0.58
0.88
0.93
0.82
0.70
0.80
0.65
0.54
0.49
0.30
0.19
0.19
0.11
0.19
0.11
0.11
0.19
0.19
0.11
0.19
0.11
0.11
0.11
0.06
0.11
0.06
0.06
0.06
0.01
0.01
0.01
0.06
0.10
0.15
0.21
0.29
0.29
0.26
0.21
0.15
0.02
0.01
0.06
0.06
0.11
0.11
0.11
0.06
0.11
0.19
0.19
0.19
0.19
0.19
0.19
0.19
0.19
0.19
0.11
0.11
0.11
0.11
0.01
0.06
0.06
0.11
0.06
0.11
0.19
0.19
0.30
0.19
0.19
0.19
0.11
0.11
0.00
0.80
0.88
0.85
0.49
0.84
0.70
0.70
0.54
0.49
0.30
0.30
0.39
0.30
0.39
0.30
0.30
0.39
0.30
0.19
0.30
0.30
0.30
0.19
0.19
0.19
0.19
0.11
0.19
0.19
0.06
0.06
0.00
0.02
0.06
0.15
0.21
0.21
0.15
0.06
0.00
0.06
0.11
0.06
0.11
0.30
0.30
0.19
0.19
0.19
0.19
0.30
0.19
0.19
0.30
0.30
0.30
0.30
0.19
0.11
0.19
0.11
0.11
0.01
0.06
0.06
0.06
0.06
0.11
0.19
0.19
0.19
0.30
0.19
0.19
0.11
0.11
0.11
0.71
0.87
0.88
0.10
0.84
0.70
0.65
0.58
0.49
0.30
0.30
0.30
0.30
0.19
0.30
0.30
0.19
0.19
0.19
0.19
0.19
0.11
0.19
0.30
0.19
0.11
0.19
0.19
0.11
0.06
0.01
0.01
0.02
0.06
0.15
0.26
0.29
0.29
0.26
0.15
0.06
0.02
0.00
0.01
0.01
0.00
0.01
0.01
0.01
0.01
0.01
0.06
0.01
0.01
0.01
0.06
0.01
0.01
0.01
0.01
0.00
0.02
0.06
0.02
0.02
0.02
0.00
0.01
0.00
0.01
0.01
0.01
0.01
0.01
0.01
0.00
0.15
0.83
0.99
0.88
0.39
0.75
0.58
0.51
0.49
0.11
0.11
0.11
0.06
0.06
0.06
0.11
0.06
0.06
0.06
0.06
0.06
0.01
0.06
0.06
0.06
0.01
0.01
0.01
0.01
0.00
0.00
0.02
0.06
0.10
0.15
0.26
0.33
0.33
0.33
0.26
0.21
0.15
0.06
0.02
0.02
0.02
0.00
0.00
0.01
0.02
0.00
0.01
0.01
0.00
0.00
0.01
0.01
0.00
0.00
0.00
0.02
0.02
0.06
0.06
0.06
0.06
0.02
0.02
0.00
0.00
0.01
0.01
0.01
0.02
0.00
0.02
0.06
0.72
0.87
0.96
0.78
0.65
0.65
0.54
0.49
0.19
0.06
0.01
0.01
0.01
0.01
0.01
0.01
0.06
0.01
0.01
0.01
0.00
0.01
0.01
0.01
0.01
0.01
0.01
0.01
0.02
0.02
0.02
0.06
0.15
0.21
0.29
0.41
0.41
0.33
0.33
0.21
0.15
0.10
0.06
0.00
0.02
0.00
0.00
0.02
0.00
0.00
0.00
0.00
0.00
0.00
0.00
0.00
0.00
0.00
0.00
0.02
0.02
0.02
0.06
0.15
0.10
0.10
0.06
0.06
0.02
0.02
0.01
0.00
0.00
0.00
0.00
0.02
0.02
0.15
0.82
0.98
0.88
0.10
0.75
0.65
0.51
0.49
0.19
0.06
0.01
0.01
0.01
0.01
0.01
0.01
0.01
0.01
0.00
0.06
0.01
0.01
0.00
0.01
0.01
0.00
0.02
0.02
0.02
0.02
0.10
0.15
0.21
0.26
0.33
0.45
0.45
0.41
0.41
0.29
0.21
0.15
0.06
0.06
0.06
0.00
0.02
0.02
0.00
0.02
0.00
0.02
0.02
0.02
0.02
0.00
0.00
0.02
0.00
0.02
0.02
0.02
0.10
0.15
0.15
0.10
0.10
0.06
0.06
0.06
0.02
0.02
0.00
0.02
0.06
0.06
0.06
0.21
0.82
0.96
0.89
0.06
0.70
0.58
0.51
0.45
0.11
0.00
0.01
0.01
0.01
0.00
0.00
0.00
0.00
0.00
0.01
0.00
0.00
0.00
0.00
0.00
0.00
0.02
0.02
0.02
0.02
0.06
0.10
0.15
0.26
0.26
0.33
0.53
0.53
0.53
0.41
0.29
0.29
0.21
0.10
0.10
0.06
0.06
0.06
0.06
0.06
0.06
0.06
0.02
0.02
0.02
0.06
0.02
0.06
0.02
0.02
0.06
0.02
0.06
0.06
0.15
0.15
0.21
0.10
0.15
0.06
0.06
0.06
0.06
0.06
0.06
0.06
0.06
0.10
0.10
0.21
0.81
0.93
0.87
0.33
0.70
0.54
0.48
0.39
0.06
0.02
0.00
0.02
0.00
0.02
0.02
0.00
0.00
0.06
0.02
0.02
0.02
0.02
0.06
0.06
0.06
0.10
0.06
0.10
0.10
0.21
0.21
0.26
0.33
0.45
0.53
0.58
0.63
0.58
0.45
0.33
0.29
0.26
0.15
0.10
0.10
0.10
0.06
0.06
0.06
0.06
0.06
0.06
0.06
0.06
0.10
0.10
0.06
0.06
0.06
0.06
0.06
0.10
0.10
0.15
0.21
0.26
0.21
0.15
0.15
0.15
0.10
0.10
0.06
0.10
0.06
0.10
0.10
0.10
0.21
0.78
0.88
0.87
0.53
0.49
0.51
0.45
0.45
0.06
0.02
0.06
0.02
0.02
0.02
0.02
0.02
0.02
0.06
0.06
0.06
0.06
0.06
0.10
0.10
0.10
0.15
0.15
0.15
0.21
0.15
0.26
0.29
0.33
0.41
0.53
0.58
0.58
0.58
0.45
0.41
0.29
0.21
0.21
0.15
0.10
0.10
0.10
0.06
0.10
0.10
0.10
0.06
0.10
0.06
0.10
0.06
0.06
0.06
0.06
0.06
0.06
0.10
0.06
0.10
0.15
0.15
0.21
0.15
0.10
0.10
0.10
0.02
0.02
0.02
0.02
0.02
0.06
0.06
0.06
0.72
0.88
0.88
0.68
0.65
0.54
0.48
0.49
0.30
0.01
0.00
0.00
0.00
0.00
0.01
0.01
0.00
0.00
0.00
0.00
0.02
0.00
0.00
0.00
0.00
0.00
0.00
0.02
0.02
0.06
0.10
0.10
0.15
0.21
0.29
0.41
0.45
0.33
0.33
0.26
0.15
0.06
0.06
0.06
0.02
0.02
0.00
0.02
0.02
0.00
0.02
0.02
0.02
0.00
0.00
0.00
0.00
0.00
0.02
0.02
0.00
0.00
0.02
0.06
0.10
0.06
0.06
0.02
0.02
0.00
0.00
0.00
0.00
0.00
0.00
0.02
0.02
0.02
0.10
0.82
0.90
0.88
0.39
0.65
0.54
0.51
0.45
0.19
0.01
0.01
0.01
0.01
0.06
0.06
0.01
0.06
0.01
0.01
0.01
0.00
0.01
0.01
0.00
0.00
0.01
0.01
0.00
0.02
0.02
0.02
0.06
0.15
0.15
0.29
0.33
0.45
0.33
0.29
0.26
0.15
0.10
0.06
0.02
0.02
0.02
0.00
0.02
0.02
0.00
0.00
0.00
0.02
0.00
0.00
0.00
0.00
0.00
0.00
0.00
0.02
0.02
0.02
0.10
0.10
0.06
0.02
0.02
0.02
0.02
0.00
0.01
0.01
0.01
0.01
0.02
0.02
0.02
0.73
0.88
0.92
0.72
0.80
0.65
0.54
0.51
0.30
0.11
0.11
0.06
0.06
0.06
0.06
0.11
0.11
0.11
0.06
0.11
0.06
0.11
0.06
0.06
0.06
0.06
0.06
0.06
0.06
0.01
0.00
0.00
0.02
0.10
0.15
0.21
0.29
0.33
0.29
0.26
0.15
0.06
0.02
0.00
0.00
0.01
0.00
0.01
0.01
0.01
0.01
0.01
0.01
0.01
0.01
0.01
0.06
0.01
0.01
0.01
0.01
0.01
0.00
0.02
0.06
0.06
0.02
0.00
0.00
0.01
0.00
0.01
0.01
0.06
0.01
0.01
0.00
0.01
0.21
0.82
0.98
0.87
0.45
0.80
0.65
0.49
0.45
0.19
0.19
0.11
0.11
0.11
0.11
0.11
0.11
0.11
0.11
0.11
0.06
0.06
0.11
0.06
0.11
0.11
0.06
0.06
0.01
0.01
0.00
0.00
0.06
0.10
0.15
0.26
0.29
0.29
0.29
0.21
0.15
0.06
0.02
0.00
0.00
0.01
0.06
0.01
0.01
0.06
0.06
0.06
0.01
0.06
0.06
0.06
0.01
0.01
0.06
0.06
0.01
0.01
0.00
0.00
0.06
0.06
0.02
0.02
0.00
0.00
0.00
0.01
0.01
0.01
0.01
0.01
0.01
0.00
0.01
0.26
0.84
0.98
0.84
0.49
0.80
0.70
0.54
0.48
0.19
0.11
0.19
0.11
0.11
0.11
0.19
0.19
0.11
0.11
0.19
0.11
0.19
0.19
0.19
0.19
0.11
0.11
0.11
0.11
0.01
0.01
0.00
0.02
0.06
0.15
0.26
0.29
0.29
0.21
0.15
0.06
0.02
0.00
0.01
0.06
0.06
0.11
0.11
0.11
0.11
0.11
0.11
0.11
0.11
0.19
0.19
0.11
0.11
0.11
0.19
0.11
0.11
0.11
0.11
0.01
0.00
0.00
0.01
0.01
0.06
0.11
0.11
0.11
0.19
0.11
0.11
0.11
0.11
0.06
0.06
0.71
0.88
0.90
0.72
0.84
0.84
0.70
0.58
0.48
0.30
0.30
0.39
0.30
0.30
0.30
0.30
0.30
0.19
0.19
0.30
0.19
0.30
0.19
0.30
0.19
0.19
0.19
0.19
0.11
0.06
0.01
0.00
0.00
0.10
0.10
0.21
0.26
0.26
0.21
0.10
0.02
0.00
0.06
0.11
0.19
0.19
0.19
0.19
0.19
0.19
0.30
0.30
0.19
0.19
0.19
0.19
0.19
0.19
0.19
0.19
0.19
0.11
0.11
0.06
0.01
0.00
0.01
0.01
0.06
0.06
0.11
0.19
0.19
0.11
0.19
0.11
0.11
0.06
0.06
0.65
0.88
0.87
0.58
0.80
0.75
0.65
0.58
0.48
0.19
0.19
0.30
0.30
0.19
0.30
0.30
0.19
0.19
0.11
0.11
0.19
0.19
0.11
0.11
0.11
0.11
0.06
0.06
0.06
0.06
0.00
0.02
0.02
0.15
0.21
0.26
0.26
0.26
0.21
0.10
0.06
0.00
0.00
0.06
0.06
0.06
0.06
0.06
0.11
0.11
0.06
0.06
0.06
0.06
0.06
0.11
0.11
0.06
0.06
0.06
0.06
0.06
0.01
0.01
0.00
0.02
0.00
0.00
0.01
0.01
0.01
0.01
0.11
0.06
0.01
0.06
0.06
0.00
0.00
0.21
0.82
0.88
0.83
0.51
0.70
0.54
0.49
0.48
0.19
0.11
0.06
0.06
0.11
0.06
0.06
0.06
0.11
0.06
0.01
0.01
0.06
0.06
0.01
0.01
0.01
0.00
0.00
0.01
0.00
0.00
0.06
0.06
0.10
0.21
0.29
0.33
0.33
0.29
0.26
0.21
0.10
0.06
0.06
0.00
0.00
0.00
0.00
0.00
0.01
0.00
0.00
0.00
0.01
0.00
0.00
0.00
0.01
0.01
0.00
0.01
0.00
0.00
0.02
0.06
0.10
0.06
0.06
0.06
0.02
0.00
0.00
0.01
0.01
0.01
0.00
0.00
0.00
0.02
0.26
0.83
0.96
0.87
0.49
0.70
0.54
0.51
0.45
0.11
0.06
0.06
0.01
0.06
0.06
0.06
0.06
0.01
0.06
0.06
0.01
0.06
0.06
0.06
0.01
0.01
0.01
0.01
0.00
0.00
0.00
0.02
0.06
0.15
0.21
0.29
0.33
0.41
0.33
0.33
0.26
0.15
0.10
0.06
0.02
0.02
0.02
0.00
0.02
0.00
0.00
0.00
0.02
0.00
0.02
0.00
0.02
0.00
0.00
0.02
0.02
0.06
0.06
0.15
0.10
0.10
0.06
0.06
0.06
0.02
0.00
0.00
0.02
0.02
0.02
0.06
0.06
0.15
0.80
0.93
0.88
0.63
0.70
0.51
0.48
0.45
0.11
0.01
0.00
0.01
0.00
0.00
0.00
0.00
0.00
0.00
0.02
0.00
0.00
0.02
0.06
0.02
0.02
0.02
0.02
0.06
0.06
0.10
0.15
0.15
0.15
0.26
0.41
0.45
0.45
0.45
0.41
0.29
0.21
0.15
0.15
0.06
0.10
0.06
0.02
0.06
0.02
0.00
0.02
0.02
0.02
0.06
0.06
0.06
0.06
0.02
0.06
0.06
0.10
0.15
0.15
0.26
0.15
0.15
0.15
0.10
0.10
0.10
0.06
0.06
0.06
0.06
0.15
0.15
0.10
0.58
0.86
0.99
0.83
0.51
0.58
0.51
0.45
0.11
0.02
0.02
0.06
0.06
0.10
0.10
0.10
0.15
0.15
0.21
0.21
0.21
0.21
0.21
0.21
0.29
0.29
0.26
0.29
0.26
0.29
0.33
0.33
0.41
0.53
0.53
0.63
0.65
0.65
0.63
0.53
0.45
0.33
0.26
0.21
0.15
0.21
0.10
0.10
0.15
0.15
0.10
0.10
0.06
0.10
0.06
0.06
0.10
0.15
0.10
0.06
0.10
0.15
0.15
0.21
0.29
0.21
0.21
0.15
0.15
0.15
0.10
0.06
0.06
0.10
0.10
0.10
0.10
0.15
0.65
0.88
0.99
0.82
0.54
0.58
0.51
0.45
0.19
0.00
0.02
0.02
0.02
0.02
0.00
0.02
0.02
0.02
0.06
0.06
0.02
0.02
0.06
0.10
0.02
0.06
0.06
0.15
0.15
0.10
0.21
0.21
0.29
0.33
0.53
0.58
0.63
0.63
0.58
0.53
0.33
0.29
0.21
0.21
0.10
0.15
0.10
0.06
0.10
0.06
0.06
0.10
0.06
0.06
0.06
0.06
0.06
0.06
0.06
0.06
0.10
0.06
0.10
0.15
0.21
0.26
0.21
0.21
0.15
0.10
0.10
0.10
0.06
0.06
0.06
0.06
0.10
0.10
0.15
0.71
0.88
0.94
0.79
0.49
0.54
0.48
0.45
0.19
0.02
0.02
0.02
0.02
0.02
0.00
0.00
0.02
0.00
0.02
0.02
0.02
0.02
0.02
0.02
0.06
0.02
0.06
0.06
0.15
0.15
0.15
0.21
0.29
0.33
0.41
0.53
0.58
0.53
0.41
0.29
0.26
0.15
0.10
0.06
0.06
0.02
0.02
0.02
0.06
0.02
0.02
0.10
0.06
0.02
0.02
0.02
0.06
0.02
0.06
0.06
0.02
0.06
0.06
0.15
0.15
0.10
0.15
0.10
0.06
0.02
0.02
0.00
0.00
0.02
0.00
0.06
0.10
0.15
0.78
0.87
0.88
0.33
0.65
0.54
0.48
0.48
0.19
0.06
0.01
0.01
0.01
0.01
0.00
0.01
0.01
0.01
0.01
0.01
0.00
0.00
0.01
0.01
0.01
0.00
0.00
0.02
0.02
0.02
0.06
0.10
0.15
0.26
0.29
0.33
0.41
0.41
0.29
0.21
0.15
0.10
0.06
0.02
0.02
0.00
0.00
0.00
0.00
0.00
0.00
0.00
0.00
0.00
0.00
0.00
0.00
0.00
0.00
0.00
0.02
0.02
0.06
0.10
0.06
0.06
0.06
0.02
0.02
0.00
0.00
0.00
0.00
0.01
0.00
0.00
0.02
0.02
0.53
0.85
0.93
0.81
0.58
0.65
0.49
0.48
0.39
0.06
0.06
0.01
0.01
0.01
0.06
0.06
0.00
0.01
0.01
0.01
0.01
0.01
0.01
0.01
0.00
0.00
0.00
0.00
0.00
0.00
0.02
0.06
0.10
0.15
0.21
0.29
0.33
0.41
0.33
0.29
0.29
0.15
0.10
0.06
0.02
0.02
0.02
0.02
0.02
0.02
0.00
0.02
0.00
0.02
0.02
0.02
0.02
0.00
0.02
0.00
0.02
0.02
0.02
0.10
0.15
0.10
0.10
0.06
0.06
0.02
0.02
0.00
0.00
0.02
0.00
0.02
0.02
0.06
0.68
0.89
0.99
0.82
0.65
0.65
0.49
0.48
0.30
0.06
0.01
0.06
0.06
0.06
0.01
0.06
0.06
0.06
0.01
0.01
0.01
0.06
0.01
0.01
0.06
0.01
0.00
0.01
0.01
0.00
0.00
0.06
0.10
0.15
0.26
0.29
0.29
0.33
0.29
0.26
0.15
0.10
0.10
0.02
0.00
0.00
0.00
0.01
0.01
0.01
0.00
0.01
0.01
0.01
0.00
0.01
0.01
0.01
0.00
0.01
0.00
0.02
0.06
0.06
0.02
0.02
0.02
0.00
0.00
0.01
0.01
0.06
0.06
0.01
0.00
0.00
0.00
0.65
0.88
0.99
0.79
0.80
0.75
0.58
0.51
0.45
0.11
0.06
0.11
0.11
0.06
0.06
0.11
0.11
0.06
0.11
0.06
0.06
0.11
0.06
0.06
0.06
0.06
0.06
0.06
0.01
0.01
0.01
0.02
0.06
0.15
0.15
0.29
0.33
0.33
0.26
0.21
0.10
0.06
0.02
0.00
0.01
0.00
0.06
0.06
0.06
0.01
0.01
0.11
0.01
0.01
0.06
0.06
0.06
0.06
0.06
0.06
0.01
0.00
0.00
0.06
0.02
0.02
0.02
0.01
0.00
0.00
0.01
0.01
0.06
0.01
0.01
0.01
0.00
0.02
0.79
0.90
0.87
0.21
0.84
0.70
0.54
0.51
0.39
0.19
0.19
0.19
0.19
0.30
0.11
0.11
0.19
0.19
0.19
0.11
0.19
0.19
0.11
0.11
0.19
0.19
0.11
0.06
0.06
0.01
0.00
0.02
0.06
0.15
0.21
0.29
0.29
0.26
0.26
0.15
0.06
0.00
0.01
0.06
0.06
0.11
0.11
0.11
0.11
0.11
0.19
0.06
0.11
0.19
0.11
0.11
0.19
0.19
0.19
0.11
0.11
0.11
0.06
0.00
0.00
0.01
0.06
0.06
0.06
0.11
0.11
0.11
0.19
0.19
0.11
0.11
0.11
0.06
0.63
0.88
0.91
0.76
0.84
0.84
0.75
0.65
0.51
0.39
0.30
0.39
0.39
0.30
0.39
0.30
0.39
0.30
0.30
0.30
0.30
0.30
0.30
0.19
0.30
0.19
0.19
0.19
0.11
0.11
0.01
0.01
0.00
0.06
0.15
0.21
0.26
0.21
0.15
0.06
0.02
0.00
0.06
0.11
0.19
0.19
0.30
0.30
0.30
0.19
0.30
0.30
0.30
0.30
0.30
0.30
0.19
0.19
0.30
0.30
0.19
0.19
0.11
0.06
0.01
0.01
0.06
0.11
0.11
0.11
0.19
0.19
0.19
0.11
0.19
0.11
0.11
0.01
0.72
0.88
0.89
0.06
0.84
0.75
0.65
0.54
0.48
0.39
0.19
0.19
0.30
0.30
0.30
0.30
0.30
0.19
0.19
0.11
0.19
0.19
0.11
0.11
0.11
0.11
0.11
0.01
0.06
0.01
0.01
0.02
0.02
0.10
0.21
0.29
0.33
0.26
0.21
0.10
0.06
0.00
0.00
0.01
0.01
0.06
0.06
0.01
0.01
0.06
0.06
0.01
0.01
0.06
0.01
0.01
0.11
0.06
0.01
0.00
0.01
0.00
0.00
0.02
0.00
0.00
0.02
0.00
0.00
0.06
0.06
0.01
0.06
0.06
0.01
0.00
0.00
0.01
0.33
0.85
0.88
0.77
0.58
0.58
0.49
0.51
0.45
0.11
0.06
0.06
0.06
0.01
0.01
0.01
0.01
0.01
0.06
0.06
0.01
0.01
0.01
0.01
0.01
0.00
0.00
0.00
0.00
0.02
0.02
0.02
0.10
0.15
0.21
0.29
0.33
0.45
0.33
0.29
0.21
0.15
0.10
0.06
0.02
0.02
0.02
0.00
0.02
0.00
0.02
0.02
0.02
0.02
0.00
0.02
0.00
0.02
0.00
0.00
0.02
0.06
0.06
0.06
0.10
0.10
0.06
0.06
0.06
0.06
0.02
0.00
0.00
0.00
0.02
0.02
0.02
0.06
0.21
0.82
0.96
0.89
0.02
0.65
0.54
0.48
0.45
0.11
0.06
0.01
0.01
0.01
0.01
0.01
0.01
0.01
0.01
0.01
0.01
0.01
0.01
0.00
0.01
0.01
0.01
0.01
0.01
0.00
0.00
0.02
0.06
0.10
0.15
0.26
0.33
0.41
0.33
0.33
0.26
0.21
0.10
0.06
0.02
0.00
0.02
0.02
0.00
0.00
0.00
0.02
0.00
0.01
0.02
0.00
0.00
0.00
0.00
0.02
0.02
0.06
0.06
0.15
0.06
0.06
0.02
0.02
0.00
0.00
0.00
0.00
0.00
0.00
0.00
0.02
0.02
0.75
0.88
0.93
0.72
0.75
0.65
0.49
0.48
0.30
0.06
0.06
0.06
0.06
0.06
0.06
0.11
0.06
0.01
0.01
0.06
0.06
0.06
0.01
0.06
0.01
0.01
0.01
0.01
0.01
0.00
0.02
0.02
0.06
0.15
0.26
0.29
0.33
0.33
0.33
0.29
0.21
0.10
0.10
0.02
0.02
0.00
0.00
0.00
0.00
0.00
0.00
0.02
0.00
0.00
0.00
0.00
0.00
0.00
0.00
0.00
0.00
0.02
0.06
0.10
0.10
0.10
0.10
0.06
0.06
0.02
0.02
0.00
0.00
0.02
0.02
0.06
0.02
0.10
0.81
0.96
0.88
0.10
0.75
0.58
0.51
0.45
0.11
0.01
0.01
0.01
0.01
0.06
0.06
0.01
0.01
0.01
0.01
0.01
0.01
0.01
0.01
0.01
0.01
0.00
0.00
0.02
0.06
0.06
0.10
0.15
0.21
0.29
0.33
0.45
0.53
0.45
0.33
0.29
0.21
0.15
0.10
0.02
0.06
0.00
0.02
0.02
0.00
0.02
0.02
0.02
0.02
0.02
0.02
0.02
0.02
0.02
0.02
0.06
0.06
0.06
0.10
0.15
0.21
0.15
0.10
0.10
0.10
0.06
0.06
0.02
0.02
0.02
0.02
0.06
0.06
0.15
0.80
0.92
0.87
0.29
0.65
0.54
0.51
0.49
0.11
0.01
0.01
0.01
0.01
0.00
0.00
0.00
0.00
0.00
0.02
0.00
0.00
0.00
0.02
0.02
0.00
0.02
0.02
0.02
0.06
0.10
0.15
0.21
0.26
0.33
0.41
0.53
0.53
0.53
0.41
0.29
0.21
0.15
0.10
0.10
0.06
0.06
0.06
0.02
0.06
0.02
0.06
0.06
0.06
0.06
0.10
0.06
0.06
0.06
0.10
0.10
0.10
0.15
0.26
0.26
0.15
0.21
0.15
0.15
0.10
0.06
0.10
0.06
0.06
0.10
0.10
0.15
0.15
0.71
0.88
0.93
0.74
0.65
0.54
0.49
0.45
0.11
0.02
0.02
0.02
0.02
0.02
0.06
0.02
0.02
0.06
0.02
0.02
0.06
0.02
0.06
0.06
0.02
0.10
0.10
0.06
0.06
0.15
0.15
0.21
0.26
0.41
0.45
0.58
0.63
0.58
0.45
0.33
0.26
0.26
0.15
0.10
0.10
0.10
0.06
0.06
0.10
0.10
0.06
0.06
0.06
0.06
0.06
0.06
0.06
0.06
0.06
0.06
0.10
0.10
0.15
0.26
0.15
0.21
0.10
0.10
0.10
0.10
0.02
0.02
0.02
0.06
0.06
0.06
0.10
0.26
0.82
0.99
0.88
0.00
0.70
0.54
0.48
0.49
0.06
0.01
0.01
0.00
0.01
0.01
0.00
0.01
0.00
0.00
0.00
0.00
0.00
0.00
0.00
0.01
0.00
0.00
0.00
0.02
0.02
0.06
0.10
0.15
0.21
0.26
0.33
0.45
0.45
0.41
0.33
0.26
0.21
0.10
0.06
0.06
0.02
0.02
0.00
0.00
0.02
0.00
0.00
0.02
0.00
0.00
0.00
0.02
0.00
0.00
0.00
0.02
0.02
0.06
0.15
0.10
0.10
0.02
0.06
0.06
0.02
0.00
0.00
0.00
0.00
0.00
0.02
0.06
0.26
0.82
0.96
0.86
0.45
0.75
0.54
0.51
0.45
0.11
0.06
0.06
0.06
0.06
0.01
0.01
0.01
0.06
0.06
0.06
0.01
0.06
0.06
0.00
0.01
0.01
0.01
0.00
0.00
0.00
0.02
0.10
0.10
0.15
0.26
0.33
0.45
0.45
0.41
0.33
0.21
0.15
0.10
0.06
0.02
0.00
0.00
0.00
0.00
0.00
0.00
0.00
0.00
0.01
0.00
0.00
0.01
0.01
0.00
0.00
0.00
0.00
0.02
0.10
0.10
0.06
0.06
0.02
0.02
0.00
0.00
0.00
0.01
0.01
0.01
0.02
0.02
0.06
0.77
0.88
0.87
0.26
0.70
0.58
0.49
0.48
0.30
0.06
0.06
0.06
0.06
0.01
0.06
0.06
0.06
0.01
0.01
0.01
0.01
0.01
0.01
0.01
0.00
0.02
0.00
0.00
0.02
0.06
0.10
0.10
0.21
0.26
0.33
0.41
0.41
0.33
0.26
0.21
0.10
0.06
0.02
0.00
0.01
0.00
0.00
0.00
0.00
0.00
0.00
0.01
0.01
0.00
0.01
0.01
0.00
0.00
0.00
0.00
0.00
0.02
0.06
0.02
0.02
0.06
0.02
0.00
0.00
0.01
0.01
0.01
0.00
0.00
0.00
0.00
0.10
0.78
0.87
0.88
0.01
0.65
0.58
0.51
0.48
0.30
0.11
0.06
0.11
0.06
0.06
0.11
0.06
0.06
0.06
0.06
0.06
0.01
0.01
0.06
0.01
0.06
0.01
0.01
0.01
0.00
0.00
0.00
0.06
0.06
0.15
0.21
0.29
0.33
0.29
0.21
0.15
0.06
0.02
0.00
0.01
0.00
0.01
0.01
0.01
0.01
0.01
0.01
0.01
0.01
0.01
0.01
0.01
0.01
0.01
0.01
0.00
0.02
0.02
0.02
0.02
0.02
0.02
0.01
0.01
0.00
0.01
0.06
0.06
0.01
0.06
0.01
0.01
0.06
0.80
0.90
0.89
0.06
0.75
0.65
0.54
0.51
0.39
0.19
0.11
0.19
0.11
0.19
0.19
0.11
0.11
0.19
0.11
0.19
0.11
0.11
0.19
0.11
0.11
0.11
0.11
0.11
0.11
0.06
0.01
0.00
0.06
0.06
0.15
0.21
0.26
0.26
0.21
0.15
0.06
0.02
0.00
0.01
0.01
0.06
0.06
0.06
0.11
0.11
0.11
0.11
0.11
0.11
0.11
0.06
0.11
0.11
0.06
0.06
0.06
0.00
0.01
0.00
0.01
0.06
0.06
0.06
0.11
0.19
0.11
0.11
0.19
0.11
0.11
0.01
0.73
0.87
0.88
0.58
0.84
0.84
0.70
0.54
0.49
0.45
0.30
0.30
0.39
0.39
0.39
0.30
0.39
0.39
0.30
0.30
0.30
0.30
0.30
0.30
0.30
0.30
0.30
0.19
0.19
0.19
0.11
0.11
0.01
0.00
0.02
0.15
0.21
0.15
0.15
0.06
0.00
0.01
0.06
0.11
0.11
0.19
0.19
0.19
0.19
0.19
0.30
0.19
0.30
0.30
0.19
0.19
0.30
0.19
0.19
0.11
0.11
0.11
0.06
0.06
0.06
0.11
0.11
0.06
0.19
0.19
0.19
0.19
0.19
0.30
0.11
0.11
0.11
0.65
0.87
0.91
0.71
0.86
0.84
0.65
0.54
0.49
0.39
0.30
0.30
0.30
0.30
0.19
0.30
0.30
0.30
0.19
0.30
0.30
0.30
0.19
0.30
0.30
0.30
0.30
0.19
0.11
0.11
0.06
0.01
0.01
0.02
0.10
0.21
0.21
0.21
0.15
0.06
0.02
0.01
0.01
0.06
0.11
0.11
0.11
0.11
0.11
0.11
0.11
0.11
0.19
0.11
0.11
0.11
0.11
0.11
0.06
0.06
0.06
0.01
0.00
0.02
0.00
0.00
0.00
0.01
0.06
0.06
0.06
0.11
0.11
0.06
0.06
0.01
0.06
0.21
0.84
0.95
0.84
0.58
0.84
0.70
0.54
0.48
0.30
0.19
0.19
0.19
0.19
0.19
0.19
0.19
0.11
0.11
0.19
0.11
0.19
0.11
0.11
0.11
0.11
0.11
0.11
0.06
0.01
0.01
0.02
0.06
0.10
0.21
0.26
0.29
0.29
0.21
0.15
0.10
0.02
0.01
0.01
0.01
0.06
0.06
0.06
0.06
0.06
0.06
0.11
0.06
0.11
0.06
0.11
0.06
0.01
0.06
0.06
0.06
0.01
0.01
0.00
0.02
0.02
0.00
0.01
0.01
0.06
0.11
0.11
0.11
0.06
0.06
0.06
0.01
0.00
0.71
0.89
0.91
0.72
0.84
0.80
0.65
0.54
0.49
0.19
0.19
0.19
0.19
0.19
0.19
0.19
0.19
0.19
0.19
0.19
0.19
0.19
0.06
0.11
0.06
0.11
0.06
0.06
0.06
0.01
0.00
0.02
0.06
0.10
0.21
0.29
0.33
0.29
0.21
0.10
0.02
0.00
0.01
0.06
0.06
0.06
0.11
0.06
0.11
0.06
0.06
0.06
0.06
0.11
0.11
0.06
0.11
0.11
0.11
0.06
0.06
0.06
0.00
0.02
0.00
0.01
0.01
0.01
0.06
0.06
0.11
0.19
0.11
0.11
0.06
0.01
0.06
0.21
0.82
0.88
0.85
0.48
0.75
0.58
0.58
0.49
0.45
0.19
0.19
0.19
0.19
0.19
0.19
0.30
0.19
0.19
0.11
0.11
0.11
0.06
0.11
0.11
0.06
0.06
0.06
0.06
0.01
0.00
0.00
0.02
0.10
0.15
0.21
0.26
0.29
0.26
0.15
0.10
0.06
0.00
0.01
0.06
0.06
0.06
0.06
0.06
0.06
0.11
0.06
0.11
0.11
0.06
0.06
0.11
0.11
0.06
0.11
0.06
0.06
0.01
0.00
0.02
0.01
0.00
0.01
0.01
0.06
0.01
0.06
0.11
0.11
0.06
0.06
0.06
0.01
0.15
0.82
0.88
0.83
0.51
0.75
0.58
0.54
0.48
0.30
0.11
0.19
0.11
0.11
0.06
0.06
0.06
0.11
0.11
0.06
0.11
0.06
0.06
0.06
0.01
0.06
0.06
0.06
0.01
0.01
0.00
0.00
0.06
0.10
0.15
0.26
0.33
0.29
0.29
0.21
0.21
0.06
0.02
0.00
0.00
0.00
0.00
0.01
0.00
0.00
0.01
0.00
0.00
0.01
0.01
0.01
0.00
0.00
0.01
0.00
0.00
0.02
0.00
0.06
0.10
0.02
0.02
0.02
0.02
0.00
0.01
0.01
0.00
0.01
0.00
0.00
0.00
0.02
0.77
0.88
0.88
0.45
0.70
0.58
0.51
0.49
0.19
0.06
0.01
0.01
0.06
0.01
0.01
0.01
0.01
0.01
0.00
0.01
0.01
0.00
0.00
0.00
0.00
0.00
0.02
0.00
0.02
0.02
0.06
0.06
0.15
0.26
0.33
0.41
0.45
0.41
0.41
0.33
0.26
0.21
0.15
0.06
0.06
0.06
0.06
0.06
0.02
0.06
0.06
0.06
0.02
0.02
0.06
0.02
0.02
0.06
0.06
0.06
0.10
0.10
0.21
0.15
0.15
0.10
0.15
0.10
0.06
0.02
0.02
0.02
0.06
0.06
0.10
0.10
0.15
0.80
0.90
0.91
0.71
0.65
0.54
0.48
0.45
0.06
0.00
0.00
0.00
0.01
0.02
0.00
0.00
0.00
0.00
0.01
0.00
0.00
0.02
0.02
0.00
0.00
0.02
0.02
0.02
0.02
0.06
0.10
0.15
0.21
0.26
0.33
0.41
0.45
0.45
0.33
0.29
0.26
0.15
0.10
0.10
0.06
0.10
0.06
0.02
0.02
0.02
0.02
0.02
0.02
0.06
0.02
0.02
0.02
0.06
0.02
0.06
0.10
0.15
0.15
0.15
0.15
0.10
0.10
0.06
0.06
0.02
0.02
0.02
0.06
0.02
0.10
0.06
0.41
0.85
1.00
0.86
0.48
0.70
0.54
0.48
0.39
0.01
0.01
0.01
0.01
0.01
0.01
0.01
0.00
0.00
0.01
0.00
0.01
0.00
0.00
0.00
0.00
0.00
0.00
0.01
0.00
0.02
0.06
0.06
0.10
0.21
0.26
0.33
0.41
0.41
0.41
0.33
0.21
0.21
0.10
0.06
0.02
0.00
0.00
0.00
0.00
0.00
0.00
0.00
0.00
0.00
0.00
0.01
0.00
0.02
0.00
0.00
0.02
0.02
0.02
0.06
0.10
0.06
0.02
0.00
0.02
0.00
0.01
0.01
0.01
0.00
0.01
0.00
0.00
0.00
0.53
0.87
0.99
0.82
0.75
0.75
0.58
0.49
0.45
0.19
0.11
0.06
0.06
0.11
0.06
0.06
0.11
0.06
0.06
0.01
0.06
0.06
0.01
0.01
0.01
0.01
0.01
0.00
0.00
0.00
0.02
0.06
0.10
0.15
0.29
0.41
0.41
0.33
0.29
0.21
0.10
0.06
0.02
0.02
0.01
0.01
0.01
0.01
0.01
0.01
0.01
0.00
0.01
0.01
0.01
0.01
0.01
0.01
0.06
0.01
0.01
0.00
0.00
0.06
0.06
0.02
0.02
0.02
0.00
0.00
0.01
0.01
0.01
0.01
0.00
0.00
0.00
0.10
0.81
0.91
0.88
0.15
0.75
0.58
0.49
0.51
0.39
0.11
0.11
0.11
0.06
0.06
0.06
0.06
0.06
0.06
0.06
0.06
0.06
0.00
0.01
0.01
0.01
0.01
0.01
0.00
0.00
0.02
0.02
0.06
0.10
0.21
0.29
0.33
0.41
0.41
0.29
0.21
0.10
0.06
0.02
0.00
0.01
0.00
0.01
0.01
0.01
0.01
0.01
0.06
0.01
0.00
0.06
0.06
0.06
0.06
0.01
0.01
0.06
0.00
0.01
0.00
0.06
0.02
0.00
0.00
0.00
0.00
0.01
0.06
0.01
0.06
0.06
0.01
0.01
0.00
0.26
0.82
0.88
0.85
0.48
0.70
0.54
0.51
0.48
0.30
0.11
0.06
0.06
0.06
0.06
0.06
0.11
0.06
0.06
0.06
0.01
0.06
0.06
0.01
0.06
0.01
0.01
0.01
0.01
0.01
0.00
0.02
0.06
0.15
0.15
0.29
0.29
0.29
0.26
0.21
0.10
0.02
0.00
0.00
0.00
0.06
0.01
0.06
0.06
0.01
0.01
0.01
0.01
0.06
0.01
0.01
0.01
0.06
0.06
0.01
0.01
0.01
0.00
0.02
0.06
0.02
0.02
0.02
0.00
0.00
0.01
0.01
0.06
0.01
0.01
0.01
0.01
0.06
0.26
0.83
0.91
0.82
0.58
0.70
0.54
0.49
0.48
0.30
0.11
0.11
0.11
0.11
0.11
0.11
0.19
0.11
0.11
0.11
0.11
0.11
0.11
0.11
0.11
0.06
0.11
0.11
0.06
0.06
0.01
0.01
0.00
0.06
0.10
0.15
0.26
0.29
0.26
0.15
0.10
0.10
0.02
0.00
0.01
0.01
0.06
0.06
0.06
0.06
0.06
0.11
0.06
0.06
0.06
0.11
0.06
0.06
0.06
0.11
0.11
0.11
0.06
0.00
0.01
0.01
0.06
0.11
0.11
0.11
0.19
0.19
0.19
0.11
0.19
0.11
0.11
0.06
0.75
0.88
0.87
0.26
0.84
0.80
0.65
0.54
0.45
0.39
0.45
0.30
0.45
0.39
0.39
0.39
0.39
0.45
0.39
0.30
0.39
0.45
0.39
0.39
0.39
0.39
0.39
0.30
0.30
0.30
0.19
0.11
0.06
0.01
0.02
0.06
0.10
0.10
0.06
0.02
0.01
0.06
0.11
0.11
0.30
0.39
0.30
0.30
0.30
0.30
0.30
0.30
0.30
0.39
0.39
0.30
0.39
0.30
0.30
0.19
0.30
0.19
0.06
0.06
0.11
0.11
0.19
0.11
0.30
0.30
0.30
0.39
0.30
0.30
0.19
0.30
0.06
0.80
0.93
0.88
0.00
0.86
0.84
0.70
0.58
0.48
0.45
0.49
0.45
0.45
0.45
0.39
0.45
0.39
0.45
0.45
0.45
0.45
0.45
0.39
0.45
0.39
0.45
0.39
0.39
0.30
0.19
0.11
0.11
0.06
0.00
0.06
0.15
0.15
0.15
0.06
0.00
0.01
0.06
0.11
0.11
0.19
0.19
0.19
0.19
0.19
0.19
0.19
0.19
0.30
0.30
0.11
0.19
0.19
0.19
0.19
0.19
0.11
0.11
0.00
0.01
0.06
0.06
0.11
0.11
0.19
0.19
0.19
0.30
0.19
0.19
0.11
0.19
0.01
0.78
0.88
0.88
0.41
0.85
0.84
0.70
0.58
0.49
0.30
0.39
0.30
0.39
0.30
0.30
0.30
0.30
0.19
0.30
0.39
0.30
0.30
0.30
0.30
0.19
0.19
0.19
0.19
0.11
0.11
0.06
0.01
0.02
0.06
0.15
0.21
0.26
0.26
0.15
0.06
0.02
0.02
0.01
0.11
0.11
0.11
0.11
0.11
0.19
0.11
0.11
0.11
0.11
0.11
0.11
0.11
0.11
0.11
0.11
0.11
0.11
0.06
0.01
0.02
0.01
0.00
0.01
0.06
0.01
0.06
0.11
0.11
0.11
0.11
0.06
0.06
0.06
0.02
0.81
0.90
0.88
0.06
0.84
0.75
0.58
0.49
0.39
0.30
0.30
0.30
0.30
0.30
0.30
0.19
0.30
0.19
0.30
0.19
0.30
0.30
0.30
0.19
0.30
0.19
0.30
0.11
0.11
0.06
0.01
0.00
0.02
0.10
0.21
0.29
0.26
0.21
0.10
0.06
0.01
0.06
0.06
0.11
0.11
0.19
0.19
0.11
0.11
0.19
0.19
0.19
0.19
0.19
0.19
0.19
0.19
0.19
0.19
0.11
0.11
0.11
0.00
0.00
0.01
0.01
0.01
0.00
0.06
0.11
0.11
0.11
0.19
0.19
0.11
0.06
0.06
0.33
0.85
0.88
0.72
0.75
0.75
0.58
0.58
0.48
0.30
0.19
0.19
0.30
0.19
0.19
0.19
0.11
0.19
0.19
0.19
0.11
0.06
0.06
0.11
0.11
0.11
0.01
0.01
0.01
0.00
0.00
0.02
0.06
0.15
0.21
0.29
0.29
0.26
0.21
0.06
0.02
0.02
0.02
0.01
0.06
0.11
0.11
0.11
0.11
0.11
0.06
0.06
0.11
0.06
0.06
0.19
0.11
0.06
0.11
0.06
0.06
0.01
0.00
0.02
0.00
0.00
0.00
0.00
0.06
0.11
0.06
0.06
0.11
0.06
0.01
0.01
0.06
0.21
0.84
0.88
0.83
0.49
0.70
0.58
0.49
0.48
0.19
0.11
0.11
0.11
0.11
0.11
0.11
0.06
0.06
0.06
0.06
0.06
0.06
0.06
0.06
0.06
0.01
0.01
0.06
0.01
0.01
0.00
0.02
0.06
0.15
0.15
0.21
0.29
0.33
0.29
0.26
0.21
0.10
0.06
0.02
0.00
0.02
0.00
0.00
0.02
0.02
0.02
0.00
0.00
0.02
0.00
0.00
0.00
0.00
0.00
0.00
0.00
0.02
0.02
0.06
0.10
0.10
0.06
0.02
0.02
0.02
0.00
0.01
0.01
0.00
0.00
0.00
0.02
0.00
0.21
0.84
0.98
0.85
0.51
0.70
0.54
0.48
0.39
0.11
0.01
0.01
0.06
0.06
0.01
0.01
0.01
0.01
0.00
0.00
0.01
0.01
0.01
0.00
0.01
0.00
0.00
0.00
0.00
0.00
0.02
0.06
0.10
0.15
0.26
0.33
0.41
0.45
0.41
0.33
0.29
0.21
0.15
0.15
0.06
0.02
0.06
0.06
0.02
0.02
0.02
0.02
0.02
0.02
0.02
0.06
0.02
0.02
0.06
0.06
0.06
0.06
0.21
0.21
0.15
0.10
0.10
0.10
0.06
0.02
0.02
0.02
0.06
0.06
0.10
0.10
0.26
0.82
1.00
0.87
0.21
0.65
0.49
0.49
0.39
0.01
0.00
0.02
0.00
0.02
0.02
0.02
0.00
0.00
0.02
0.02
0.02
0.02
0.02
0.02
0.02
0.02
0.02
0.06
0.06
0.06
0.10
0.15
0.21
0.21
0.29
0.33
0.45
0.53
0.45
0.45
0.33
0.29
0.21
0.15
0.10
0.10
0.06
0.10
0.06
0.06
0.06
0.06
0.06
0.06
0.06
0.06
0.06
0.02
0.06
0.10
0.06
0.10
0.15
0.21
0.26
0.15
0.15
0.15
0.15
0.10
0.10
0.06
0.06
0.06
0.06
0.10
0.10
0.10
0.66
0.89
0.96
0.76
0.65
0.54
0.48
0.45
0.11
0.00
0.00
0.02
0.02
0.00
0.00
0.02
0.00
0.02
0.00
0.00
0.00
0.00
0.02
0.02
0.02
0.02
0.02
0.02
0.02
0.06
0.10
0.15
0.26
0.29
0.33
0.45
0.45
0.45
0.33
0.29
0.26
0.15
0.10
0.02
0.02
0.02
0.02
0.00
0.02
0.06
0.02
0.02
0.02
0.02
0.00
0.02
0.00
0.02
0.02
0.00
0.00
0.06
0.10
0.15
0.10
0.15
0.10
0.02
0.02
0.02
0.02
0.00
0.00
0.00
0.02
0.02
0.02
0.33
0.85
0.99
0.83
0.49
0.70
0.54
0.48
0.45
0.11
0.06
0.06
0.01
0.06
0.01
0.01
0.01
0.06
0.01
0.01
0.01
0.01
0.06
0.01
0.01
0.01
0.01
0.00
0.02
0.02
0.02
0.06
0.15
0.21
0.29
0.41
0.45
0.41
0.29
0.21
0.15
0.10
0.06
0.02
0.02
0.00
0.00
0.01
0.00
0.01
0.01
0.00
0.00
0.00
0.01
0.00
0.00
0.01
0.00
0.00
0.02
0.02
0.02
0.06
0.15
0.06
0.06
0.02
0.06
0.02
0.00
0.01
0.00
0.00
0.01
0.00
0.02
0.02
0.21
0.82
0.90
0.86
0.39
0.65
0.49
0.48
0.49
0.19
0.06
0.01
0.01
0.01
0.00
0.01
0.01
0.01
0.01
0.00
0.00
0.00
0.00
0.00
0.02
0.00
0.02
0.02
0.02
0.06
0.15
0.15
0.15
0.26
0.29
0.41
0.45
0.45
0.41
0.29
0.21
0.10
0.06
0.06
0.02
0.02
0.02
0.00
0.00
0.00
0.00
0.02
0.00
0.02
0.02
0.00
0.00
0.00
0.00
0.00
0.00
0.02
0.06
0.10
0.10
0.02
0.02
0.00
0.02
0.02
0.00
0.01
0.01
0.01
0.00
0.00
0.00
0.06
0.77
0.89
0.87
0.29
0.65
0.54
0.49
0.49
0.30
0.06
0.01
0.01
0.01
0.06
0.06
0.01
0.01
0.01
0.01
0.01
0.01
0.01
0.01
0.01
0.00
0.00
0.00
0.00
0.00
0.02
0.02
0.06
0.15
0.15
0.26
0.29
0.33
0.33
0.29
0.26
0.15
0.10
0.06
0.00
0.02
0.00
0.00
0.00
0.02
0.02
0.00
0.00
0.00
0.00
0.00
0.00
0.00
0.00
0.00
0.00
0.00
0.00
0.02
0.06
0.10
0.10
0.02
0.02
0.02
0.02
0.00
0.01
0.00
0.00
0.00
0.00
0.02
0.02
0.41
0.84
0.95
0.82
0.58
0.70
0.49
0.51
0.45
0.11
0.06
0.11
0.11
0.11
0.06
0.06
0.06
0.06
0.06
0.06
0.06
0.06
0.06
0.06
0.06
0.06
0.06
0.06
0.06
0.06
0.00
0.00
0.06
0.10
0.21
0.26
0.29
0.29
0.29
0.21
0.10
0.10
0.02
0.02
0.01
0.01
0.00
0.01
0.06
0.01
0.06
0.06
0.06
0.06
0.01
0.06
0.06
0.06
0.01
0.01
0.06
0.01
0.00
0.02
0.02
0.02
0.02
0.01
0.01
0.06
0.11
0.11
0.06
0.06
0.01
0.01
0.06
0.00
0.79
0.91
0.88
0.41
0.84
0.80
0.65
0.49
0.39
0.30
0.30
0.30
0.30
0.19
0.30
0.30
0.19
0.30
0.30
0.30
0.19
0.30
0.30
0.30
0.19
0.19
0.30
0.19
0.11
0.11
0.11
0.01
0.02
0.06
0.10
0.21
0.21
0.21
0.10
0.06
0.02
0.00
0.06
0.11
0.06
0.11
0.11
0.11
0.11
0.11
0.11
0.11
0.06
0.11
0.11
0.11
0.11
0.11
0.11
0.11
0.11
0.06
0.06
0.00
0.01
0.01
0.11
0.11
0.11
0.11
0.19
0.11
0.19
0.11
0.11
0.11
0.06
0.10
0.83
0.96
0.83
0.75
0.84
0.75
0.58
0.51
0.45
0.39
0.39
0.30
0.30
0.30
0.30
0.39
0.30
0.30
0.30
0.30
0.19
0.30
0.30
0.30
0.19
0.19
0.19
0.19
0.11
0.06
0.00
0.00
0.02
0.10
0.21
0.26
0.15
0.15
0.10
0.02
0.00
0.06
0.06
0.11
0.11
0.06
0.11
0.11
0.11
0.11
0.11
0.11
0.11
0.11
0.11
0.11
0.11
0.11
0.06
0.11
0.01
0.01
0.00
0.00
0.00
0.01
0.01
0.01
0.01
0.06
0.11
0.11
0.11
0.06
0.01
0.06
0.01
0.53
0.88
0.93
0.81
0.70
0.80
0.65
0.54
0.49
0.30
0.19
0.19
0.19
0.19
0.19
0.19
0.19
0.11
0.19
0.11
0.19
0.11
0.11
0.11
0.06
0.06
0.11
0.06
0.01
0.00
0.00
0.02
0.10
0.21
0.26
0.29
0.41
0.41
0.29
0.21
0.10
0.02
0.02
0.00
0.01
0.01
0.06
0.06
0.06
0.06
0.06
0.06
0.06
0.01
0.06
0.06
0.06
0.01
0.06
0.01
0.01
0.01
0.00
0.06
0.02
0.02
0.02
0.00
0.01
0.01
0.06
0.06
0.06
0.01
0.06
0.06
0.01
0.00
0.63
0.88
0.90
0.78
0.70
0.75
0.58
0.49
0.49
0.19
0.11
0.11
0.11
0.19
0.19
0.19
0.11
0.11
0.11
0.11
0.19
0.11
0.11
0.06
0.06
0.11
0.01
0.01
0.01
0.01
0.00
0.02
0.10
0.10
0.15
0.33
0.33
0.29
0.21
0.15
0.10
0.02
0.00
0.00
0.01
0.11
0.11
0.06
0.06
0.06
0.01
0.01
0.11
0.11
0.11
0.11
0.06
0.11
0.06
0.01
0.06
0.06
0.01
0.00
0.00
0.00
0.00
0.00
0.06
0.06
0.06
0.06
0.11
0.11
0.06
0.01
0.01
0.01
0.68
0.88
0.87
0.26
0.75
0.65
0.54
0.51
0.45
0.11
0.11
0.11
0.11
0.11
0.11
0.11
0.11
0.19
0.11
0.11
0.06
0.06
0.06
0.11
0.11
0.06
0.06
0.06
0.01
0.00
0.00
0.02
0.06
0.15
0.15
0.26
0.29
0.29
0.21
0.15
0.06
0.06
0.00
0.01
0.01
0.00
0.06
0.01
0.01
0.00
0.01
0.01
0.01
0.00
0.01
0.01
0.01
0.00
0.00
0.00
0.00
0.02
0.02
0.02
0.02
0.02
0.00
0.00
0.00
0.00
0.01
0.06
0.01
0.01
0.01
0.01
0.01
0.21
0.84
0.92
0.85
0.48
0.70
0.58
0.49
0.49
0.19
0.11
0.11
0.11
0.11
0.11
0.06
0.06
0.11
0.11
0.11
0.11
0.11
0.06
0.06
0.06
0.06
0.06
0.06
0.01
0.01
0.01
0.00
0.06
0.06
0.15
0.21
0.29
0.29
0.29
0.26
0.21
0.10
0.02
0.00
0.00
0.00
0.01
0.00
0.00
0.01
0.01
0.01
0.00
0.01
0.01
0.01
0.01
0.01
0.01
0.00
0.02
0.00
0.06
0.06
0.06
0.02
0.00
0.00
0.00
0.01
0.01
0.01
0.01
0.01
0.00
0.00
0.02
0.73
0.88
0.93
0.72
0.80
0.70
0.54
0.48
0.39
0.11
0.06
0.06
0.11
0.11
0.06
0.06
0.06
0.06
0.06
0.01
0.06
0.06
0.06
0.01
0.01
0.01
0.01
0.01
0.01
0.00
0.00
0.02
0.06
0.10
0.15
0.29
0.33
0.41
0.33
0.29
0.21
0.15
0.10
0.06
0.00
0.02
0.00
0.02
0.00
0.00
0.00
0.02
0.00
0.00
0.00
0.02
0.02
0.02
0.00
0.02
0.02
0.06
0.15
0.10
0.10
0.06
0.02
0.06
0.02
0.00
0.00
0.00
0.02
0.02
0.06
0.06
0.15
0.80
0.93
0.88
0.63
0.75
0.58
0.51
0.45
0.19
0.01
0.01
0.01
0.01
0.00
0.00
0.00
0.01
0.01
0.00
0.01
0.00
0.00
0.00
0.01
0.00
0.00
0.00
0.02
0.00
0.02
0.10
0.10
0.15
0.26
0.29
0.41
0.45
0.41
0.33
0.29
0.15
0.15
0.06
0.06
0.02
0.02
0.02
0.02
0.00
0.00
0.02
0.00
0.02
0.02
0.02
0.02
0.00
0.02
0.02
0.02
0.06
0.06
0.15
0.15
0.10
0.10
0.06
0.06
0.02
0.02
0.02
0.02
0.02
0.02
0.06
0.06
0.15
0.82
0.95
0.87
0.21
0.70
0.54
0.48
0.45
0.06
0.01
0.01
0.01
0.01
0.00
0.01
0.01
0.01
0.00
0.00
0.00
0.00
0.00
0.00
0.00
0.00
0.02
0.00
0.02
0.02
0.06
0.10
0.15
0.21
0.33
0.33
0.45
0.53
0.45
0.33
0.26
0.15
0.15
0.06
0.02
0.02
0.00
0.00
0.00
0.00
0.02
0.00
0.00
0.00
0.00
0.00
0.00
0.02
0.00
0.00
0.00
0.00
0.02
0.10
0.15
0.06
0.06
0.02
0.02
0.00
0.02
0.01
0.01
0.00
0.00
0.00
0.00
0.00
0.21
0.82
0.89
0.87
0.30
0.70
0.58
0.49
0.49
0.19
0.06
0.06
0.01
0.06
0.11
0.06
0.06
0.06
0.01
0.01
0.01
0.06
0.01
0.06
0.00
0.06
0.00
0.00
0.02
0.00
0.06
0.10
0.15
0.21
0.26
0.33
0.41
0.33
0.29
0.21
0.15
0.02
0.00
0.00
0.00
0.01
0.01
0.01
0.01
0.01
0.01
0.00
0.01
0.01
0.01
0.06
0.01
0.01
0.06
0.00
0.00
0.00
0.00
0.06
0.02
0.02
0.02
0.00
0.00
0.01
0.01
0.06
0.01
0.00
0.01
0.00
0.02
0.06
0.79
0.88
0.89
0.06
0.70
0.58
0.51
0.48
0.19
0.06
0.01
0.06
0.06
0.06
0.00
0.01
0.01
0.01
0.01
0.00
0.00
0.01
0.00
0.00
0.01
0.00
0.01
0.00
0.02
0.06
0.06
0.10
0.10
0.21
0.29
0.41
0.41
0.33
0.33
0.26
0.15
0.06
0.06
0.02
0.06
0.02
0.06
0.02
0.02
0.02
0.06
0.02
0.02
0.02
0.06
0.02
0.02
0.02
0.06
0.06
0.06
0.10
0.15
0.15
0.10
0.10
0.06
0.06
0.02
0.02
0.06
0.00
0.00
0.02
0.06
0.06
0.02
0.72
0.88
0.93
0.72
0.65
0.54
0.51
0.49
0.19
0.01
0.01
0.06
0.01
0.01
0.01
0.01
0.01
0.00
0.00
0.01
0.00
0.00
0.01
0.00
0.00
0.00
0.00
0.02
0.02
0.02
0.06
0.06
0.15
0.21
0.26
0.33
0.45
0.45
0.45
0.33
0.29
0.26
0.21
0.15
0.10
0.06
0.10
0.06
0.06
0.10
0.06
0.02
0.02
0.02
0.06
0.02
0.02
0.06
0.02
0.02
0.06
0.06
0.15
0.10
0.10
0.10
0.06
0.06
0.02
0.02
0.00
0.00
0.02
0.02
0.06
0.06
0.15
0.81
0.93
0.88
0.65
0.75
0.58
0.51
0.49
0.19
0.06
0.06
0.01
0.01
0.01
0.01
0.01
0.01
0.01
0.01
0.01
0.00
0.01
0.01
0.01
0.01
0.01
0.01
0.01
0.00
0.00
0.02
0.06
0.10
0.15
0.26
0.33
0.41
0.33
0.29
0.26
0.15
0.06
0.06
0.02
0.02
0.00
0.01
0.00
0.01
0.01
0.01
0.01
0.01
0.01
0.01
0.01
0.01
0.00
0.01
0.01
0.02
0.02
0.06
0.06
0.02
0.00
0.00
0.00
0.00
0.01
0.01
0.06
0.01
0.01
0.01
0.01
0.26
0.84
1.00
0.86
0.51
0.84
0.70
0.54
0.49
0.30
0.19
0.19
0.19
0.19
0.19
0.19
0.11
0.19
0.19
0.19
0.19
0.19
0.19
0.19
0.19
0.19
0.19
0.19
0.11
0.11
0.06
0.01
0.02
0.02
0.10
0.15
0.29
0.29
0.21
0.15
0.10
0.02
0.01
0.01
0.06
0.11
0.11
0.11
0.11
0.11
0.11
0.11
0.11
0.19
0.11
0.11
0.11
0.11
0.19
0.11
0.06
0.06
0.01
0.02
0.01
0.06
0.01
0.06
0.06
0.11
0.19
0.19
0.19
0.11
0.11
0.11
0.11
0.21
0.83
0.98
0.83
0.70
0.84
0.75
0.65
0.49
0.39
0.30
0.30
0.30
0.30
0.30
0.30
0.30
0.30
0.30
0.19
0.30
0.30
0.30
0.19
0.30
0.30
0.19
0.11
0.11
0.11
0.01
0.00
0.00
0.06
0.10
0.26
0.29
0.26
0.21
0.15
0.10
0.00
0.01
0.06
0.11
0.11
0.11
0.11
0.11
0.11
0.11
0.11
0.11
0.11
0.11
0.19
0.11
0.19
0.11
0.06
0.11
0.11
0.01
0.00
0.00
0.01
0.01
0.01
0.06
0.06
0.11
0.19
0.19
0.11
0.11
0.06
0.06
0.01
0.72
0.87
0.87
0.33
0.84
0.75
0.65
0.54
0.45
0.30
0.30
0.30
0.19
0.19
0.30
0.30
0.19
0.19
0.11
0.11
0.19
0.11
0.19
0.11
0.11
0.06
0.06
0.06
0.01
0.00
0.02
0.06
0.10
0.21
0.26
0.29
0.29
0.29
0.21
0.06
0.02
0.00
0.01
0.01
0.11
0.06
0.06
0.06
0.06
0.06
0.06
0.06
0.06
0.01
0.06
0.06
0.06
0.06
0.06
0.06
0.06
0.00
0.02
0.02
0.00
0.00
0.00
0.00
0.06
0.01
0.06
0.11
0.06
0.01
0.01
0.01
0.01
0.26
0.84
0.88
0.82
0.58
0.70
0.58
0.49
0.48
0.30
0.19
0.11
0.11
0.11
0.19
0.11
0.11
0.11
0.11
0.11
0.06
0.06
0.06
0.11
0.06
0.06
0.06
0.01
0.01
0.01
0.00
0.00
0.06
0.10
0.21
0.29
0.33
0.29
0.21
0.15
0.10
0.06
0.00
0.00
0.01
0.06
0.06
0.06
0.01
0.06
0.06
0.06
0.01
0.06
0.06
0.06
0.01
0.06
0.06
0.01
0.01
0.01
0.01
0.02
0.02
0.00
0.00
0.00
0.01
0.01
0.06
0.06
0.01
0.01
0.06
0.01
0.00
0.00
0.66
0.88
0.88
0.66
0.75
0.65
0.49
0.51
0.49
0.19
0.06
0.11
0.11
0.11
0.11
0.06
0.06
0.11
0.06
0.06
0.11
0.06
0.11
0.06
0.06
0.06
0.01
0.01
0.06
0.01
0.01
0.02
0.02
0.10
0.21
0.26
0.33
0.33
0.29
0.26
0.10
0.06
0.06
0.02
0.00
0.00
0.00
0.00
0.00
0.00
0.02
0.00
0.01
0.00
0.00
0.00
0.00
0.01
0.00
0.00
0.00
0.02
0.02
0.10
0.06
0.02
0.06
0.00
0.01
0.00
0.01
0.01
0.06
0.01
0.00
0.00
0.01
0.02
0.80
0.94
0.87
0.26
0.75
0.65
0.54
0.49
0.19
0.11
0.11
0.11
0.06
0.11
0.06
0.06
0.01
0.06
0.06
0.06
0.01
0.06
0.06
0.06
0.06
0.06
0.06
0.01
0.00
0.00
0.00
0.02
0.10
0.15
0.21
0.29
0.33
0.29
0.26
0.21
0.10
0.06
0.02
0.00
0.02
0.00
0.01
0.01
0.01
0.01
0.01
0.01
0.00
0.01
0.01
0.01
0.01
0.01
0.01
0.01
0.02
0.02
0.06
0.06
0.02
0.06
0.00
0.00
0.02
0.01
0.01
0.01
0.01
0.00
0.00
0.02
0.02
0.76
0.90
0.89
0.66
0.80
0.70
0.49
0.45
0.19
0.11
0.06
0.01
0.06
0.06
0.06
0.01
0.06
0.06
0.01
0.01
0.01
0.06
0.06
0.00
0.01
0.01
0.00
0.00
0.00
0.00
0.06
0.10
0.15
0.21
0.29
0.41
0.41
0.33
0.29
0.26
0.15
0.06
0.06
0.02
0.02
0.00
0.00
0.02
0.00
0.00
0.02
0.02
0.00
0.00
0.00
0.02
0.02
0.00
0.02
0.02
0.06
0.06
0.10
0.15
0.10
0.06
0.06
0.02
0.02
0.02
0.00
0.02
0.00
0.02
0.02
0.06
0.02
0.63
0.88
1.00
0.82
0.70
0.65
0.49
0.49
0.30
0.06
0.00
0.01
0.01
0.01
0.00
0.00
0.01
0.00
0.00
0.00
0.01
0.00
0.00
0.00
0.00
0.00
0.02
0.02
0.02
0.06
0.10
0.15
0.21
0.26
0.41
0.45
0.53
0.45
0.45
0.33
0.26
0.15
0.15
0.06
0.06
0.02
0.02
0.02
0.02
0.02
0.02
0.02
0.00
0.02
0.00
0.02
0.02
0.02
0.02
0.02
0.02
0.06
0.06
0.15
0.15
0.10
0.15
0.06
0.06
0.06
0.06
0.02
0.02
0.02
0.06
0.06
0.06
0.10
0.72
0.87
0.93
0.74
0.65
0.58
0.49
0.49
0.19
0.01
0.00
0.01
0.00
0.01
0.00
0.01
0.00
0.01
0.00
0.00
0.00
0.01
0.02
0.00
0.00
0.00
0.02
0.02
0.06
0.10
0.10
0.21
0.21
0.29
0.33
0.45
0.53
0.45
0.29
0.26
0.15
0.10
0.06
0.02
0.02
0.00
0.00
0.02
0.00
0.00
0.00
0.00
0.02
0.00
0.00
0.00
0.00
0.00
0.00
0.02
0.02
0.02
0.06
0.15
0.10
0.10
0.06
0.06
0.06
0.02
0.00
0.00
0.01
0.00
0.00
0.00
0.02
0.29
0.84
0.93
0.83
0.54
0.70
0.54
0.51
0.49
0.19
0.06
0.06
0.06
0.11
0.06
0.06
0.06
0.06
0.06
0.01
0.01
0.01
0.01
0.01
0.01
0.01
0.01
0.00
0.02
0.02
0.02
0.10
0.15
0.21
0.26
0.33
0.41
0.45
0.33
0.29
0.15
0.06
0.02
0.00
0.02
0.00
0.01
0.01
0.01
0.01
0.01
0.01
0.01
0.01
0.01
0.00
0.01
0.01
0.01
0.01
0.01
0.00
0.02
0.10
0.02
0.02
0.00
0.00
0.01
0.01
0.06
0.00
0.06
0.01
0.00
0.00
0.00
0.15
0.82
0.88
0.85
0.49
0.70
0.58
0.49
0.48
0.19
0.01
0.11
0.11
0.06
0.06
0.06
0.01
0.06
0.01
0.01
0.01
0.01
0.01
0.01
0.01
0.01
0.02
0.00
0.00
0.02
0.06
0.06
0.15
0.21
0.33
0.33
0.41
0.33
0.33
0.26
0.15
0.06
0.06
0.02
0.00
0.00
0.02
0.00
0.00
0.00
0.02
0.02
0.00
0.02
0.00
0.01
0.00
0.00
0.02
0.02
0.02
0.02
0.10
0.10
0.06
0.10
0.06
0.02
0.02
0.00
0.00
0.00
0.00
0.02
0.06
0.06
0.06
0.45
0.85
0.92
0.82
0.49
0.58
0.51
0.48
0.39
0.01
0.01
0.01
0.01
0.00
0.01
0.01
0.01
0.00
0.00
0.01
0.00
0.02
0.00
0.00
0.00
0.02
0.00
0.00
0.02
0.06
0.06
0.10
0.21
0.26
0.29
0.41
0.53
0.45
0.41
0.29
0.21
0.15
0.10
0.06
0.02
0.06
0.02
0.02
0.02
0.02
0.02
0.02
0.02
0.02
0.02
0.00
0.00
0.00
0.02
0.02
0.06
0.06
0.15
0.10
0.10
0.06
0.06
0.02
0.00
0.02
0.00
0.00
0.00
0.02
0.02
0.02
0.06
0.80
0.93
0.88
0.41
0.70
0.54
0.51
0.49
0.11
0.06
0.06
0.01
0.06
0.01
0.01
0.06
0.01
0.01
0.01
0.01
0.01
0.01
0.01
0.01
0.00
0.00
0.01
0.01
0.00
0.00
0.02
0.06
0.15
0.15
0.26
0.29
0.33
0.33
0.29
0.21
0.15
0.10
0.02
0.02
0.00
0.00
0.01
0.00
0.00
0.01
0.01
0.00
0.01
0.00
0.00
0.01
0.00
0.00
0.00
0.02
0.02
0.06
0.06
0.06
0.06
0.02
0.02
0.00
0.00
0.01
0.06
0.01
0.00
0.00
0.00
0.06
0.73
0.87
0.94
0.73
0.75
0.70
0.54
0.51
0.30
0.11
0.11
0.11
0.11
0.11
0.11
0.11
0.11
0.11
0.11
0.11
0.06
0.11
0.11
0.11
0.06
0.11
0.06
0.11
0.06
0.01
0.01
0.00
0.06
0.10
0.21
0.26
0.33
0.29
0.21
0.15
0.06
0.00
0.00
0.01
0.01
0.06
0.01
0.06
0.06
0.06
0.06
0.06
0.01
0.11
0.06
0.06
0.06
0.06
0.06
0.06
0.01
0.02
0.02
0.00
0.00
0.01
0.06
0.06
0.06
0.11
0.11
0.11
0.06
0.06
0.06
0.00
0.75
0.88
0.91
0.71
0.84
0.80
0.58
0.49
0.39
0.30
0.19
0.19
0.19
0.19
0.19
0.19
0.19
0.11
0.11
0.11
0.11
0.11
0.11
0.11
0.06
0.11
0.06
0.06
0.06
0.01
0.00
0.02
0.10
0.10
0.21
0.29
0.29
0.29
0.26
0.15
0.10
0.06
0.00
0.01
0.06
0.06
0.06
0.11
0.06
0.11
0.11
0.11
0.11
0.11
0.11
0.11
0.06
0.11
0.11
0.06
0.06
0.01
0.02
0.02
0.02
0.01
0.01
0.01
0.06
0.06
0.11
0.06
0.06
0.06
0.01
0.01
0.15
0.82
0.95
0.88
0.39
0.84
0.70
0.54
0.48
0.30
0.19
0.11
0.11
0.11
0.11
0.11
0.11
0.11
0.19
0.11
0.06
0.06
0.11
0.06
0.06
0.06
0.06
0.01
0.01
0.00
0.02
0.06
0.15
0.21
0.21
0.33
0.45
0.41
0.33
0.26
0.15
0.06
0.02
0.00
0.00
0.01
0.01
0.01
0.01
0.01
0.01
0.01
0.01
0.01
0.01
0.06
0.06
0.01
0.01
0.01
0.00
0.00
0.02
0.10
0.06
0.02
0.00
0.00
0.00
0.01
0.06
0.01
0.06
0.01
0.01
0.00
0.02
0.26
0.84
0.94
0.85
0.48
0.70
0.58
0.49
0.49
0.19
0.11
0.06
0.06
0.11
0.06
0.01
0.06
0.06
0.01
0.01
0.01
0.01
0.01
0.00
0.00
0.00
0.00
0.00
0.02
0.02
0.06
0.10
0.15
0.21
0.29
0.33
0.45
0.33
0.26
0.21
0.10
0.02
0.02
0.02
0.01
0.01
0.01
0.01
0.01
0.06
0.06
0.01
0.06
0.01
0.01
0.01
0.06
0.06
0.01
0.00
0.01
0.01
0.06
0.02
0.00
0.00
0.00
0.01
0.06
0.11
0.06
0.01
0.06
0.11
0.06
0.01
0.01
0.65
0.88
0.88
0.45
0.75
0.70
0.58
0.49
0.45
0.11
0.11
0.11
0.11
0.11
0.19
0.11
0.11
0.11
0.11
0.06
0.06
0.06
0.06
0.06
0.06
0.06
0.01
0.01
0.01
0.00
0.02
0.06
0.06
0.15
0.26
0.29
0.33
0.29
0.26
0.15
0.06
0.02
0.00
0.00
0.01
0.01
0.01
0.01
0.01
0.01
0.01
0.01
0.06
0.01
0.01
0.01
0.06
0.06
0.01
0.01
0.01
0.00
0.02
0.02
0.02
0.00
0.00
0.01
0.06
0.06
0.06
0.06
0.01
0.01
0.01
0.00
0.06
0.72
0.88
0.93
0.72
0.80
0.65
0.58
0.49
0.45
0.19
0.19
0.19
0.11
0.11
0.11
0.11
0.19
0.11
0.19
0.11
0.11
0.06
0.11
0.11
0.06
0.06
0.11
0.06
0.01
0.01
0.01
0.00
0.02
0.06
0.15
0.21
0.29
0.33
0.26
0.21
0.15
0.06
0.00
0.00
0.01
0.01
0.06
0.06
0.06
0.06
0.06
0.06
0.06
0.01
0.06
0.11
0.06
0.06
0.06
0.01
0.01
0.06
0.02
0.00
0.00
0.01
0.01
0.01
0.06
0.06
0.06
0.06
0.01
0.01
0.01
0.01
0.72
0.87
0.93
0.72
0.80
0.70
0.58
0.49
0.39
0.11
0.11
0.19
0.11
0.19
0.19
0.11
0.11
0.06
0.11
0.11
0.11
0.11
0.11
0.06
0.06
0.06
0.11
0.06
0.06
0.01
0.00
0.02
0.06
0.15
0.21
0.29
0.33
0.29
0.26
0.15
0.10
0.06
0.02
0.00
0.01
0.01
0.01
0.01
0.01
0.01
0.01
0.06
0.01
0.01
0.01
0.01
0.01
0.00
0.00
0.00
0.00
0.06
0.10
0.02
0.06
0.02
0.02
0.00
0.00
0.01
0.00
0.01
0.00
0.02
0.02
0.00
0.53
0.85
1.00
0.82
0.65
0.70
0.54
0.51
0.39
0.11
0.06
0.06
0.06
0.01
0.01
0.06
0.01
0.00
0.01
0.01
0.01
0.00
0.01
0.01
0.01
0.00
0.00
0.00
0.00
0.06
0.06
0.10
0.15
0.26
0.33
0.41
0.53
0.45
0.33
0.26
0.26
0.10
0.06
0.02
0.02
0.02
0.00
0.00
0.00
0.00
0.00
0.00
0.02
0.02
0.00
0.00
0.02
0.02
0.02
0.02
0.02
0.15
0.15
0.06
0.06
0.02
0.02
0.02
0.02
0.00
0.00
0.00
0.02
0.00
0.06
0.02
0.45
0.85
0.99
0.83
0.65
0.70
0.54
0.51
0.39
0.06
0.01
0.06
0.06
0.01
0.06
0.01
0.01
0.01
0.01
0.06
0.01
0.01
0.01
0.01
0.00
0.00
0.00
0.00
0.00
0.02
0.06
0.10
0.21
0.29
0.33
0.41
0.53
0.45
0.41
0.29
0.21
0.15
0.06
0.02
0.02
0.02
0.00
0.00
0.00
0.02
0.00
0.00
0.01
0.00
0.01
0.00
0.01
0.00
0.00
0.01
0.00
0.02
0.06
0.10
0.06
0.06
0.02
0.02
0.00
0.00
0.01
0.01
0.00
0.02
0.00
0.00
0.10
0.81
0.93
0.88
0.15
0.75
0.70
0.54
0.48
0.19
0.11
0.11
0.06
0.01
0.11
0.11
0.06
0.06
0.06
0.11
0.06
0.06
0.06
0.06
0.06
0.06
0.01
0.06
0.01
0.00
0.00
0.02
0.06
0.15
0.21
0.29
0.41
0.41
0.33
0.26
0.21
0.10
0.02
0.00
0.01
0.00
0.01
0.01
0.06
0.06
0.01
0.06
0.06
0.01
0.06
0.06
0.06
0.06
0.06
0.06
0.01
0.00
0.02
0.06
0.02
0.02
0.00
0.00
0.01
0.00
0.01
0.01
0.06
0.06
0.00
0.00
0.00
0.29
0.83
0.90
0.82
0.58
0.70
0.54
0.49
0.45
0.11
0.11
0.11
0.11
0.06
0.06
0.06
0.01
0.06
0.06
0.06
0.00
0.01
0.01
0.01
0.00
0.01
0.00
0.00
0.02
0.02
0.02
0.10
0.26
0.21
0.29
0.33
0.41
0.41
0.33
0.26
0.21
0.06
0.00
0.00
0.00
0.00
0.00
0.00
0.00
0.01
0.01
0.00
0.00
0.00
0.01
0.01
0.02
0.00
0.01
0.00
0.00
0.02
0.10
0.10
0.06
0.02
0.02
0.02
0.00
0.00
0.00
0.01
0.00
0.00
0.02
0.02
0.06
0.72
0.89
0.88
0.68
0.58
0.54
0.51
0.48
0.19
0.06
0.00
0.00
0.02
0.00
0.00
0.00
0.00
0.00
0.02
0.02
0.02
0.02
0.06
0.02
0.02
0.02
0.06
0.06
0.06
0.10
0.15
0.21
0.26
0.29
0.41
0.53
0.45
0.41
0.33
0.26
0.21
0.10
0.15
0.10
0.06
0.02
0.06
0.06
0.06
0.06
0.06
0.06
0.06
0.02
0.02
0.02
0.06
0.06
0.06
0.10
0.10
0.10
0.21
0.15
0.15
0.10
0.10
0.10
0.06
0.06
0.02
0.02
0.02
0.06
0.06
0.06
0.15
0.83
0.98
0.88
0.01
0.65
0.49
0.49
0.39
0.06
0.00
0.00
0.00
0.00
0.00
0.02
0.00
0.00
0.00
0.00
0.00
0.00
0.00
0.02
0.00
0.00
0.00
0.02
0.00
0.02
0.06
0.10
0.15
0.21
0.26
0.33
0.45
0.53
0.45
0.45
0.33
0.26
0.21
0.15
0.10
0.06
0.06
0.10
0.06
0.06
0.06
0.06
0.02
0.02
0.02
0.06
0.06
0.02
0.06
0.06
0.10
0.15
0.21
0.15
0.10
0.10
0.10
0.06
0.06
0.02
0.06
0.02
0.06
0.02
0.06
0.06
0.71
0.87
0.98
0.77
0.70
0.65
0.49
0.49
0.19
0.01
0.01
0.01
0.06
0.01
0.01
0.00
0.01
0.01
0.01
0.01
0.01
0.00
0.01
0.00
0.01
0.01
0.01
0.00
0.00
0.00
0.06
0.02
0.06
0.15
0.21
0.33
0.33
0.41
0.33
0.26
0.15
0.06
0.06
0.02
0.00
0.00
0.00
0.00
0.01
0.01
0.01
0.00
0.01
0.01
0.01
0.01
0.01
0.01
0.01
0.00
0.02
0.02
0.10
0.02
0.02
0.00
0.02
0.00
0.01
0.06
0.01
0.01
0.01
0.01
0.00
0.02
0.71
0.87
0.93
0.72
0.84
0.70
0.58
0.51
0.39
0.11
0.19
0.11
0.11
0.11
0.06
0.06
0.11
0.11
0.11
0.11
0.06
0.06
0.11
0.06
0.06
0.06
0.06
0.01
0.01
0.01
0.00
0.10
0.10
0.15
0.29
0.41
0.41
0.33
0.29
0.21
0.10
0.02
0.00
0.00
0.01
0.01
0.01
0.01
0.01
0.06
0.06
0.01
0.01
0.06
0.01
0.01
0.01
0.06
0.01
0.00
0.00
0.06
0.06
0.06
0.02
0.01
0.00
0.00
0.01
0.01
0.06
0.01
0.01
0.00
0.00
0.06
0.79
0.90
0.88
0.41
0.84
0.70
0.54
0.48
0.30
0.11
0.11
0.06
0.11
0.11
0.11
0.06
0.06
0.06
0.01
0.06
0.06
0.06
0.06
0.01
0.01
0.01
0.00
0.00
0.00
0.02
0.06
0.15
0.21
0.26
0.33
0.45
0.41
0.33
0.26
0.21
0.10
0.02
0.02
0.00
0.01
0.01
0.01
0.01
0.00
0.01
0.01
0.00
0.01
0.01
0.01
0.00
0.00
0.00
0.00
0.02
0.02
0.10
0.10
0.10
0.06
0.02
0.02
0.02
0.00
0.01
0.01
0.00
0.00
0.00
0.02
0.06
0.75
0.88
0.88
0.63
0.75
0.70
0.49
0.49
0.30
0.06
0.06
0.06
0.06
0.06
0.01
0.01
0.06
0.01
0.01
0.01
0.01
0.01
0.01
0.00
0.00
0.00
0.00
0.02
0.02
0.06
0.10
0.15
0.26
0.29
0.41
0.53
0.53
0.45
0.33
0.26
0.15
0.10
0.06
0.02
0.02
0.00
0.00
0.02
0.00
0.00
0.00
0.02
0.00
0.00
0.00
0.00
0.00
0.00
0.00
0.00
0.02
0.06
0.06
0.06
0.02
0.02
0.02
0.00
0.00
0.01
0.01
0.00
0.01
0.00
0.00
0.06
0.65
0.85
0.88
0.74
0.65
0.65
0.49
0.51
0.45
0.11
0.06
0.06
0.01
0.11
0.11
0.01
0.06
0.06
0.01
0.01
0.01
0.01
0.01
0.00
0.01
0.01
0.01
0.00
0.00
0.02
0.02
0.06
0.10
0.21
0.26
0.33
0.33
0.33
0.26
0.21
0.15
0.02
0.00
0.00
0.01
0.01
0.01
0.01
0.01
0.06
0.06
0.06
0.06
0.06
0.06
0.01
0.01
0.06
0.06
0.01
0.01
0.00
0.00
0.06
0.02
0.02
0.00
0.02
0.01
0.01
0.01
0.01
0.01
0.01
0.00
0.00
0.00
0.29
0.83
0.90
0.82
0.54
0.65
0.49
0.49
0.49
0.19
0.06
0.06
0.11
0.06
0.06
0.06
0.11
0.11
0.06
0.06
0.06
0.06
0.01
0.06
0.06
0.06
0.06
0.01
0.01
0.01
0.00
0.02
0.06
0.10
0.21
0.26
0.33
0.41
0.33
0.26
0.15
0.10
0.06
0.02
0.02
0.00
0.02
0.00
0.01
0.00
0.00
0.00
0.00
0.00
0.00
0.00
0.01
0.00
0.00
0.00
0.00
0.02
0.02
0.10
0.06
0.06
0.06
0.02
0.02
0.02
0.02
0.01
0.01
0.00
0.02
0.02
0.02
0.06
0.79
0.88
0.89
0.66
0.70
0.65
0.49
0.48
0.30
0.06
0.06
0.06
0.06
0.06
0.06
0.06
0.06
0.06
0.06
0.06
0.01
0.06
0.01
0.01
0.01
0.01
0.01
0.01
0.00
0.00
0.02
0.06
0.15
0.15
0.26
0.33
0.41
0.41
0.29
0.26
0.21
0.10
0.06
0.02
0.02
0.02
0.00
0.00
0.00
0.00
0.00
0.00
0.00
0.01
0.01
0.00
0.00
0.00
0.00
0.00
0.02
0.02
0.10
0.10
0.06
0.06
0.02
0.02
0.02
0.00
0.01
0.00
0.02
0.00
0.02
0.02
0.21
0.82
0.94
0.87
0.33
0.75
0.65
0.49
0.45
0.11
0.01
0.01
0.01
0.00
0.01
0.01
0.01
0.01
0.01
0.00
0.00
0.01
0.00
0.01
0.00
0.00
0.00
0.00
0.02
0.02
0.06
0.10
0.15
0.21
0.26
0.41
0.45
0.45
0.41
0.33
0.26
0.21
0.10
0.10
0.06
0.06
0.02
0.02
0.02
0.06
0.02
0.06
0.06
0.02
0.02
0.02
0.02
0.06
0.00
0.06
0.06
0.06
0.10
0.15
0.21
0.10
0.10
0.10
0.10
0.06
0.06
0.02
0.02
0.02
0.02
0.06
0.10
0.06
0.72
0.87
0.98
0.77
0.70
0.65
0.51
0.49
0.19
0.00
0.02
0.01
0.01
0.01
0.00
0.00
0.00
0.00
0.00
0.00
0.00
0.00
0.02
0.02
0.00
0.00
0.02
0.02
0.06
0.06
0.15
0.15
0.21
0.29
0.33
0.45
0.53
0.45
0.45
0.29
0.21
0.15
0.15
0.06
0.02
0.06
0.06
0.02
0.02
0.02
0.02
0.02
0.02
0.02
0.02
0.02
0.02
0.02
0.02
0.02
0.02
0.06
0.10
0.10
0.15
0.10
0.15
0.06
0.06
0.06
0.02
0.02
0.00
0.02
0.02
0.06
0.06
0.06
0.74
0.87
0.93
0.72
0.75
0.65
0.49
0.49
0.11
0.06
0.06
0.01
0.01
0.01
0.06
0.01
0.01
0.01
0.01
0.01
0.00
0.01
0.01
0.00
0.00
0.00
0.00
0.02
0.02
0.06
0.10
0.15
0.21
0.29
0.33
0.41
0.45
0.45
0.41
0.29
0.21
0.10
0.02
0.02
0.02
0.00
0.02
0.00
0.02
0.00
0.01
0.00
0.00
0.00
0.00
0.01
0.00
0.00
0.01
0.00
0.00
0.00
0.02
0.10
0.15
0.06
0.02
0.02
0.02
0.00
0.00
0.00
0.00
0.00
0.00
0.00
0.02
0.02
0.75
0.88
0.88
0.58
0.80
0.70
0.54
0.48
0.39
0.11
0.11
0.11
0.11
0.06
0.06
0.11
0.06
0.06
0.06
0.06
0.06
0.01
0.01
0.01
0.01
0.01
0.00
0.00
0.00
0.02
0.06
0.15
0.15
0.26
0.41
0.45
0.41
0.41
0.33
0.21
0.10
0.06
0.06
0.02
0.00
0.00
0.00
0.00
0.00
0.00
0.00
0.00
0.01
0.01
0.01
0.01
0.00
0.00
0.00
0.00
0.00
0.00
0.06
0.15
0.10
0.10
0.10
0.02
0.02
0.02
0.02
0.00
0.01
0.00
0.00
0.00
0.02
0.10
0.78
0.88
0.87
0.33
0.70
0.58
0.49
0.48
0.19
0.06
0.06
0.01
0.01
0.01
0.06
0.06
0.01
0.01
0.01
0.00
0.00
0.00
0.01
0.02
0.00
0.00
0.02
0.02
0.10
0.06
0.10
0.15
0.21
0.29
0.33
0.45
0.53
0.45
0.33
0.26
0.15
0.10
0.06
0.02
0.02
0.02
0.00
0.02
0.01
0.01
0.01
0.01
0.02
0.06
0.02
0.00
0.00
0.02
0.02
0.02
0.06
0.53
0.86
0.93
0.82
0.49
0.58
0.51
0.49
0.39
0.11
0.01
0.01
0.01
0.01
0.01
0.00
0.01
0.01
0.00
0.00
0.01
0.00
0.00
0.02
0.02
0.00
0.02
0.06
0.06
0.06
0.10
0.21
0.26
0.29
0.33
0.29
0.26
0.21
0.10
0.10
0.02
0.00
0.01
0.01
0.01
0.01
0.01
0.00
0.01
0.00
0.01
0.00
0.00
0.01
0.00
0.00
0.00
0.00
0.00
0.00
0.00
0.00
0.00
0.00
0.02
0.00
0.00
0.00
0.02
0.00
0.02
0.02
0.00
0.02
0.02
0.06
0.06
0.06
0.10
0.15
0.10
0.10
0.10
0.06
0.02
0.02
0.02
0.02
0.02
0.02
0.06
0.10
0.06
0.66
0.88
0.93
0.80
0.58
0.58
0.48
0.49
0.30
0.06
0.00
0.01
0.01
0.01
0.01
0.01
0.01
0.01
0.01
0.06
0.06
0.01
0.01
0.01
0.06
0.01
0.00
0.00
0.00
0.02
0.06
0.15
0.21
0.33
0.45
0.53
0.63
0.66
0.66
0.58
0.45
0.33
0.29
0.15
0.10
0.06
0.06
0.02
0.02
0.02
0.02
0.02
0.00
0.00
0.02
0.00
0.00
0.00
0.00
0.00
0.00
0.02
0.02
0.06
0.02
0.02
0.00
0.01
0.01
0.01
0.06
0.06
0.06
0.06
0.01
0.01
0.06
0.41
0.87
0.99
0.82
0.70
0.75
0.58
0.49
0.45
0.19
0.11
0.11
0.11
0.11
0.11
0.19
0.11
0.11
0.11
0.11
0.11
0.06
0.11
0.11
0.11
0.11
0.11
0.11
0.11
0.06
0.06
0.01
0.01
0.00
0.02
0.10
0.21
0.26
0.15
0.10
0.06
0.02
0.01
0.01
0.06
0.06
0.06
0.06
0.11
0.06
0.11
0.06
0.06
0.01
0.11
0.06
0.06
0.06
0.06
0.06
0.01
0.02
0.06
0.02
0.02
0.02
0.00
0.01
0.01
0.01
0.06
0.01
0.01
0.01
0.00
0.01
0.02
0.73
0.87
0.94
0.76
0.70
0.75
0.54
0.51
0.30
0.06
0.06
0.06
0.06
0.06
0.11
0.06
0.01
0.06
0.06
0.01
0.06
0.06
0.01
0.01
0.01
0.01
0.01
0.01
0.00
0.02
0.02
0.10
0.15
0.21
0.29
0.41
0.45
0.45
0.41
0.29
0.26
0.15
0.06
0.02
0.02
0.00
0.00
0.00
0.00
0.00
0.00
0.01
0.01
0.00
0.00
0.01
0.00
0.00
0.00
0.00
0.00
0.02
0.06
0.15
0.10
0.06
0.02
0.02
0.02
0.00
0.00
0.00
0.00
0.00
0.02
0.02
0.06
0.76
0.88
0.93
0.72
0.75
0.70
0.49
0.48
0.30
0.06
0.06
0.06
0.06
0.06
0.06
0.06
0.06
0.06
0.01
0.01
0.01
0.01
0.01
0.01
0.01
0.01
0.01
0.00
0.00
0.00
0.02
0.15
0.15
0.21
0.29
0.41
0.41
0.33
0.29
0.21
0.10
0.06
0.02
0.02
0.01
0.01
0.00
0.01
0.00
0.01
0.01
0.01
0.01
0.01
0.01
0.01
0.00
0.01
0.01
0.02
0.00
0.02
0.06
0.10
0.06
0.06
0.02
0.02
0.00
0.00
0.00
0.01
0.01
0.00
0.00
0.02
0.00
0.71
0.87
0.93
0.74
0.75
0.75
0.54
0.51
0.30
0.11
0.06
0.11
0.11
0.11
0.06
0.11
0.06
0.11
0.06
0.11
0.06
0.06
0.01
0.06
0.01
0.06
0.01
0.00
0.00
0.00
0.06
0.15
0.15
0.26
0.33
0.41
0.45
0.41
0.33
0.21
0.10
0.10
0.06
0.00
0.00
0.01
0.00
0.01
0.01
0.01
0.01
0.06
0.06
0.01
0.01
0.01
0.06
0.06
0.06
0.01
0.06
0.01
0.02
0.06
0.02
0.02
0.00
0.00
0.01
0.01
0.01
0.06
0.06
0.01
0.01
0.00
0.00
0.06
0.81
0.92
0.88
0.15
0.80
0.70
0.54
0.48
0.19
0.11
0.11
0.11
0.11
0.11
0.11
0.11
0.06
0.11
0.06
0.06
0.06
0.06
0.11
0.06
0.01
0.06
0.06
0.01
0.00
0.02
0.06
0.10
0.21
0.21
0.33
0.33
0.41
0.29
0.21
0.10
0.06
0.00
0.00
0.01
0.01
0.06
0.06
0.11
0.06
0.06
0.06
0.06
0.01
0.06
0.06
0.06
0.06
0.06
0.06
0.01
0.01
0.00
0.02
0.06
0.06
0.02
0.00
0.00
0.00
0.01
0.06
0.06
0.01
0.01
0.01
0.01
0.00
0.29
0.83
0.89
0.85
0.49
0.70
0.58
0.49
0.48
0.30
0.11
0.11
0.11
0.11
0.11
0.11
0.11
0.11
0.11
0.06
0.06
0.06
0.06
0.01
0.06
0.01
0.01
0.01
0.00
0.00
0.02
0.06
0.15
0.21
0.29
0.41
0.41
0.33
0.29
0.26
0.21
0.10
0.06
0.02
0.00
0.00
0.06
0.00
0.01
0.01
0.01
0.00
0.00
0.01
0.00
0.01
0.00
0.01
0.00
0.00
0.00
0.00
0.02
0.06
0.06
0.02
0.02
0.02
0.00
0.01
0.01
0.01
0.01
0.01
0.01
0.00
0.00
0.15
0.82
0.88
0.86
0.45
0.65
0.49
0.51
0.49
0.11
0.01
0.06
0.06
0.01
0.01
0.01
0.01
0.01
0.01
0.01
0.01
0.01
0.00
0.00
0.00
0.00
0.00
0.00
0.00
0.02
0.06
0.06
0.10
0.21
0.29
0.33
0.41
0.41
0.41
0.29
0.26
0.15
0.15
0.06
0.06
0.02
0.06
0.02
0.02
0.02
0.02
0.02
0.02
0.02
0.02
0.02
0.02
0.02
0.02
0.02
0.00
0.06
0.10
0.10
0.15
0.10
0.10
0.06
0.10
0.02
0.06
0.02
0.02
0.02
0.02
0.06
0.10
0.06
0.53
0.88
1.00
0.84
0.49
0.65
0.49
0.49
0.19
0.01
0.01
0.00
0.00
0.00
0.01
0.00
0.00
0.01
0.00
0.00
0.02
0.00
0.00
0.00
0.02
0.00
0.02
0.02
0.02
0.06
0.06
0.15
0.26
0.26
0.33
0.41
0.53
0.53
0.53
0.41
0.33
0.26
0.15
0.15
0.10
0.10
0.10
0.06
0.10
0.06
0.06
0.06
0.06
0.06
0.06
0.06
0.06
0.06
0.06
0.06
0.06
0.10
0.21
0.21
0.15
0.10
0.06
0.10
0.06
0.06
0.02
0.02
0.06
0.02
0.06
0.06
0.15
0.82
0.96
0.88
0.65
0.70
0.58
0.51
0.45
0.11
0.01
0.01
0.01
0.01
0.01
0.00
0.01
0.01
0.00
0.00
0.00
0.00
0.00
0.01
0.00
0.00
0.00
0.00
0.02
0.02
0.02
0.06
0.15
0.21
0.26
0.29
0.45
0.41
0.33
0.29
0.21
0.10
0.06
0.06
0.02
0.00
0.00
0.00
0.02
0.00
0.01
0.01
0.02
0.01
0.01
0.00
0.00
0.00
0.01
0.00
0.02
0.02
0.06
0.10
0.06
0.06
0.02
0.02
0.00
0.02
0.01
0.01
0.01
0.00
0.00
0.02
0.02
0.53
0.88
0.99
0.81
0.70
0.70
0.54
0.48
0.39
0.11
0.06
0.06
0.06
0.06
0.11
0.06
0.06
0.06
0.06
0.11
0.06
0.01
0.06
0.01
0.01
0.01
0.01
0.01
0.00
0.00
0.02
0.10
0.15
0.21
0.29
0.41
0.45
0.45
0.33
0.29
0.21
0.10
0.06
0.02
0.02
0.00
0.00
0.00
0.00
0.00
0.00
0.02
0.00
0.00
0.00
0.02
0.00
0.00
0.02
0.00
0.02
0.06
0.10
0.15
0.06
0.06
0.06
0.02
0.02
0.00
0.00
0.00
0.00
0.00
0.02
0.02
0.10
0.78
0.88
0.88
0.58
0.75
0.65
0.49
0.48
0.19
0.06
0.01
0.06
0.06
0.06
0.01
0.06
0.06
0.01
0.01
0.01
0.01
0.01
0.01
0.01
0.00
0.00
0.02
0.02
0.02
0.06
0.10
0.15
0.21
0.29
0.41
0.45
0.45
0.45
0.33
0.26
0.15
0.06
0.06
0.02
0.02
0.00
0.00
0.00
0.01
0.01
0.00
0.00
0.00
0.00
0.00
0.00
0.00
0.00
0.02
0.02
0.02
0.06
0.10
0.10
0.10
0.06
0.06
0.06
0.02
0.00
0.00
0.01
0.00
0.02
0.06
0.02
0.21
0.82
0.91
0.84
0.48
0.58
0.48
0.48
0.45
0.06
0.01
0.01
0.00
0.00
0.02
0.01
0.00
0.00
0.00
0.00
0.00
0.02
0.02
0.02
0.02
0.02
0.06
0.02
0.06
0.06
0.15
0.21
0.26
0.29
0.41
0.45
0.53
0.45
0.41
0.29
0.21
0.15
0.10
0.06
0.06
0.06
0.06
0.06
0.06
0.02
0.06
0.02
0.02
0.02
0.02
0.06
0.02
0.00
0.02
0.02
0.02
0.06
0.15
0.10
0.10
0.06
0.06
0.06
0.02
0.00
0.02
0.00
0.02
0.02
0.02
0.02
0.15
0.78
0.88
0.88
0.41
0.58
0.49
0.48
0.49
0.30
0.00
0.00
0.00
0.00
0.00
0.00
0.00
0.00
0.00
0.00
0.00
0.00
0.02
0.00
0.02
0.02
0.06
0.02
0.02
0.06
0.06
0.10
0.15
0.21
0.29
0.33
0.41
0.45
0.41
0.33
0.26
0.15
0.10
0.06
0.06
0.02
0.02
0.02
0.02
0.02
0.06
0.00
0.02
0.02
0.02
0.00
0.00
0.00
0.02
0.02
0.02
0.06
0.10
0.15
0.10
0.10
0.10
0.06
0.02
0.02
0.02
0.00
0.00
0.02
0.02
0.02
0.02
0.10
0.78
0.89
0.89
0.66
0.70
0.58
0.49
0.49
0.19
0.06
0.06
0.06
0.01
0.06
0.06
0.06
0.01
0.01
0.01
0.06
0.00
0.01
0.01
0.01
0.00
0.01
0.01
0.02
0.02
0.02
0.02
0.06
0.15
0.21
0.29
0.41
0.53
0.41
0.29
0.21
0.15
0.06
0.06
0.02
0.06
0.02
0.00
0.02
0.00
0.00
0.00
0.00
0.02
0.00
0.02
0.00
0.02
0.02
0.02
0.06
0.15
0.15
0.06
0.06
0.06
0.06
0.02
0.00
0.00
0.00
0.01
0.00
0.02
0.02
0.02
0.53
0.88
1.00
0.82
0.58
0.70
0.58
0.51
0.39
0.06
0.11
0.06
0.06
0.06
0.06
0.06
0.01
0.01
0.06
0.01
0.01
0.01
0.01
0.01
0.01
0.02
0.00
0.00
0.00
0.02
0.02
0.06
0.10
0.21
0.26
0.33
0.41
0.41
0.33
0.29
0.21
0.15
0.06
0.06
0.02
0.02
0.02
0.00
0.02
0.02
0.00
0.00
0.02
0.02
0.02
0.02
0.02
0.02
0.02
0.06
0.06
0.10
0.21
0.15
0.15
0.10
0.06
0.02
0.06
0.02
0.02
0.06
0.06
0.10
0.06
0.06
0.63
0.88
1.00
0.81
0.65
0.65
0.49
0.48
0.19
0.01
0.01
0.01
0.00
0.02
0.00
0.00
0.00
0.00
0.00
0.00
0.02
0.02
0.02
0.00
0.02
0.02
0.02
0.02
0.10
0.10
0.21
0.21
0.29
0.41
0.45
0.58
0.58
0.58
0.45
0.33
0.29
0.21
0.15
0.10
0.10
0.10
0.06
0.06
0.06
0.06
0.06
0.06
0.10
0.10
0.06
0.06
0.10
0.06
0.06
0.10
0.15
0.21
0.26
0.21
0.21
0.15
0.10
0.10
0.15
0.06
0.02
0.06
0.06
0.06
0.10
0.10
0.29
0.82
0.99
0.88
0.11
0.65
0.54
0.49
0.30
0.00
0.00
0.00
0.01
0.00
0.00
0.02
0.00
0.00
0.00
0.00
0.02
0.02
0.00
0.00
0.02
0.02
0.02
0.02
0.06
0.10
0.10
0.21
0.29
0.33
0.41
0.53
0.58
0.53
0.45
0.33
0.21
0.21
0.10
0.06
0.02
0.06
0.02
0.02
0.02
0.02
0.02
0.02
0.02
0.02
0.02
0.02
0.02
0.06
0.02
0.02
0.06
0.06
0.10
0.15
0.10
0.10
0.06
0.06
0.06
0.02
0.02
0.00
0.00
0.02
0.02
0.06
0.06
0.71
0.88
0.93
0.75
0.65
0.65
0.49
0.48
0.39
0.06
0.01
0.01
0.01
0.06
0.01
0.01
0.01
0.01
0.01
0.00
0.02
0.00
0.00
0.00
0.02
0.00
0.06
0.02
0.06
0.06
0.15
0.21
0.26
0.33
0.45
0.53
0.58
0.45
0.41
0.29
0.21
0.10
0.10
0.06
0.06
0.02
0.00
0.00
0.02
0.00
0.02
0.00
0.02
0.00
0.01
0.01
0.00
0.00
0.01
0.00
0.06
0.02
0.10
0.06
0.06
0.02
0.00
0.02
0.00
0.00
0.01
0.01
0.00
0.00
0.00
0.02
0.63
0.87
0.89
0.77
0.58
0.65
0.49
0.51
0.39
0.06
0.06
0.01
0.01
0.01
0.01
0.01
0.00
0.06
0.01
0.00
0.00
0.00
0.01
0.00
0.00
0.00
0.00
0.02
0.02
0.06
0.06
0.10
0.21
0.26
0.33
0.41
0.45
0.41
0.29
0.21
0.15
0.06
0.06
0.02
0.01
0.00
0.00
0.01
0.02
0.00
0.01
0.00
0.00
0.00
0.00
0.02
0.00
0.01
0.00
0.02
0.02
0.02
0.10
0.10
0.10
0.10
0.02
0.02
0.00
0.00
0.00
0.00
0.02
0.00
0.02
0.02
0.10
0.73
0.87
0.88
0.53
0.58
0.54
0.49
0.49
0.30
0.01
0.00
0.00
0.01
0.01
0.00
0.00
0.00
0.00
0.00
0.02
0.02
0.00
0.00
0.02
0.00
0.00
0.02
0.06
0.06
0.06
0.10
0.15
0.21
0.29
0.41
0.53
0.53
0.45
0.41
0.33
0.26
0.21
0.15
0.15
0.10
0.10
0.10
0.10
0.10
0.06
0.10
0.10
0.06
0.06
0.06
0.06
0.06
0.06
0.10
0.10
0.10
0.10
0.21
0.21
0.15
0.15
0.10
0.15
0.06
0.06
0.02
0.06
0.06
0.06
0.10
0.10
0.21
0.83
1.00
0.89
0.06
0.65
0.51
0.45
0.30
0.01
0.00
0.00
0.00
0.02
0.00
0.06
0.02
0.02
0.02
0.02
0.02
0.02
0.02
0.06
0.02
0.02
0.06
0.02
0.06
0.06
0.10
0.15
0.21
0.21
0.33
0.33
0.45
0.53
0.45
0.45
0.33
0.26
0.21
0.15
0.15
0.15
0.10
0.10
0.06
0.06
0.00
0.06
0.02
0.06
0.06
0.10
0.06
0.06
0.06
0.10
0.15
0.21
0.21
0.21
0.15
0.10
0.10
0.06
0.06
0.06
0.06
0.10
0.06
0.06
0.10
0.10
0.73
0.87
1.00
0.80
0.58
0.65
0.49
0.49
0.19
0.01
0.01
0.02
0.01
0.01
0.01
0.01
0.01
0.00
0.00
0.00
0.00
0.01
0.00
0.00
0.00
0.00
0.00
0.02
0.02
0.02
0.06
0.15
0.15
0.21
0.29
0.45
0.41
0.41
0.33
0.26
0.21
0.10
0.10
0.10
0.02
0.00
0.00
0.00
0.00
0.00
0.02
0.00
0.00
0.00
0.02
0.00
0.00
0.00
0.02
0.06
0.02
0.10
0.10
0.06
0.06
0.02
0.00
0.02
0.00
0.01
0.00
0.00
0.00
0.02
0.00
0.15
0.79
0.93
0.90
0.68
0.75
0.70
0.54
0.49
0.30
0.11
0.06
0.06
0.06
0.11
0.06
0.06
0.06
0.06
0.06
0.06
0.06
0.06
0.06
0.01
0.06
0.01
0.06
0.01
0.01
0.02
0.06
0.10
0.15
0.26
0.29
0.41
0.41
0.33
0.26
0.21
0.06
0.02
0.02
0.00
0.01
0.01
0.00
0.01
0.01
0.01
0.01
0.01
0.01
0.06
0.06
0.01
0.06
0.01
0.00
0.00
0.00
0.02
0.10
0.06
0.06
0.02
0.02
0.02
0.01
0.01
0.00
0.00
0.00
0.01
0.02
0.00
0.65
0.88
0.99
0.81
0.75
0.75
0.54
0.51
0.45
0.11
0.06
0.01
0.06
0.06
0.06
0.06
0.06
0.06
0.06
0.00
0.01
0.01
0.06
0.01
0.00
0.01
0.01
0.02
0.02
0.02
0.06
0.15
0.21
0.26
0.33
0.53
0.53
0.45
0.41
0.29
0.21
0.15
0.06
0.10
0.02
0.02
0.02
0.02
0.02
0.02
0.02
0.02
0.02
0.02
0.00
0.02
0.02
0.02
0.06
0.06
0.06
0.06
0.15
0.15
0.10
0.06
0.06
0.06
0.02
0.00
0.00
0.00
0.02
0.02
0.02
0.02
0.45
0.86
0.98
0.83
0.54
0.70
0.54
0.48
0.45
0.06
0.01
0.01
0.01
0.01
0.06
0.00
0.01
0.01
0.00
0.01
0.00
0.01
0.00
0.02
0.02
0.02
0.02
0.02
0.06
0.10
0.10
0.21
0.26
0.29
0.41
0.53
0.45
0.45
0.41
0.33
0.21
0.15
0.10
0.06
0.06
0.02
0.02
0.02
0.02
0.02
0.02
0.02
0.02
0.00
0.00
0.02
0.02
0.00
0.02
0.06
0.06
0.10
0.15
0.15
0.15
0.10
0.10
0.06
0.02
0.02
0.02
0.02
0.02
0.02
0.06
0.06
0.15
0.79
0.88
0.88
0.15
0.58
0.49
0.48
0.39
0.11
0.00
0.02
0.00
0.00
0.02
0.00
0.02
0.00
0.00
0.02
0.02
0.02
0.02
0.02
0.02
0.02
0.02
0.10
0.06
0.06
0.10
0.15
0.21
0.29
0.33
0.53
0.58
0.53
0.45
0.33
0.26
0.15
0.15
0.10
0.06
0.06
0.02
0.02
0.02
0.02
0.02
0.02
0.02
0.02
0.02
0.00
0.02
0.02
0.00
0.06
0.02
0.02
0.10
0.10
0.10
0.10
0.10
0.10
0.02
0.00
0.02
0.02
0.00
0.00
0.02
0.06
0.06
0.10
0.79
0.88
0.88
0.15
0.65
0.49
0.48
0.45
0.11
0.00
0.01
0.01
0.01
0.00
0.00
0.00
0.00
0.00
0.00
0.00
0.00
0.02
0.00
0.00
0.02
0.00
0.00
0.02
0.02
0.10
0.10
0.10
0.26
0.26
0.33
0.45
0.45
0.41
0.33
0.26
0.21
0.15
0.10
0.06
0.06
0.06
0.06
0.06
0.06
0.02
0.02
0.02
0.02
0.06
0.02
0.02
0.00
0.02
0.02
0.02
0.02
0.10
0.15
0.10
0.10
0.06
0.06
0.02
0.02
0.06
0.00
0.00
0.00
0.02
0.06
0.02
0.15
0.82
0.99
0.88
0.06
0.65
0.54
0.48
0.45
0.01
0.06
0.01
0.01
0.01
0.01
0.01
0.00
0.00
0.01
0.01
0.01
0.01
0.01
0.01
0.01
0.00
0.01
0.00
0.00
0.00
0.06
0.06
0.15
0.21
0.26
0.33
0.41
0.45
0.33
0.29
0.26
0.21
0.15
0.10
0.06
0.06
0.02
0.02
0.02
0.02
0.02
0.02
0.02
0.02
0.02
0.02
0.02
0.06
0.06
0.06
0.10
0.15
0.21
0.15
0.10
0.10
0.10
0.10
0.06
0.06
0.02
0.02
0.06
0.06
0.10
0.06
0.41
0.87
1.00
0.83
0.49
0.58
0.51
0.49
0.19
0.01
0.00
0.01
0.00
0.02
0.02
0.02
0.02
0.02
0.02
0.00
0.02
0.02
0.00
0.02
0.02
0.02
0.02
0.02
0.06
0.10
0.10
0.15
0.26
0.29
0.41
0.45
0.58
0.58
0.45
0.41
0.29
0.26
0.15
0.15
0.15
0.15
0.10
0.06
0.10
0.10
0.06
0.10
0.10
0.10
0.06
0.06
0.10
0.10
0.10
0.15
0.15
0.26
0.26
0.26
0.21
0.15
0.15
0.15
0.10
0.10
0.10
0.06
0.10
0.15
0.15
0.10
0.72
0.87
0.99
0.78
0.54
0.49
0.48
0.39
0.06
0.02
0.02
0.02
0.02
0.06
0.06
0.06
0.06
0.10
0.06
0.06
0.06
0.06
0.06
0.06
0.06
0.10
0.10
0.10
0.10
0.10
0.21
0.21
0.26
0.33
0.45
0.53
0.58
0.58
0.53
0.45
0.29
0.29
0.21
0.10
0.10
0.10
0.10
0.10
0.06
0.10
0.10
0.06
0.06
0.06
0.06
0.06
0.06
0.10
0.10
0.10
0.10
0.21
0.26
0.21
0.21
0.21
0.15
0.10
0.10
0.06
0.06
0.06
0.06
0.10
0.10
0.06
0.58
0.86
1.00
0.83
0.58
0.65
0.49
0.49
0.19
0.01
0.00
0.01
0.00
0.00
0.01
0.01
0.00
0.00
0.00
0.00
0.02
0.02
0.00
0.00
0.00
0.02
0.02
0.02
0.06
0.10
0.10
0.15
0.26
0.29
0.41
0.45
0.53
0.53
0.45
0.29
0.26
0.21
0.10
0.10
0.06
0.06
0.06
0.02
0.06
0.02
0.02
0.06
0.02
0.06
0.02
0.02
0.02
0.06
0.02
0.06
0.06
0.10
0.10
0.15
0.10
0.10
0.06
0.06
0.06
0.06
0.02
0.00
0.02
0.00
0.02
0.02
0.02
0.71
0.87
0.91
0.72
0.75
0.65
0.49
0.48
0.30
0.06
0.06
0.01
0.01
0.01
0.01
0.01
0.01
0.01
0.01
0.01
0.00
0.00
0.00
0.00
0.02
0.00
0.00
0.02
0.06
0.10
0.10
0.26
0.29
0.41
0.53
0.53
0.53
0.41
0.29
0.26
0.15
0.06
0.02
0.02
0.02
0.00
0.00
0.00
0.00
0.00
0.00
0.00
0.00
0.00
0.00
0.00
0.02
0.01
0.00
0.00
0.02
0.02
0.10
0.15
0.06
0.06
0.06
0.02
0.00
0.00
0.01
0.01
0.00
0.00
0.00
0.02
0.10
0.81
0.92
0.88
0.45
0.80
0.65
0.49
0.48
0.30
0.06
0.11
0.01
0.06
0.06
0.06
0.06
0.01
0.06
0.06
0.01
0.01
0.01
0.01
0.01
0.00
0.00
0.00
0.02
0.02
0.06
0.10
0.15
0.21
0.29
0.41
0.45
0.45
0.33
0.26
0.21
0.10
0.06
0.02
0.02
0.00
0.00
0.01
0.01
0.00
0.00
0.00
0.00
0.01
0.01
0.00
0.00
0.00
0.00
0.02
0.02
0.02
0.06
0.15
0.10
0.10
0.10
0.06
0.06
0.02
0.02
0.02
0.02
0.02
0.02
0.06
0.10
0.26
0.80
0.87
0.88
0.10
0.49
0.51
0.48
0.45
0.19
0.01
0.01
0.01
0.06
0.01
0.00
0.01
0.01
0.01
0.01
0.01
0.01
0.01
0.00
0.00
0.00
0.00
0.00
0.02
0.02
0.10
0.15
0.21
0.26
0.29
0.41
0.45
0.45
0.41
0.41
0.26
0.15
0.10
0.06
0.02
0.02
0.00
0.02
0.02
0.00
0.00
0.00
0.02
0.00
0.00
0.00
0.00
0.00
0.00
0.00
0.00
0.02
0.06
0.10
0.06
0.02
0.02
0.00
0.00
0.00
0.00
0.00
0.00
0.00
0.00
0.02
0.02
0.33
0.84
0.90
0.82
0.54
0.58
0.51
0.48
0.39
0.06
0.01
0.01
0.06
0.01
0.01
0.01
0.01
0.01
0.00
0.01
0.01
0.01
0.00
0.00
0.00
0.00
0.02
0.02
0.00
0.02
0.06
0.10
0.15
0.21
0.26
0.29
0.41
0.33
0.33
0.21
0.10
0.10
0.06
0.02
0.00
0.00
0.00
0.00
0.00
0.00
0.00
0.01
0.00
0.01
0.00
0.00
0.01
0.00
0.02
0.00
0.00
0.02
0.06
0.06
0.06
0.02
0.02
0.00
0.00
0.01
0.00
0.06
0.01
0.01
0.02
0.00
0.02
0.79
0.88
0.88
0.01
0.75
0.58
0.49
0.48
0.30
0.11
0.06
0.11
0.06
0.06
0.06
0.11
0.11
0.11
0.06
0.06
0.06
0.06
0.06
0.06
0.06
0.06
0.06
0.06
0.01
0.00
0.00
0.02
0.06
0.15
0.21
0.29
0.33
0.29
0.26
0.15
0.06
0.02
0.00
0.00
0.00
0.00
0.01
0.01
0.06
0.01
0.01
0.01
0.01
0.01
0.01
0.06
0.06
0.00
0.01
0.00
0.00
0.06
0.06
0.02
0.00
0.00
0.00
0.01
0.01
0.01
0.01
0.01
0.01
0.00
0.00
0.00
0.68
0.89
0.93
0.76
0.70
0.65
0.54
0.51
0.39
0.06
0.11
0.11
0.11
0.06
0.11
0.11
0.11
0.06
0.11
0.11
0.11
0.11
0.11
0.06
0.06
0.06
0.06
0.06
0.06
0.01
0.00
0.02
0.10
0.15
0.21
0.29
0.29
0.29
0.26
0.15
0.10
0.06
0.02
0.01
0.01
0.01
0.01
0.01
0.01
0.01
0.01
0.06
0.06
0.01
0.01
0.01
0.01
0.00
0.01
0.00
0.00
0.06
0.02
0.02
0.02
0.02
0.01
0.01
0.01
0.01
0.01
0.01
0.00
0.02
0.02
0.02
0.74
0.88
0.93
0.72
0.75
0.70
0.54
0.48
0.30
0.11
0.11
0.11
0.11
0.06
0.06
0.06
0.06
0.06
0.06
0.06
0.06
0.01
0.01
0.06
0.06
0.01
0.01
0.01
0.00
0.02
0.02
0.06
0.15
0.21
0.29
0.33
0.41
0.45
0.33
0.26
0.15
0.10
0.06
0.02
0.02
0.06
0.02
0.02
0.02
0.00
0.00
0.00
0.00
0.00
0.02
0.00
0.00
0.00
0.02
0.02
0.02
0.10
0.10
0.10
0.06
0.06
0.02
0.02
0.00
0.00
0.01
0.00
0.00
0.02
0.02
0.10
0.82
0.96
0.89
0.06
0.70
0.54
0.51
0.49
0.11
0.01
0.01
0.06
0.06
0.06
0.01
0.01
0.01
0.00
0.01
0.01
0.01
0.01
0.00
0.00
0.00
0.00
0.00
0.00
0.02
0.06
0.06
0.15
0.21
0.29
0.33
0.45
0.45
0.41
0.33
0.26
0.15
0.10
0.06
0.02
0.02
0.02
0.02
0.00
0.00
0.00
0.00
0.01
0.00
0.02
0.00
0.00
0.00
0.02
0.01
0.00
0.02
0.06
0.10
0.10
0.10
0.06
0.02
0.02
0.02
0.00
0.01
0.01
0.00
0.02
0.00
0.00
0.45
0.86
0.99
0.84
0.54
0.75
0.54
0.51
0.45
0.11
0.06
0.01
0.06
0.06
0.06
0.01
0.06
0.01
0.01
0.06
0.01
0.01
0.06
0.06
0.01
0.01
0.01
0.00
0.00
0.02
0.02
0.06
0.15
0.21
0.29
0.41
0.45
0.41
0.29
0.21
0.15
0.10
0.00
0.00
0.01
0.00
0.01
0.06
0.01
0.01
0.06
0.06
0.06
0.01
0.06
0.06
0.01
0.01
0.01
0.01
0.00
0.02
0.06
0.06
0.02
0.02
0.00
0.01
0.01
0.06
0.06
0.11
0.06
0.01
0.01
0.01
0.00
0.71
0.89
0.89
0.72
0.80
0.75
0.65
0.54
0.45
0.30
0.19
0.19
0.11
0.19
0.19
0.19
0.11
0.19
0.19
0.11
0.11
0.11
0.06
0.06
0.06
0.06
0.01
0.06
0.00
0.00
0.02
0.06
0.15
0.26
0.29
0.33
0.33
0.29
0.21
0.15
0.06
0.00
0.01
0.01
0.06
0.06
0.06
0.11
0.06
0.11
0.11
0.11
0.11
0.11
0.06
0.11
0.06
0.11
0.11
0.06
0.01
0.00
0.00
0.00
0.02
0.00
0.06
0.06
0.06
0.06
0.11
0.01
0.01
0.01
0.01
0.01
0.53
0.86
0.88
0.79
0.65
0.70
0.54
0.49
0.49
0.19
0.19
0.11
0.06
0.11
0.11
0.11
0.01
0.01
0.06
0.11
0.01
0.06
0.01
0.00
0.01
0.01
0.06
0.01
0.02
0.02
0.02
0.10
0.15
0.21
0.29
0.41
0.41
0.33
0.29
0.26
0.15
0.06
0.02
0.00
0.00
0.00
0.00
0.00
0.00
0.00
0.01
0.00
0.00
0.00
0.00
0.02
0.00
0.00
0.00
0.00
0.06
0.02
0.10
0.10
0.10
0.06
0.02
0.06
0.02
0.02
0.00
0.00
0.02
0.02
0.02
0.02
0.06
0.72
0.88
0.88
0.45
0.58
0.49
0.48
0.45
0.19
0.00
0.01
0.00
0.00
0.00
0.02
0.02
0.00
0.00
0.02
0.02
0.02
0.02
0.02
0.06
0.02
0.02
0.06
0.06
0.06
0.10
0.15
0.21
0.26
0.26
0.41
0.53
0.53
0.53
0.41
0.33
0.26
0.21
0.15
0.15
0.10
0.06
0.06
0.10
0.06
0.06
0.06
0.06
0.06
0.06
0.06
0.06
0.02
0.02
0.06
0.06
0.10
0.15
0.21
0.15
0.10
0.10
0.10
0.10
0.06
0.02
0.02
0.02
0.06
0.06
0.10
0.06
0.41
0.84
0.99
0.83
0.48
0.49
0.48
0.45
0.11
0.00
0.02
0.02
0.02
0.02
0.02
0.06
0.02
0.06
0.06
0.10
0.06
0.10
0.06
0.10
0.06
0.06
0.06
0.10
0.10
0.10
0.10
0.15
0.21
0.21
0.29
0.33
0.45
0.45
0.41
0.33
0.26
0.15
0.10
0.15
0.06
0.02
0.02
0.06
0.02
0.02
0.02
0.06
0.02
0.02
0.02
0.06
0.02
0.06
0.06
0.10
0.15
0.21
0.15
0.15
0.10
0.06
0.10
0.10
0.02
0.02
0.02
0.02
0.06
0.06
0.06
0.15
0.81
0.89
0.88
0.45
0.65
0.54
0.51
0.39
0.19
0.06
0.06
0.06
0.06
0.06
0.06
0.01
0.06
0.06
0.06
0.01
0.06
0.06
0.06
0.01
0.01
0.01
0.01
0.01
0.00
0.00
0.06
0.10
0.15
0.21
0.29
0.33
0.33
0.29
0.26
0.15
0.06
0.02
0.00
0.00
0.00
0.00
0.01
0.00
0.01
0.01
0.01
0.01
0.01
0.01
0.06
0.00
0.01
0.01
0.00
0.02
0.06
0.06
0.06
0.02
0.00
0.00
0.01
0.00
0.01
0.06
0.01
0.00
0.00
0.00
0.00
0.58
0.88
0.96
0.78
0.70
0.75
0.54
0.51
0.39
0.11
0.11
0.11
0.06
0.11
0.11
0.06
0.06
0.06
0.06
0.06
0.06
0.06
0.06
0.06
0.01
0.01
0.01
0.01
0.00
0.00
0.02
0.10
0.15
0.26
0.33
0.41
0.45
0.33
0.26
0.21
0.15
0.06
0.00
0.02
0.02
0.01
0.01
0.01
0.01
0.01
0.01
0.01
0.00
0.01
0.01
0.01
0.00
0.01
0.00
0.02
0.06
0.10
0.10
0.06
0.02
0.02
0.02
0.02
0.02
0.00
0.01
0.00
0.02
0.02
0.00
0.21
0.82
0.95
0.88
0.06
0.75
0.58
0.49
0.49
0.11
0.06
0.06
0.06
0.01
0.06
0.06
0.06
0.06
0.06
0.06
0.06
0.01
0.01
0.01
0.01
0.01
0.01
0.00
0.00
0.02
0.02
0.10
0.15
0.26
0.29
0.41
0.45
0.41
0.41
0.26
0.15
0.10
0.02
0.00
0.00
0.00
0.00
0.01
0.01
0.00
0.01
0.01
0.01
0.00
0.01
0.01
0.00
0.00
0.00
0.00
0.02
0.06
0.15
0.06
0.10
0.06
0.02
0.00
0.00
0.00
0.01
0.01
0.00
0.02
0.02
0.02
0.63
0.87
0.89
0.79
0.58
0.58
0.51
0.51
0.45
0.06
0.11
0.11
0.06
0.00
0.01
0.06
0.01
0.01
0.01
0.00
0.01
0.01
0.01
0.01
0.02
0.06
0.02
0.00
0.02
0.10
0.10
0.10
0.21
0.29
0.41
0.45
0.45
0.41
0.33
0.21
0.15
0.15
0.02
0.02
0.02
0.02
0.00
0.00
0.00
0.02
0.00
0.00
0.00
0.01
0.01
0.01
0.00
0.00
0.01
0.00
0.00
0.02
0.10
0.02
0.06
0.02
0.00
0.01
0.01
0.00
0.00
0.01
0.01
0.01
0.00
0.01
0.02
0.78
0.88
0.88
0.06
0.70
0.54
0.49
0.51
0.30
0.11
0.06
0.06
0.06
0.06
0.06
0.06
0.01
0.01
0.06
0.06
0.06
0.01
0.01
0.01
0.01
0.01
0.00
0.00
0.00
0.02
0.02
0.06
0.15
0.21
0.29
0.33
0.33
0.29
0.21
0.15
0.10
0.02
0.00
0.01
0.01
0.01
0.01
0.01
0.00
0.06
0.01
0.01
0.01
0.06
0.06
0.01
0.01
0.01
0.01
0.00
0.02
0.02
0.02
0.02
0.02
0.00
0.01
0.01
0.01
0.06
0.06
0.06
0.01
0.01
0.06
0.02
0.77
0.90
0.88
0.58
0.80
0.65
0.54
0.51
0.30
0.19
0.11
0.19
0.11
0.11
0.19
0.11
0.11
0.11
0.19
0.19
0.11
0.11
0.19
0.11
0.11
0.11
0.11
0.06
0.06
0.06
0.01
0.02
0.06
0.10
0.21
0.26
0.33
0.29
0.26
0.15
0.10
0.06
0.00
0.00
0.01
0.01
0.01
0.06
0.01
0.06
0.01
0.01
0.01
0.06
0.06
0.01
0.01
0.01
0.01
0.00
0.06
0.06
0.00
0.02
0.00
0.00
0.01
0.01
0.01
0.06
0.01
0.06
0.01
0.00
0.01
0.63
0.88
0.96
0.77
0.80
0.70
0.58
0.49
0.30
0.11
0.11
0.11
0.11
0.11
0.11
0.11
0.11
0.06
0.11
0.11
0.11
0.06
0.06
0.06
0.06
0.06
0.06
0.06
0.06
0.00
0.00
0.02
0.06
0.15
0.21
0.29
0.33
0.33
0.26
0.21
0.15
0.10
0.02
0.00
0.00
0.00
0.01
0.01
0.01
0.00
0.01
0.01
0.01
0.01
0.01
0.01
0.01
0.00
0.01
0.00
0.00
0.06
0.06
0.06
0.02
0.02
0.00
0.00
0.01
0.01
0.00
0.01
0.00
0.02
0.02
0.02
0.68
0.88
0.98
0.77
0.75
0.65
0.54
0.48
0.39
0.06
0.06
0.11
0.06
0.01
0.01
0.06
0.06
0.06
0.06
0.06
0.06
0.00
0.01
0.01
0.01
0.00
0.00
0.00
0.00
0.06
0.06
0.10
0.15
0.26
0.33
0.45
0.45
0.41
0.29
0.26
0.21
0.06
0.06
0.02
0.02
0.02
0.00
0.00
0.00
0.00
0.02
0.00
0.00
0.02
0.00
0.02
0.00
0.00
0.02
0.00
0.06
0.10
0.15
0.10
0.06
0.06
0.02
0.02
0.00
0.00
0.01
0.00
0.01
0.00
0.00
0.00
0.26
0.84
0.99
0.85
0.58
0.80
0.65
0.49
0.49
0.11
0.11
0.06
0.11
0.06
0.11
0.11
0.06
0.06
0.06
0.06
0.06
0.06
0.06
0.06
0.01
0.01
0.01
0.01
0.00
0.00
0.02
0.06
0.15
0.26
0.29
0.33
0.41
0.41
0.29
0.21
0.15
0.10
0.02
0.00
0.01
0.01
0.01
0.01
0.01
0.01
0.01
0.01
0.01
0.01
0.01
0.06
0.01
0.01
0.06
0.01
0.01
0.00
0.02
0.06
0.02
0.06
0.02
0.00
0.01
0.00
0.06
0.11
0.06
0.01
0.06
0.01
0.01
0.06
0.82
0.93
0.88
0.06
0.84
0.75
0.58
0.51
0.30
0.19
0.19
0.19
0.19
0.30
0.19
0.19
0.19
0.19
0.11
0.11
0.11
0.19
0.11
0.06
0.11
0.06
0.06
0.01
0.01
0.00
0.06
0.10
0.15
0.21
0.33
0.33
0.33
0.26
0.21
0.10
0.02
0.00
0.01
0.01
0.06
0.11
0.06
0.06
0.06
0.06
0.11
0.06
0.06
0.06
0.06
0.06
0.11
0.06
0.01
0.01
0.01
0.01
0.02
0.02
0.02
0.00
0.00
0.00
0.01
0.01
0.11
0.06
0.06
0.06
0.01
0.00
0.02
0.80
0.88
0.88
0.06
0.75
0.65
0.54
0.49
0.39
0.11
0.11
0.11
0.11
0.19
0.06
0.06
0.19
0.06
0.06
0.01
0.06
0.06
0.01
0.01
0.01
0.01
0.01
0.00
0.00
0.02
0.10
0.10
0.15
0.29
0.29
0.41
0.33
0.29
0.26
0.10
0.02
0.02
0.00
0.00
0.01
0.01
0.01
0.01
0.01
0.00
0.00
0.01
0.06
0.06
0.00
0.01
0.01
0.01
0.00
0.00
0.00
0.02
0.10
0.10
0.02
0.06
0.02
0.06
0.00
0.00
0.02
0.00
0.00
0.02
0.02
0.06
0.02
0.33
0.83
0.93
0.83
0.49
0.58
0.51
0.48
0.39
0.01
0.00
0.00
0.00
0.00
0.00
0.02
0.00
0.02
0.00
0.02
0.02
0.00
0.02
0.02
0.02
0.06
0.06
0.06
0.06
0.06
0.10
0.15
0.21
0.29
0.33
0.45
0.53
0.53
0.45
0.41
0.29
0.26
0.15
0.10
0.10
0.10
0.10
0.06
0.06
0.15
0.06
0.02
0.00
0.02
0.06
0.10
0.10
0.10
0.10
0.10
0.10
0.15
0.15
0.26
0.82
0.99
0.87
0.26
0.58
0.51
0.45
0.19
0.00
0.06
0.02
0.02
0.06
0.06
0.06
0.02
0.06
0.06
0.06
0.06
0.06
0.06
0.02
0.06
0.02
0.10
0.06
0.02
0.06
0.10
0.15
0.21
0.26
0.33
0.33
0.33
0.33
0.26
0.21
0.10
0.06
0.06
0.02
0.02
0.02
0.02
0.02
0.00
0.02
0.02
0.00
0.02
0.02
0.02
0.02
0.02
0.06
0.06
0.02
0.02
0.02
0.02
0.02
0.02
0.02
0.02
0.02
0.00
0.02
0.02
0.06
0.06
0.06
0.10
0.15
0.15
0.15
0.15
0.15
0.10
0.06
0.06
0.02
0.02
0.06
0.06
0.06
0.06
0.06
0.63
0.88
1.00
0.79
0.58
0.58
0.51
0.49
0.11
0.01
0.01
0.01
0.00
0.00
0.01
0.00
0.00
0.01
0.01
0.00
0.01
0.01
0.01
0.00
0.00
0.00
0.00
0.02
0.02
0.06
0.15
0.15
0.29
0.41
0.53
0.63
0.66
0.66
0.66
0.58
0.53
0.33
0.26
0.15
0.10
0.10
0.06
0.06
0.06
0.02
0.02
0.02
0.00
0.02
0.00
0.00
0.02
0.02
0.00
0.00
0.00
0.02
0.10
0.06
0.10
0.02
0.00
0.00
0.00
0.00
0.01
0.01
0.00
0.01
0.01
0.00
0.06
0.81
0.98
0.88
0.41
0.80
0.70
0.54
0.51
0.19
0.11
0.19
0.06
0.11
0.11
0.06
0.06
0.06
0.11
0.11
0.01
0.06
0.06
0.06
0.06
0.06
0.06
0.06
0.01
0.01
0.00
0.00
0.02
0.06
0.15
0.26
0.33
0.29
0.21
0.10
0.10
0.02
0.00
0.00
0.01
0.01
0.01
0.01
0.01
0.06
0.01
0.01
0.01
0.06
0.01
0.01
0.01
0.01
0.01
0.01
0.00
0.00
0.00
0.10
0.10
0.02
0.02
0.00
0.02
0.00
0.00
0.01
0.06
0.01
0.01
0.00
0.02
0.00
0.29
0.83
0.99
0.83
0.54
0.75
0.58
0.49
0.45
0.19
0.11
0.11
0.06
0.11
0.11
0.11
0.06
0.06
0.11
0.06
0.11
0.11
0.06
0.06
0.06
0.01
0.01
0.01
0.00
0.02
0.06
0.10
0.15
0.26
0.33
0.41
0.53
0.45
0.41
0.26
0.21
0.15
0.06
0.02
0.02
0.02
0.02
0.00
0.00
0.00
0.00
0.00
0.00
0.01
0.00
0.00
0.01
0.00
0.00
0.02
0.02
0.02
0.15
0.10
0.06
0.06
0.06
0.02
0.02
0.00
0.02
0.00
0.00
0.00
0.06
0.02
0.10
0.79
0.90
0.88
0.58
0.70
0.65
0.49
0.51
0.19
0.06
0.06
0.06
0.01
0.11
0.06
0.11
0.06
0.01
0.06
0.01
0.01
0.01
0.01
0.01
0.01
0.00
0.00
0.02
0.02
0.06
0.10
0.10
0.15
0.33
0.33
0.45
0.41
0.33
0.29
0.21
0.10
0.06
0.06
0.02
0.02
0.02
0.00
0.00
0.00
0.02
0.02
0.00
0.00
0.00
0.00
0.01
0.01
0.00
0.00
0.00
0.00
0.02
0.06
0.06
0.02
0.02
0.00
0.00
0.01
0.06
0.06
0.06
0.01
0.01
0.01
0.01
0.02
0.79
0.88
0.88
0.10
0.75
0.70
0.54
0.49
0.39
0.19
0.19
0.19
0.19
0.19
0.19
0.19
0.11
0.19
0.19
0.11
0.11
0.11
0.11
0.11
0.06
0.06
0.06
0.06
0.01
0.00
0.00
0.06
0.10
0.15
0.26
0.29
0.33
0.29
0.21
0.10
0.02
0.00
0.01
0.06
0.01
0.11
0.11
0.11
0.19
0.11
0.11
0.19
0.11
0.19
0.11
0.19
0.11
0.11
0.19
0.11
0.06
0.11
0.01
0.01
0.06
0.06
0.11
0.11
0.11
0.19
0.19
0.19
0.19
0.19
0.11
0.06
0.06
0.71
0.88
0.87
0.41
0.84
0.80
0.70
0.58
0.48
0.45
0.39
0.30
0.39
0.30
0.30
0.19
0.30
0.30
0.19
0.19
0.19
0.30
0.30
0.30
0.30
0.19
0.19
0.11
0.11
0.11
0.11
0.00
0.00
0.02
0.10
0.21
0.21
0.10
0.10
0.06
0.01
0.06
0.06
0.11
0.19
0.19
0.19
0.11
0.19
0.19
0.11
0.11
0.11
0.19
0.19
0.11
0.19
0.11
0.11
0.11
0.06
0.06
0.01
0.00
0.01
0.06
0.06
0.11
0.11
0.11
0.19
0.11
0.11
0.11
0.06
0.06
0.06
0.72
0.88
0.87
0.29
0.80
0.70
0.58
0.49
0.45
0.19
0.11
0.19
0.19
0.19
0.19
0.19
0.19
0.11
0.11
0.11
0.11
0.11
0.11
0.11
0.11
0.11
0.06
0.06
0.06
0.01
0.01
0.02
0.06
0.15
0.29
0.33
0.33
0.33
0.26
0.15
0.06
0.02
0.02
0.00
0.01
0.01
0.01
0.00
0.01
0.01
0.00
0.00
0.01
0.01
0.01
0.01
0.01
0.01
0.00
0.00
0.00
0.02
0.06
0.02
0.02
0.00
0.02
0.01
0.01
0.01
0.01
0.06
0.01
0.01
0.00
0.01
0.15
0.82
0.99
0.88
0.06
0.80
0.58
0.54
0.49
0.19
0.11
0.11
0.11
0.11
0.06
0.11
0.11
0.11
0.06
0.06
0.11
0.06
0.06
0.06
0.06
0.06
0.06
0.01
0.01
0.00
0.02
0.02
0.02
0.10
0.15
0.26
0.29
0.33
0.33
0.26
0.21
0.10
0.06
0.02
0.00
0.00
0.00
0.00
0.00
0.00
0.00
0.00
0.00
0.00
0.00
0.01
0.00
0.00
0.00
0.02
0.02
0.10
0.10
0.06
0.02
0.02
0.02
0.02
0.00
0.01
0.00
0.00
0.00
0.02
0.02
0.10
0.78
0.89
0.91
0.71
0.70
0.65
0.49
0.48
0.19
0.06
0.01
0.06
0.11
0.06
0.06
0.06
0.01
0.06
0.01
0.01
0.06
0.06
0.01
0.06
0.06
0.01
0.00
0.01
0.00
0.02
0.06
0.10
0.15
0.21
0.29
0.33
0.41
0.41
0.29
0.26
0.15
0.10
0.06
0.02
0.02
0.02
0.00
0.00
0.01
0.00
0.00
0.00
0.01
0.00
0.01
0.00
0.01
0.01
0.00
0.01
0.02
0.02
0.06
0.06
0.02
0.02
0.02
0.02
0.01
0.01
0.01
0.01
0.01
0.01
0.00
0.00
0.06
0.82
0.96
0.88
0.15
0.80
0.70
0.54
0.48
0.19
0.11
0.11
0.11
0.11
0.06
0.11
0.06
0.11
0.11
0.11
0.11
0.11
0.06
0.11
0.11
0.06
0.06
0.06
0.01
0.01
0.02
0.02
0.06
0.10
0.21
0.29
0.33
0.33
0.29
0.15
0.06
0.06
0.02
0.01
0.01
0.06
0.01
0.06
0.06
0.06
0.06
0.06
0.06
0.06
0.01
0.06
0.06
0.06
0.06
0.01
0.01
0.01
0.02
0.06
0.02
0.02
0.00
0.01
0.01
0.01
0.01
0.06
0.06
0.06
0.00
0.00
0.01
0.33
0.85
0.99
0.85
0.58
0.84
0.65
0.54
0.49
0.19
0.11
0.11
0.11
0.11
0.11
0.06
0.11
0.06
0.11
0.06
0.06
0.06
0.01
0.06
0.06
0.01
0.01
0.01
0.00
0.00
0.02
0.06
0.10
0.21
0.29
0.33
0.41
0.41
0.29
0.21
0.10
0.06
0.02
0.00
0.01
0.01
0.01
0.01
0.01
0.01
0.06
0.06
0.01
0.01
0.01
0.01
0.01
0.01
0.01
0.01
0.00
0.02
0.06
0.06
0.06
0.06
0.02
0.02
0.00
0.00
0.01
0.01
0.01
0.00
0.00
0.00
0.00
0.63
0.88
0.91
0.78
0.58
0.58
0.49
0.51
0.45
0.11
0.06
0.06
0.01
0.06
0.06
0.01
0.01
0.01
0.01
0.01
0.02
0.00
0.00
0.00
0.00
0.02
0.02
0.02
0.10
0.06
0.10
0.15
0.26
0.29
0.33
0.45
0.53
0.45
0.41
0.26
0.21
0.15
0.06
0.06
0.02
0.00
0.02
0.00
0.02
0.02
0.02
0.06
0.02
0.01
0.00
0.02
0.02
0.02
0.02
0.02
0.06
0.06
0.15
0.10
0.15
0.10
0.06
0.06
0.06
0.02
0.02
0.02
0.02
0.02
0.02
0.10
0.10
0.72
0.89
0.88
0.68
0.54
0.54
0.48
0.49
0.30
0.01
0.00
0.00
0.00
0.00
0.00
0.02
0.00
0.02
0.00
0.00
0.02
0.02
0.02
0.06
0.02
0.02
0.06
0.06
0.06
0.06
0.15
0.15
0.21
0.26
0.41
0.45
0.53
0.45
0.41
0.33
0.21
0.15
0.10
0.10
0.02
0.02
0.06
0.06
0.06
0.06
0.06
0.02
0.06
0.02
0.06
0.06
0.02
0.02
0.06
0.02
0.06
0.10
0.10
0.21
0.15
0.10
0.06
0.06
0.06
0.02
0.00
0.02
0.00
0.02
0.02
0.02
0.02
0.21
0.84
0.99
0.86
0.49
0.65
0.49
0.49
0.39
0.06
0.00
0.00
0.01
0.00
0.00
0.00
0.00
0.01
0.00
0.00
0.00
0.00
0.00
0.00
0.00
0.00
0.02
0.02
0.02
0.02
0.06
0.06
0.15
0.15
0.29
0.33
0.45
0.45
0.41
0.33
0.26
0.15
0.15
0.06
0.06
0.02
0.02
0.02
0.02
0.00
0.02
0.00
0.00
0.00
0.02
0.02
0.00
0.02
0.02
0.02
0.06
0.15
0.15
0.10
0.10
0.06
0.10
0.02
0.02
0.02
0.02
0.00
0.02
0.02
0.10
0.02
0.33
0.83
1.00
0.86
0.51
0.65
0.49
0.48
0.39
0.06
0.01
0.01
0.01
0.00
0.00
0.00
0.00
0.00
0.00
0.00
0.00
0.00
0.02
0.00
0.00
0.00
0.00
0.00
0.02
0.02
0.06
0.10
0.15
0.26
0.33
0.33
0.45
0.45
0.41
0.29
0.21
0.10
0.10
0.06
0.02
0.02
0.02
0.02
0.02
0.00
0.02
0.02
0.02
0.02
0.02
0.02
0.02
0.02
0.02
0.02
0.06
0.15
0.15
0.10
0.10
0.06
0.02
0.02
0.02
0.02
0.02
0.02
0.02
0.02
0.02
0.02
0.41
0.83
0.99
0.88
0.39
0.70
0.54
0.48
0.45
0.11
0.01
0.06
0.06
0.06
0.06
0.01
0.06
0.06
0.01
0.01
0.01
0.01
0.01
0.01
0.01
0.00
0.01
0.00
0.02
0.02
0.06
0.10
0.21
0.21
0.33
0.41
0.45
0.45
0.33
0.29
0.21
0.15
0.10
0.02
0.06
0.02
0.02
0.00
0.02
0.02
0.02
0.02
0.02
0.00
0.02
0.02
0.00
0.02
0.02
0.02
0.06
0.06
0.15
0.21
0.10
0.10
0.10
0.06
0.06
0.02
0.06
0.02
0.02
0.06
0.10
0.10
0.21
0.82
0.98
0.87
0.29
0.65
0.58
0.49
0.45
0.11
0.00
0.01
0.01
0.02
0.00
0.01
0.01
0.00
0.00
0.00
0.00
0.00
0.02
0.00
0.00
0.00
0.02
0.02
0.06
0.06
0.10
0.15
0.21
0.26
0.29
0.45
0.53
0.58
0.58
0.45
0.33
0.26
0.15
0.10
0.06
0.06
0.06
0.02
0.02
0.02
0.02
0.02
0.02
0.02
0.06
0.02
0.02
0.02
0.02
0.02
0.02
0.02
0.10
0.15
0.15
0.15
0.10
0.06
0.06
0.06
0.02
0.00
0.00
0.02
0.00
0.02
0.06
0.06
0.71
0.89
0.88
0.71
0.65
0.54
0.48
0.48
0.30
0.06
0.06
0.01
0.01
0.06
0.01
0.01
0.01
0.01
0.01
0.01
0.01
0.00
0.01
0.00
0.00
0.00
0.00
0.02
0.02
0.10
0.10
0.15
0.26
0.29
0.33
0.41
0.41
0.29
0.21
0.15
0.06
0.02
0.00
0.00
0.01
0.01
0.01
0.01
0.01
0.06
0.01
0.01
0.01
0.01
0.01
0.01
0.06
0.06
0.15
0.21
0.45
0.74
0.81
0.84
0.84
0.87
0.82
0.33
0.19
0.49
0.49
0.45
0.45
0.45
0.49
0.49
0.49
0.49
0.45
0.45
0.45
0.49
0.49
0.49
0.49
0.49
0.49
0.49
0.49
0.48
0.49
0.49
0.45
0.30
0.19
0.01
0.00
0.06
0.06
0.06
0.02
0.00
0.00
0.01
0.01
0.01
0.01
0.06
0.01
0.06
0.01
0.06
0.01
0.01
0.01
0.06
0.01
0.06
0.06
0.06
0.01
0.01
0.06
0.06
0.06
0.01
0.06
0.06
0.01
0.06
0.06
0.06
0.06
0.01
0.06
0.01
0.01
0.00
0.00
0.02
0.06
0.02
0.02
0.02
0.00
0.00
0.01
0.01
0.01
0.01
0.01
0.00
0.02
0.01
0.33
0.85
0.99
0.82
0.65
0.65
0.49
0.51
0.39
0.11
0.06
0.11
0.11
0.11
0.06
0.11
0.11
0.11
0.06
0.11
0.11
0.06
0.01
0.06
0.06
0.06
0.01
0.01
0.01
0.02
0.06
0.06
0.15
0.21
0.29
0.45
0.53
0.63
0.63
0.53
0.41
0.29
0.21
0.15
0.10
0.06
0.06
0.02
0.00
0.00
0.02
0.00
0.02
0.00
0.00
0.00
0.00
0.01
0.00
0.02
0.02
0.10
0.06
0.06
0.02
0.02
0.00
0.01
0.06
0.01
0.06
0.19
0.19
0.01
0.00
0.15
0.82
0.95
0.87
0.29
0.75
0.58
0.49
0.49
0.30
0.11
0.11
0.11
0.11
0.11
0.06
0.06
0.11
0.06
0.01
0.01
0.06
0.01
0.06
0.06
0.06
0.01
0.01
0.01
0.01
0.01
0.00
0.02
0.06
0.10
0.26
0.21
0.26
0.26
0.21
0.10
0.06
0.02
0.02
0.01
0.01
0.01
0.01
0.01
0.01
0.01
0.01
0.01
0.01
0.01
0.01
0.01
0.00
0.00
0.00
0.06
0.06
0.06
0.06
0.02
0.02
0.02
0.00
0.01
0.00
0.00
0.02
0.00
0.02
0.02
0.41
0.85
1.00
0.83
0.65
0.75
0.58
0.51
0.39
0.11
0.11
0.06
0.06
0.06
0.11
0.01
0.01
0.06
0.11
0.06
0.06
0.06
0.06
0.01
0.01
0.01
0.06
0.01
0.00
0.01
0.02
0.06
0.15
0.15
0.29
0.33
0.45
0.41
0.33
0.26
0.21
0.10
0.02
0.00
0.00
0.00
0.00
0.01
0.00
0.01
0.01
0.01
0.01
0.01
0.01
0.01
0.00
0.01
0.06
0.01
0.00
0.06
0.06
0.02
0.02
0.00
0.00
0.01
0.01
0.06
0.06
0.01
0.01
0.01
0.01
0.02
0.77
0.89
0.88
0.53
0.84
0.70
0.54
0.48
0.30
0.11
0.11
0.11
0.11
0.11
0.11
0.11
0.06
0.11
0.11
0.11
0.06
0.11
0.06
0.11
0.06
0.06
0.06
0.01
0.00
0.01
0.00
0.02
0.10
0.15
0.21
0.29
0.29
0.26
0.15
0.06
0.02
0.01
0.06
0.06
0.06
0.11
0.11
0.11
0.11
0.11
0.19
0.11
0.11
0.19
0.19
0.19
0.11
0.11
0.11
0.01
0.00
0.02
0.00
0.00
0.01
0.01
0.06
0.06
0.06
0.11
0.11
0.11
0.11
0.06
0.01
0.02
0.78
0.87
0.88
0.10
0.80
0.70
0.58
0.54
0.49
0.30
0.30
0.30
0.19
0.11
0.19
0.19
0.19
0.19
0.11
0.11
0.11
0.06
0.11
0.11
0.06
0.06
0.06
0.06
0.00
0.00
0.02
0.06
0.15
0.15
0.26
0.33
0.29
0.26
0.15
0.10
0.02
0.01
0.01
0.06
0.01
0.06
0.11
0.01
0.01
0.06
0.11
0.06
0.06
0.06
0.11
0.06
0.06
0.06
0.06
0.01
0.01
0.00
0.02
0.00
0.01
0.01
0.01
0.06
0.06
0.06
0.06
0.11
0.06
0.01
0.01
0.10
0.81
0.88
0.84
0.51
0.70
0.58
0.49
0.51
0.30
0.11
0.11
0.11
0.11
0.11
0.11
0.11
0.06
0.06
0.06
0.06
0.06
0.06
0.06
0.01
0.00
0.00
0.01
0.02
0.02
0.00
0.02
0.10
0.15
0.21
0.29
0.41
0.41
0.29
0.21
0.15
0.10
0.06
0.02
0.02
0.02
0.00
0.00
0.02
0.00
0.00
0.00
0.00
0.02
0.02
0.02
0.00
0.02
0.02
0.02
0.02
0.10
0.10
0.10
0.10
0.10
0.02
0.02
0.02
0.02
0.02
0.00
0.02
0.02
0.02
0.02
0.15
0.81
0.93
0.87
0.33
0.65
0.54
0.48
0.45
0.11
0.01
0.01
0.01
0.00
0.01
0.01
0.00
0.00
0.00
0.00
0.00
0.02
0.00
0.00
0.00
0.02
0.00
0.00
0.00
0.06
0.06
0.06
0.15
0.21
0.29
0.33
0.45
0.45
0.41
0.33
0.29
0.21
0.10
0.10
0.02
0.06
0.06
0.02
0.06
0.06
0.02
0.02
0.02
0.06
0.02
0.02
0.02
0.06
0.02
0.06
0.15
0.15
0.15
0.10
0.10
0.10
0.06
0.02
0.02
0.02
0.02
0.06
0.06
0.06
0.06
0.26
0.82
0.98
0.88
0.58
0.65
0.49
0.48
0.45
0.11
0.01
0.01
0.01
0.00
0.00
0.00
0.00
0.00
0.00
0.00
0.00
0.00
0.02
0.00
0.00
0.02
0.02
0.02
0.02
0.06
0.10
0.10
0.15
0.21
0.26
0.33
0.41
0.45
0.45
0.33
0.29
0.21
0.10
0.10
0.02
0.06
0.06
0.02
0.06
0.06
0.06
0.06
0.02
0.02
0.06
0.02
0.02
0.02
0.06
0.06
0.06
0.15
0.21
0.15
0.15
0.10
0.10
0.02
0.06
0.02
0.02
0.02
0.00
0.06
0.06
0.02
0.33
0.83
1.00
0.87
0.49
0.65
0.54
0.48
0.39
0.06
0.00
0.01
0.01
0.01
0.00
0.00
0.01
0.00
0.02
0.00
0.00
0.00
0.02
0.02
0.02
0.02
0.06
0.02
0.06
0.10
0.15
0.15
0.26
0.33
0.41
0.53
0.53
0.53
0.45
0.41
0.29
0.21
0.15
0.10
0.06
0.06
0.06
0.02
0.02
0.02
0.06
0.02
0.00
0.02
0.02
0.00
0.02
0.02
0.02
0.02
0.02
0.06
0.15
0.10
0.06
0.06
0.06
0.02
0.02
0.00
0.00
0.00
0.00
0.02
0.06
0.02
0.33
0.83
0.99
0.83
0.49
0.70
0.54
0.51
0.39
0.06
0.01
0.06
0.06
0.01
0.01
0.01
0.01
0.06
0.01
0.00
0.00
0.01
0.01
0.00
0.01
0.00
0.02
0.00
0.02
0.10
0.15
0.15
0.21
0.29
0.41
0.45
0.45
0.41
0.33
0.26
0.15
0.10
0.06
0.02
0.02
0.00
0.02
0.00
0.00
0.00
0.00
0.00
0.00
0.00
0.02
0.02
0.00
0.00
0.02
0.02
0.06
0.10
0.21
0.10
0.10
0.06
0.06
0.06
0.02
0.00
0.02
0.02
0.00
0.06
0.06
0.02
0.58
0.87
0.99
0.82
0.49
0.58
0.49
0.48
0.39
0.01
0.00
0.00
0.01
0.01
0.00
0.00
0.00
0.00
0.02
0.00
0.00
0.02
0.02
0.02
0.02
0.02
0.10
0.06
0.06
0.10
0.15
0.21
0.29
0.41
0.45
0.53
0.53
0.53
0.41
0.33
0.26
0.21
0.15
0.06
0.06
0.02
0.02
0.02
0.02
0.02
0.02
0.02
0.02
0.02
0.02
0.00
0.00
0.06
0.06
0.02
0.06
0.15
0.15
0.10
0.10
0.06
0.06
0.02
0.00
0.00
0.00
0.00
0.00
0.02
0.06
0.02
0.33
0.83
0.89
0.83
0.48
0.65
0.51
0.48
0.39
0.06
0.00
0.00
0.01
0.01
0.00
0.01
0.00
0.01
0.00
0.00
0.01
0.00
0.02
0.02
0.00
0.02
0.02
0.02
0.02
0.06
0.15
0.15
0.21
0.26
0.33
0.45
0.45
0.41
0.33
0.26
0.15
0.10
0.06
0.02
0.00
0.00
0.02
0.00
0.00
0.00
0.02
0.01
0.01
0.00
0.00
0.00
0.01
0.00
0.00
0.00
0.00
0.02
0.15
0.06
0.06
0.06
0.02
0.02
0.00
0.00
0.02
0.01
0.01
0.00
0.02
0.00
0.15
0.81
0.90
0.88
0.11
0.65
0.54
0.51
0.49
0.19
0.01
0.06
0.06
0.06
0.06
0.06
0.06
0.06
0.01
0.01
0.06
0.06
0.01
0.01
0.06
0.01
0.00
0.01
0.01
0.00
0.00
0.02
0.06
0.06
0.21
0.26
0.29
0.41
0.33
0.26
0.15
0.10
0.06
0.02
0.00
0.01
0.01
0.01
0.06
0.06
0.01
0.06
0.06
0.06
0.06
0.06
0.06
0.06
0.06
0.06
0.06
0.06
0.00
0.02
0.01
0.01
0.01
0.06
0.06
0.06
0.11
0.11
0.11
0.11
0.06
0.06
0.11
0.10
0.83
0.99
0.85
0.54
0.84
0.70
0.58
0.51
0.39
0.39
0.39
0.30
0.30
0.30
0.30
0.30
0.30
0.30
0.19
0.19
0.19
0.19
0.19
0.19
0.19
0.19
0.11
0.06
0.06
0.06
0.01
0.00
0.06
0.10
0.21
0.29
0.26
0.21
0.10
0.06
0.02
0.00
0.06
0.06
0.01
0.11
0.11
0.11
0.06
0.11
0.11
0.11
0.06
0.11
0.11
0.11
0.11
0.11
0.06
0.06
0.01
0.00
0.00
0.00
0.00
0.01
0.01
0.11
0.06
0.11
0.11
0.11
0.06
0.06
0.01
0.06
0.41
0.87
0.99
0.82
0.75
0.80
0.65
0.54
0.45
0.30
0.19
0.19
0.19
0.11
0.11
0.11
0.11
0.11
0.11
0.11
0.19
0.11
0.19
0.11
0.11
0.11
0.11
0.06
0.01
0.01
0.00
0.06
0.10
0.15
0.26
0.33
0.33
0.29
0.21
0.15
0.06
0.00
0.00
0.01
0.01
0.06
0.06
0.06
0.06
0.06
0.06
0.06
0.01
0.06
0.06
0.01
0.01
0.06
0.06
0.01
0.01
0.00
0.02
0.06
0.02
0.00
0.00
0.00
0.00
0.00
0.06
0.06
0.00
0.01
0.01
0.00
0.00
0.29
0.84
0.95
0.85
0.51
0.80
0.65
0.49
0.48
0.30
0.19
0.11
0.11
0.11
0.11
0.11
0.11
0.11
0.11
0.06
0.11
0.11
0.06
0.06
0.06
0.06
0.06
0.01
0.00
0.00
0.00
0.02
0.10
0.15
0.26
0.33
0.41
0.41
0.33
0.26
0.21
0.10
0.02
0.02
0.00
0.01
0.01
0.06
0.01
0.01
0.06
0.06
0.06
0.06
0.06
0.06
0.06
0.06
0.11
0.01
0.01
0.06
0.01
0.02
0.06
0.02
0.02
0.02
0.01
0.01
0.01
0.01
0.06
0.06
0.01
0.00
0.01
0.01
0.06
0.82
0.93
0.87
0.26
0.84
0.70
0.58
0.51
0.39
0.19
0.19
0.11
0.06
0.19
0.11
0.11
0.11
0.11
0.11
0.11
0.11
0.11
0.19
0.11
0.06
0.06
0.06
0.06
0.01
0.02
0.02
0.06
0.15
0.21
0.33
0.41
0.41
0.33
0.26
0.21
0.10
0.02
0.00
0.00
0.00
0.01
0.06
0.06
0.06
0.06
0.06
0.06
0.01
0.06
0.11
0.06
0.06
0.06
0.11
0.11
0.01
0.06
0.01
0.00
0.02
0.00
0.00
0.01
0.00
0.01
0.06
0.06
0.11
0.11
0.11
0.06
0.01
0.06
0.21
0.84
0.96
0.85
0.54
0.84
0.70
0.58
0.49
0.30
0.19
0.19
0.19
0.11
0.11
0.19
0.19
0.11
0.19
0.19
0.11
0.11
0.11
0.06
0.11
0.11
0.06
0.06
0.06
0.01
0.02
0.02
0.06
0.10
0.21
0.29
0.33
0.33
0.33
0.21
0.10
0.06
0.00
0.01
0.06
0.06
0.06
0.11
0.11
0.11
0.11
0.11
0.11
0.11
0.06
0.11
0.11
0.11
0.11
0.11
0.11
0.11
0.01
0.01
0.00
0.02
0.00
0.02
0.01
0.01
0.01
0.01
0.11
0.11
0.06
0.01
0.01
0.01
0.00
0.45
0.85
0.91
0.82
0.65
0.70
0.54
0.51
0.49
0.19
0.11
0.11
0.11
0.11
0.11
0.06
0.06
0.06
0.06
0.06
0.06
0.06
0.06
0.01
0.01
0.01
0.00
0.00
0.02
0.02
0.06
0.15
0.21
0.26
0.29
0.41
0.45
0.33
0.29
0.21
0.15
0.06
0.02
0.02
0.00
0.02
0.01
0.00
0.00
0.00
0.00
0.00
0.01
0.00
0.00
0.00
0.01
0.00
0.00
0.00
0.02
0.00
0.02
0.10
0.06
0.10
0.10
0.06
0.02
0.00
0.00
0.00
0.00
0.00
0.00
0.02
0.02
0.02
0.68
0.88
0.89
0.72
0.65
0.58
0.51
0.48
0.30
0.01
0.01
0.01
0.01
0.01
0.00
0.01
0.00
0.00
0.00
0.00
0.00
0.00
0.02
0.02
0.02
0.06
0.02
0.06
0.06
0.02
0.10
0.15
0.21
0.29
0.33
0.41
0.53
0.45
0.41
0.29
0.26
0.21
0.10
0.10
0.06
0.06
0.06
0.02
0.06
0.10
0.02
0.06
0.06
0.06
0.06
0.06
0.02
0.06
0.06
0.06
0.06
0.10
0.10
0.15
0.15
0.15
0.10
0.06
0.10
0.06
0.02
0.02
0.02
0.06
0.02
0.06
0.10
0.10
0.72
0.88
0.95
0.79
0.54
0.54
0.48
0.45
0.19
0.00
0.00
0.00
0.00
0.00
0.00
0.00
0.00
0.00
0.00
0.02
0.00
0.00
0.02
0.02
0.02
0.02
0.02
0.02
0.02
0.06
0.06
0.15
0.21
0.26
0.33
0.45
0.53
0.45
0.41
0.33
0.21
0.21
0.10
0.10
0.06
0.02
0.06
0.06
0.06
0.02
0.02
0.06
0.02
0.02
0.02
0.02
0.02
0.02
0.02
0.06
0.06
0.10
0.21
0.15
0.15
0.10
0.10
0.10
0.06
0.02
0.02
0.06
0.02
0.06
0.06
0.10
0.10
0.78
0.91
0.91
0.71
0.70
0.54
0.48
0.45
0.11
0.01
0.01
0.00
0.01
0.01
0.00
0.00
0.01
0.00
0.00
0.00
0.00
0.00
0.00
0.00
0.00
0.00
0.00
0.02
0.02
0.02
0.10
0.15
0.21
0.21
0.29
0.41
0.45
0.45
0.41
0.29
0.21
0.15
0.10
0.06
0.06
0.06
0.06
0.02
0.02
0.02
0.06
0.02
0.02
0.02
0.06
0.02
0.02
0.02
0.02
0.02
0.06
0.06
0.15
0.15
0.10
0.10
0.06
0.06
0.06
0.02
0.02
0.02
0.02
0.02
0.02
0.06
0.02
0.68
0.88
0.99
0.78
0.70
0.65
0.49
0.48
0.19
0.01
0.01
0.06
0.01
0.01
0.01
0.01
0.01
0.00
0.00
0.01
0.00
0.00
0.00
0.00
0.02
0.02
0.02
0.02
0.06
0.10
0.15
0.15
0.26
0.33
0.45
0.53
0.45
0.45
0.33
0.29
0.21
0.15
0.10
0.06
0.06
0.06
0.02
0.06
0.06
0.06
0.02
0.06
0.02
0.06
0.02
0.02
0.02
0.06
0.06
0.02
0.06
0.10
0.15
0.21
0.15
0.21
0.10
0.10
0.10
0.06
0.06
0.02
0.06
0.06
0.10
0.10
0.06
0.65
0.88
1.00
0.84
0.51
0.65
0.49
0.45
0.30
0.01
0.00
0.00
0.02
0.00
0.02
0.00
0.00
0.02
0.02
0.02
0.02
0.02
0.02
0.02
0.02
0.06
0.06
0.06
0.10
0.10
0.15
0.21
0.29
0.33
0.45
0.58
0.58
0.53
0.41
0.29
0.26
0.15
0.10
0.10
0.10
0.06
0.06
0.02
0.06
0.06
0.02
0.06
0.10
0.06
0.06
0.06
0.02
0.06
0.06
0.06
0.10
0.10
0.15
0.26
0.15
0.21
0.15
0.10
0.15
0.06
0.02
0.06
0.10
0.10
0.10
0.10
0.15
0.41
0.83
0.93
0.86
0.30
0.49
0.49
0.39
0.30
0.06
0.02
0.06
0.02
0.02
0.02
0.02
0.02
0.02
0.02
0.02
0.02
0.02
0.02
0.06
0.02
0.06
0.06
0.10
0.10
0.10
0.15
0.21
0.26
0.33
0.41
0.45
0.58
0.53
0.45
0.41
0.26
0.21
0.15
0.10
0.06
0.02
0.02
0.06
0.02
0.02
0.02
0.02
0.02
0.02
0.02
0.06
0.00
0.00
0.00
0.00
0.06
0.02
0.06
0.15
0.10
0.06
0.06
0.06
0.06
0.02
0.00
0.00
0.00
0.00
0.02
0.02
0.02
0.06
0.81
0.88
0.88
0.11
0.65
0.49
0.51
0.48
0.19
0.01
0.06
0.01
0.06
0.06
0.06
0.06
0.11
0.01
0.06
0.01
0.01
0.01
0.01
0.06
0.01
0.00
0.01
0.01
0.00
0.00
0.02
0.06
0.10
0.21
0.26
0.33
0.33
0.29
0.21
0.15
0.06
0.06
0.00
0.00
0.01
0.01
0.01
0.01
0.01
0.00
0.01
0.01
0.01
0.01
0.06
0.06
0.06
0.01
0.01
0.01
0.01
0.00
0.02
0.02
0.02
0.02
0.00
0.01
0.06
0.06
0.11
0.11
0.11
0.06
0.01
0.01
0.06
0.53
0.88
0.92
0.72
0.75
0.70
0.58
0.49
0.49
0.30
0.19
0.19
0.19
0.19
0.19
0.19
0.19
0.19
0.19
0.11
0.11
0.11
0.11
0.11
0.11
0.11
0.06
0.06
0.06
0.06
0.01
0.00
0.02
0.06
0.15
0.26
0.33
0.29
0.26
0.21
0.10
0.06
0.00
0.00
0.00
0.01
0.06
0.06
0.06
0.06
0.06
0.06
0.01
0.06
0.06
0.01
0.01
0.01
0.06
0.01
0.00
0.02
0.06
0.02
0.02
0.00
0.01
0.01
0.01
0.06
0.01
0.06
0.01
0.01
0.00
0.00
0.68
0.87
0.91
0.71
0.70
0.65
0.54
0.48
0.19
0.11
0.11
0.11
0.06
0.06
0.06
0.06
0.01
0.06
0.06
0.01
0.01
0.01
0.01
0.06
0.01
0.01
0.01
0.01
0.01
0.01
0.00
0.02
0.10
0.10
0.21
0.29
0.33
0.29
0.21
0.15
0.15
0.02
0.02
0.00
0.01
0.01
0.06
0.01
0.01
0.01
0.06
0.01
0.01
0.01
0.01
0.01
0.00
0.01
0.01
0.00
0.00
0.02
0.06
0.06
0.06
0.00
0.00
0.00
0.00
0.01
0.06
0.06
0.01
0.00
0.00
0.00
0.15
0.82
0.99
0.87
0.21
0.84
0.70
0.54
0.48
0.19
0.11
0.11
0.06
0.11
0.11
0.06
0.06
0.06
0.11
0.06
0.01
0.06
0.06
0.06
0.06
0.01
0.01
0.01
0.00
0.00
0.00
0.06
0.15
0.15
0.26
0.29
0.45
0.53
0.33
0.29
0.21
0.10
0.06
0.06
0.02
0.00
0.00
0.00
0.00
0.00
0.01
0.00
0.01
0.00
0.01
0.00
0.01
0.01
0.01
0.00
0.02
0.00
0.02
0.10
0.06
0.06
0.02
0.00
0.00
0.01
0.06
0.01
0.01
0.00
0.01
0.00
0.00
0.66
0.87
0.99
0.78
0.84
0.84
0.58
0.51
0.39
0.11
0.11
0.06
0.11
0.11
0.11
0.06
0.06
0.11
0.06
0.06
0.11
0.11
0.06
0.01
0.06
0.06
0.06
0.01
0.01
0.01
0.02
0.06
0.10
0.15
0.26
0.33
0.33
0.33
0.26
0.21
0.10
0.02
0.02
0.00
0.01
0.01
0.01
0.01
0.01
0.06
0.01
0.06
0.06
0.06
0.01
0.01
0.06
0.06
0.06
0.06
0.06
0.00
0.02
0.06
0.00
0.00
0.00
0.01
0.01
0.01
0.06
0.06
0.06
0.06
0.01
0.01
0.01
0.71
0.88
0.94
0.75
0.80
0.80
0.65
0.54
0.49
0.30
0.11
0.19
0.19
0.19
0.19
0.19
0.11
0.11
0.11
0.11
0.11
0.11
0.11
0.06
0.11
0.06
0.01
0.01
0.01
0.02
0.02
0.06
0.10
0.21
0.33
0.41
0.41
0.33
0.29
0.15
0.06
0.02
0.00
0.01
0.06
0.01
0.01
0.06
0.06
0.06
0.06
0.06
0.06
0.06
0.06
0.11
0.06
0.06
0.06
0.01
0.01
0.00
0.02
0.00
0.00
0.00
0.00
0.01
0.06
0.11
0.06
0.06
0.06
0.06
0.00
0.06
0.33
0.85
0.96
0.83
0.65
0.80
0.58
0.54
0.48
0.30
0.11
0.11
0.11
0.19
0.11
0.11
0.11
0.11
0.06
0.11
0.06
0.01
0.01
0.01
0.01
0.00
0.00
0.00
0.00
0.02
0.10
0.10
0.21
0.26
0.33
0.41
0.45
0.41
0.33
0.26
0.10
0.06
0.02
0.02
0.02
0.00
0.02
0.00
0.00
0.00
0.00
0.00
0.00
0.00
0.00
0.00
0.00
0.02
0.02
0.02
0.02
0.02
0.15
0.10
0.06
0.06
0.06
0.02
0.02
0.02
0.02
0.00
0.00
0.02
0.02
0.02
0.15
0.82
0.90
0.88
0.19
0.58
0.51
0.48
0.45
0.11
0.00
0.00
0.00
0.00
0.00
0.00
0.00
0.02
0.06
0.00
0.02
0.02
0.02
0.02
0.06
0.02
0.06
0.10
0.06
0.15
0.15
0.21
0.26
0.33
0.45
0.45
0.53
0.58
0.53
0.33
0.29
0.26
0.21
0.15
0.10
0.10
0.10
0.06
0.10
0.06
0.10
0.10
0.10
0.10
0.06
0.06
0.10
0.06
0.10
0.10
0.10
0.15
0.21
0.26
0.21
0.21
0.21
0.15
0.10
0.10
0.10
0.10
0.06
0.10
0.15
0.15
0.10
0.41
0.85
0.99
0.84
0.48
0.49
0.48
0.45
0.19
0.02
0.06
0.02
0.02
0.06
0.02
0.02
0.06
0.06
0.06
0.02
0.06
0.06
0.06
0.06
0.06
0.10
0.10
0.06
0.10
0.15
0.15
0.21
0.26
0.33
0.41
0.53
0.58
0.63
0.53
0.45
0.33
0.29
0.21
0.15
0.15
0.15
0.10
0.10
0.10
0.10
0.10
0.06
0.06
0.10
0.06
0.10
0.06
0.06
0.06
0.06
0.10
0.21
0.26
0.21
0.21
0.21
0.15
0.15
0.06
0.10
0.06
0.06
0.06
0.10
0.15
0.10
0.15
0.75
0.88
0.99
0.78
0.54
0.54
0.48
0.39
0.06
0.02
0.00
0.00
0.02
0.02
0.02
0.02
0.02
0.02
0.00
0.02
0.02
0.02
0.02
0.02
0.06
0.02
0.06
0.06
0.06
0.10
0.15
0.21
0.29
0.29
0.41
0.53
0.53
0.45
0.41
0.29
0.29
0.21
0.10
0.10
0.06
0.10
0.06
0.06
0.10
0.06
0.06
0.06
0.06
0.02
0.06
0.06
0.10
0.10
0.06
0.10
0.21
0.21
0.21
0.15
0.21
0.15
0.10
0.10
0.10
0.02
0.06
0.06
0.15
0.10
0.10
0.45
0.85
1.00
0.88
0.15
0.65
0.54
0.48
0.30
0.06
0.00
0.00
0.00
0.02
0.01
0.00
0.00
0.02
0.00
0.00
0.02
0.02
0.00
0.00
0.02
0.02
0.02
0.02
0.06
0.06
0.10
0.10
0.21
0.26
0.29
0.41
0.53
0.58
0.45
0.41
0.29
0.26
0.15
0.10
0.10
0.10
0.06
0.06
0.06
0.06
0.02
0.06
0.06
0.06
0.02
0.06
0.06
0.06
0.06
0.06
0.10
0.15
0.15
0.21
0.21
0.21
0.15
0.10
0.06
0.10
0.06
0.06
0.06
0.06
0.10
0.15
0.10
0.73
0.88
0.99
0.79
0.58
0.58
0.51
0.49
0.06
0.00
0.00
0.02
0.02
0.00
0.00
0.02
0.06
0.02
0.00
0.06
0.02
0.02
0.02
0.02
0.06
0.06
0.06
0.06
0.10
0.10
0.15
0.26
0.33
0.33
0.45
0.58
0.58
0.58
0.53
0.41
0.41
0.29
0.21
0.15
0.10
0.10
0.10
0.10
0.15
0.10
0.06
0.10
0.10
0.06
0.06
0.10
0.10
0.10
0.06
0.06
0.15
0.10
0.15
0.26
0.26
0.21
0.15
0.15
0.15
0.10
0.10
0.06
0.10
0.10
0.10
0.15
0.10
0.41
0.84
0.99
0.88
0.19
0.58
0.51
0.49
0.30
0.00
0.02
0.02
0.02
0.02
0.02
0.02
0.02
0.02
0.02
0.06
0.02
0.02
0.02
0.02
0.02
0.06
0.06
0.10
0.10
0.15
0.15
0.26
0.29
0.33
0.45
0.58
0.63
0.58
0.53
0.41
0.33
0.26
0.15
0.21
0.10
0.06
0.10
0.06
0.06
0.06
0.02
0.06
0.06
0.02
0.06
0.02
0.02
0.02
0.02
0.06
0.06
0.02
0.06
0.10
0.21
0.15
0.10
0.10
0.06
0.02
0.06
0.02
0.02
0.02
0.02
0.10
0.06
0.02
0.63
0.88
0.99
0.78
0.70
0.65
0.49
0.48
0.30
0.01
0.01
0.01
0.01
0.01
0.01
0.01
0.01
0.01
0.01
0.01
0.01
0.01
0.01
0.01
0.01
0.01
0.01
0.00
0.02
0.06
0.10
0.10
0.21
0.29
0.33
0.41
0.45
0.41
0.29
0.15
0.06
0.06
0.00
0.01
0.01
0.00
0.01
0.06
0.06
0.06
0.01
0.01
0.01
0.01
0.06
0.06
0.06
0.06
0.06
0.06
0.01
0.00
0.00
0.02
0.02
0.02
0.00
0.00
0.01
0.01
0.06
0.06
0.11
0.11
0.06
0.01
0.01
0.10
0.79
0.88
0.88
0.01
0.75
0.70
0.58
0.49
0.45
0.11
0.19
0.19
0.06
0.19
0.06
0.06
0.11
0.30
0.11
0.11
0.01
0.11
0.01
0.01
0.01
0.00
0.01
0.02
0.06
0.02
0.06
0.02
0.06
0.10
0.26
0.29
0.26
0.21
0.15
0.06
0.00
0.01
0.01
0.06
0.11
0.11
0.11
0.01
0.11
0.11
0.11
0.06
0.11
0.11
0.06
0.06
0.11
0.11
0.11
0.06
0.06
0.00
0.02
0.00
0.01
0.01
0.01
0.06
0.11
0.11
0.06
0.11
0.19
0.11
0.11
0.06
0.00
0.73
0.88
0.87
0.45
0.80
0.70
0.54
0.49
0.49
0.30
0.19
0.19
0.19
0.19
0.11
0.11
0.19
0.11
0.11
0.11
0.11
0.06
0.06
0.06
0.06
0.01
0.01
0.01
0.01
0.01
0.00
0.02
0.06
0.15
0.26
0.29
0.33
0.29
0.26
0.15
0.10
0.02
0.02
0.00
0.00
0.01
0.00
0.01
0.01
0.01
0.00
0.01
0.01
0.01
0.01
0.00
0.01
0.01
0.00
0.01
0.01
0.00
0.02
0.06
0.06
0.06
0.02
0.00
0.00
0.01
0.01
0.01
0.01
0.00
0.00
0.00
0.01
0.63
0.88
0.99
0.82
0.65
0.65
0.54
0.51
0.39
0.11
0.06
0.11
0.06
0.06
0.06
0.11
0.06
0.06
0.06
0.06
0.06
0.01
0.06
0.06
0.06
0.06
0.01
0.06
0.01
0.00
0.00
0.02
0.06
0.10
0.15
0.26
0.33
0.33
0.29
0.26
0.15
0.15
0.06
0.02
0.02
0.02
0.00
0.01
0.00
0.01
0.00
0.01
0.01
0.00
0.00
0.01
0.01
0.00
0.00
0.00
0.02
0.06
0.10
0.06
0.06
0.02
0.00
0.00
0.00
0.00
0.01
0.01
0.01
0.00
0.00
0.00
0.06
0.80
0.93
0.87
0.33
0.80
0.65
0.49
0.49
0.19
0.11
0.11
0.11
0.06
0.06
0.11
0.06
0.06
0.06
0.06
0.06
0.06
0.06
0.11
0.06
0.01
0.06
0.06
0.01
0.00
0.00
0.02
0.10
0.15
0.15
0.26
0.29
0.33
0.29
0.21
0.21
0.10
0.02
0.00
0.00
0.01
0.01
0.01
0.01
0.06
0.01
0.06
0.06
0.06
0.06
0.06
0.06
0.01
0.06
0.01
0.06
0.01
0.00
0.02
0.06
0.02
0.02
0.01
0.01
0.06
0.06
0.06
0.11
0.01
0.01
0.06
0.01
0.00
0.74
0.88
0.89
0.66
0.84
0.75
0.65
0.49
0.39
0.19
0.30
0.19
0.19
0.19
0.19
0.19
0.19
0.19
0.19
0.19
0.19
0.30
0.19
0.19
0.19
0.19
0.19
0.11
0.11
0.06
0.01
0.00
0.06
0.15
0.21
0.29
0.29
0.26
0.10
0.06
0.00
0.01
0.01
0.06
0.11
0.11
0.19
0.19
0.11
0.19
0.19
0.11
0.19
0.19
0.11
0.11
0.11
0.19
0.11
0.11
0.11
0.06
0.00
0.02
0.01
0.01
0.06
0.01
0.11
0.11
0.11
0.11
0.19
0.11
0.06
0.06
0.06
0.33
0.88
0.98
0.81
0.84
0.84
0.70
0.58
0.51
0.30
0.30
0.19
0.19
0.19
0.19
0.30
0.19
0.19
0.19
0.19
0.19
0.19
0.11
0.11
0.19
0.11
0.11
0.06
0.11
0.06
0.00
0.02
0.06
0.15
0.21
0.29
0.33
0.33
0.26
0.15
0.06
0.02
0.00
0.01
0.01
0.06
0.06
0.06
0.06
0.06
0.06
0.06
0.11
0.06
0.06
0.06
0.06
0.06
0.01
0.06
0.01
0.00
0.00
0.02
0.06
0.02
0.00
0.00
0.01
0.00
0.01
0.06
0.06
0.06
0.01
0.01
0.01
0.15
0.82
0.96
0.89
0.02
0.80
0.70
0.54
0.48
0.30
0.11
0.11
0.06
0.06
0.06
0.06
0.06
0.01
0.01
0.06
0.06
0.06
0.01
0.01
0.01
0.00
0.00
0.00
0.02
0.06
0.06
0.10
0.21
0.26
0.29
0.41
0.45
0.45
0.41
0.33
0.26
0.21
0.06
0.06
0.02
0.02
0.00
0.00
0.00
0.00
0.00
0.00
0.00
0.00
0.00
0.00
0.01
0.00
0.00
0.00
0.02
0.02
0.06
0.06
0.15
0.21
0.10
0.06
0.06
0.06
0.02
0.02
0.00
0.06
0.02
0.02
0.02
0.06
0.15
0.78
0.88
0.87
0.33
0.58
0.49
0.49
0.49
0.11
0.01
0.00
0.00
0.01
0.00
0.00
0.02
0.00
0.02
0.02
0.02
0.02
0.02
0.02
0.02
0.02
0.06
0.10
0.06
0.10
0.10
0.21
0.26
0.26
0.33
0.53
0.58
0.53
0.41
0.33
0.26
0.21
0.15
0.15
0.06
0.02
0.02
0.06
0.02
0.02
0.06
0.06
0.02
0.00
0.02
0.02
0.02
0.02
0.02
0.06
0.02
0.06
0.06
0.10
0.15
0.10
0.10
0.10
0.10
0.06
0.00
0.00
0.00
0.02
0.02
0.02
0.06
0.02
0.26
0.82
0.91
0.83
0.48
0.54
0.48
0.49
0.30
0.06
0.00
0.01
0.00
0.02
0.00
0.01
0.00
0.00
0.02
0.02
0.00
0.02
0.00
0.02
0.06
0.02
0.02
0.06
0.06
0.10
0.10
0.10
0.21
0.26
0.33
0.41
0.45
0.45
0.33
0.29
0.21
0.15
0.10
0.06
0.06
0.06
0.02
0.06
0.02
0.06
0.06
0.06
0.06
0.06
0.02
0.02
0.06
0.06
0.02
0.06
0.06
0.10
0.10
0.15
0.21
0.15
0.15
0.10
0.10
0.10
0.06
0.02
0.06
0.06
0.06
0.06
0.10
0.10
0.29
0.83
0.96
0.88
0.30
0.58
0.51
0.45
0.30
0.01
0.00
0.00
0.00
0.00
0.00
0.02
0.02
0.00
0.00
0.00
0.02
0.02
0.02
0.02
0.02
0.02
0.00
0.02
0.02
0.02
0.06
0.10
0.15
0.21
0.26
0.33
0.45
0.53
0.53
0.41
0.33
0.26
0.21
0.15
0.10
0.10
0.06
0.10
0.06
0.06
0.10
0.06
0.06
0.06
0.06
0.10
0.06
0.06
0.06
0.06
0.10
0.10
0.15
0.26
0.21
0.15
0.10
0.15
0.10
0.06
0.06
0.06
0.06
0.06
0.10
0.10
0.06
0.29
0.83
1.00
0.88
0.19
0.58
0.51
0.49
0.39
0.01
0.02
0.00
0.00
0.00
0.02
0.02
0.02
0.02
0.02
0.02
0.02
0.02
0.06
0.02
0.02
0.02
0.06
0.06
0.06
0.10
0.10
0.15
0.21
0.26
0.33
0.45
0.53
0.53
0.53
0.41
0.29
0.29
0.21
0.15
0.15
0.10
0.10
0.06
0.06
0.06
0.15
0.06
0.06
0.10
0.10
0.06
0.10
0.10
0.10
0.10
0.10
0.15
0.15
0.26
0.26
0.21
0.26
0.21
0.21
0.15
0.15
0.10
0.10
0.10
0.15
0.10
0.15
0.15
0.68
0.88
1.00
0.82
0.49
0.54
0.48
0.45
0.06
0.02
0.02
0.02
0.02
0.02
0.02
0.02
0.02
0.02
0.02
0.06
0.06
0.02
0.06
0.02
0.06
0.06
0.06
0.10
0.10
0.15
0.15
0.21
0.29
0.33
0.41
0.53
0.63
0.58
0.53
0.41
0.33
0.26
0.21
0.15
0.15
0.10
0.15
0.10
0.10
0.10
0.10
0.10
0.10
0.10
0.06
0.06
0.10
0.06
0.06
0.10
0.15
0.10
0.15
0.21
0.26
0.21
0.15
0.10
0.15
0.06
0.06
0.02
0.06
0.02
0.06
0.10
0.10
0.15
0.78
0.90
0.94
0.73
0.70
0.58
0.51
0.45
0.11
0.00
0.01
0.01
0.01
0.00
0.00
0.01
0.01
0.01
0.01
0.00
0.00
0.00
0.00
0.00
0.01
0.00
0.02
0.00
0.02
0.06
0.15
0.15
0.26
0.29
0.41
0.45
0.45
0.41
0.29
0.21
0.15
0.10
0.02
0.00
0.01
0.01
0.00
0.02
0.02
0.02
0.00
0.00
0.00
0.02
0.06
0.15
0.82
0.99
0.88
0.53
0.84
0.70
0.49
0.49
0.19
0.06
0.06
0.06
0.11
0.06
0.06
0.06
0.06
0.06
0.06
0.06
0.01
0.06
0.01
0.06
0.01
0.01
0.00
0.00
0.00
0.02
0.10
0.10
0.15
0.21
0.21
0.15
0.10
0.02
0.00
0.06
0.11
0.11
0.11
0.11
0.19
0.11
0.11
0.19
0.19
0.19
0.11
0.11
0.19
0.11
0.06
0.11
0.11
0.19
0.11
0.11
0.19
0.11
0.11
0.11
0.06
0.11
0.06
0.06
0.11
0.11
0.06
0.06
0.06
0.11
0.06
0.06
0.06
0.06
0.06
0.01
0.00
0.02
0.00
0.02
0.00
0.01
0.01
0.06
0.06
0.01
0.01
0.00
0.02
0.76
0.88
0.87
0.41
0.65
0.58
0.49
0.51
0.39
0.06
0.11
0.11
0.11
0.11
0.11
0.06
0.11
0.11
0.11
0.11
0.06
0.11
0.06
0.11
0.11
0.01
0.01
0.06
0.01
0.00
0.06
0.10
0.21
0.29
0.33
0.45
0.58
0.63
0.53
0.41
0.29
0.26
0.10
0.02
0.02
0.00
0.00
0.01
0.06
0.01
0.01
0.01
0.01
0.06
0.06
0.06
0.01
0.01
0.06
0.06
0.06
0.06
0.11
0.06
0.11
0.06
0.11
0.06
0.06
0.11
0.06
0.06
0.01
0.00
0.02
0.02
0.00
0.00
0.00
0.01
0.06
0.01
0.01
0.06
0.00
0.00
0.00
0.02
0.81
0.88
0.88
0.19
0.70
0.49
0.49
0.48
0.30
0.06
0.06
0.11
0.06
0.06
0.06
0.06
0.06
0.01
0.06
0.06
0.06
0.06
0.06
0.06
0.06
0.01
0.06
0.06
0.06
0.01
0.01
0.01
0.00
0.06
0.06
0.21
0.26
0.29
0.26
0.15
0.10
0.06
0.00
0.00
0.00
0.01
0.01
0.06
0.00
0.00
0.01
0.06
0.01
0.01
0.01
0.01
0.01
0.01
0.06
0.06
0.01
0.06
0.01
0.01
0.00
0.02
0.06
0.06
0.02
0.02
0.00
0.00
0.01
0.01
0.06
0.01
0.01
0.01
0.00
0.01
0.10
0.83
0.99
0.87
0.49
0.75
0.58
0.49
0.49
0.19
0.11
0.11
0.11
0.11
0.11
0.11
0.11
0.06
0.11
0.11
0.11
0.11
0.06
0.11
0.06
0.06
0.11
0.06
0.06
0.06
0.01
0.00
0.02
0.10
0.15
0.21
0.29
0.29
0.29
0.21
0.15
0.06
0.02
0.00
0.01
0.06
0.01
0.06
0.06
0.01
0.06
0.06
0.06
0.11
0.06
0.06
0.06
0.06
0.11
0.06
0.06
0.01
0.01
0.00
0.02
0.00
0.01
0.01
0.01
0.06
0.11
0.11
0.11
0.06
0.11
0.06
0.06
0.06
0.72
0.88
0.92
0.72
0.85
0.84
0.70
0.58
0.49
0.39
0.30
0.30
0.39
0.30
0.30
0.30
0.30
0.30
0.30
0.30
0.30
0.30
0.39
0.19
0.19
0.19
0.19
0.19
0.11
0.11
0.06
0.01
0.00
0.02
0.10
0.21
0.21
0.21
0.10
0.06
0.00
0.01
0.06
0.06
0.11
0.19
0.19
0.19
0.19
0.19
0.19
0.11
0.11
0.19
0.19
0.11
0.11
0.19
0.11
0.06
0.11
0.11
0.06
0.00
0.00
0.01
0.01
0.01
0.06
0.06
0.11
0.19
0.19
0.11
0.11
0.06
0.11
0.11
0.63
0.88
0.95
0.77
0.84
0.84
0.75
0.58
0.48
0.30
0.30
0.30
0.39
0.19
0.19
0.30
0.19
0.19
0.19
0.30
0.30
0.11
0.19
0.19
0.19
0.11
0.19
0.11
0.11
0.01
0.01
0.02
0.06
0.10
0.21
0.26
0.33
0.29
0.29
0.21
0.10
0.02
0.00
0.01
0.01
0.06
0.06
0.11
0.06
0.06
0.06
0.06
0.11
0.06
0.06
0.06
0.11
0.06
0.11
0.06
0.06
0.01
0.06
0.00
0.06
0.02
0.02
0.00
0.00
0.02
0.01
0.01
0.06
0.06
0.06
0.06
0.00
0.00
0.02
0.78
0.91
0.88
0.53
0.84
0.70
0.54
0.48
0.30
0.11
0.06
0.11
0.11
0.11
0.06
0.06
0.06
0.11
0.06
0.06
0.06
0.01
0.01
0.01
0.01
0.01
0.01
0.00
0.00
0.02
0.10
0.15
0.21
0.26
0.29
0.41
0.41
0.41
0.33
0.26
0.15
0.10
0.06
0.02
0.00
0.00
0.02
0.00
0.00
0.01
0.00
0.00
0.00
0.01
0.00
0.00
0.00
0.00
0.00
0.00
0.00
0.02
0.06
0.06
0.15
0.10
0.10
0.06
0.06
0.02
0.02
0.00
0.00
0.00
0.00
0.00
0.02
0.02
0.26
0.82
0.94
0.87
0.45
0.58
0.54
0.51
0.45
0.19
0.06
0.01
0.01
0.01
0.01
0.06
0.00
0.00
0.01
0.00
0.00
0.00
0.00
0.02
0.02
0.02
0.02
0.02
0.06
0.06
0.10
0.15
0.26
0.26
0.33
0.41
0.45
0.45
0.45
0.29
0.29
0.15
0.06
0.06
0.02
0.00
0.02
0.02
0.02
0.02
0.00
0.00
0.02
0.02
0.00
0.00
0.02
0.00
0.00
0.00
0.00
0.02
0.00
0.00
0.10
0.10
0.06
0.06
0.06
0.00
0.00
0.00
0.02
0.00
0.00
0.00
0.02
0.02
0.10
0.78
0.88
0.88
0.15
0.65
0.54
0.51
0.48
0.19
0.00
0.01
0.01
0.01
0.01
0.01
0.01
0.00
0.00
0.01
0.00
0.00
0.00
0.00
0.00
0.01
0.02
0.02
0.00
0.06
0.02
0.06
0.06
0.15
0.26
0.33
0.41
0.45
0.41
0.33
0.26
0.15
0.15
0.06
0.06
0.02
0.02
0.02
0.02
0.02
0.06
0.02
0.02
0.02
0.02
0.02
0.02
0.02
0.06
0.02
0.02
0.02
0.06
0.06
0.15
0.15
0.15
0.10
0.06
0.06
0.02
0.02
0.02
0.02
0.02
0.02
0.02
0.02
0.02
0.21
0.82
0.93
0.87
0.21
0.65
0.49
0.48
0.45
0.06
0.01
0.00
0.01
0.01
0.01
0.00
0.01
0.01
0.00
0.00
0.00
0.01
0.00
0.00
0.00
0.00
0.00
0.02
0.00
0.02
0.00
0.06
0.10
0.15
0.26
0.33
0.45
0.45
0.53
0.41
0.29
0.21
0.15
0.15
0.10
0.06
0.02
0.06
0.06
0.06
0.02
0.06
0.02
0.06
0.02
0.02
0.02
0.02
0.00
0.02
0.06
0.02
0.10
0.10
0.15
0.15
0.15
0.15
0.06
0.06
0.06
0.02
0.02
0.02
0.02
0.06
0.06
0.02
0.26
0.84
1.00
0.88
0.39
0.65
0.49
0.49
0.39
0.06
0.01
0.01
0.00
0.02
0.00
0.00
0.00
0.00
0.00
0.00
0.02
0.02
0.00
0.00
0.00
0.02
0.00
0.02
0.02
0.06
0.10
0.10
0.15
0.26
0.29
0.41
0.45
0.58
0.45
0.33
0.29
0.21
0.15
0.10
0.06
0.10
0.06
0.02
0.02
0.06
0.02
0.06
0.02
0.06
0.06
0.06
0.06
0.06
0.06
0.06
0.06
0.15
0.15
0.21
0.21
0.21
0.10
0.15
0.10
0.15
0.10
0.02
0.06
0.06
0.06
0.10
0.10
0.29
0.82
1.00
0.87
0.26
0.70
0.54
0.48
0.30
0.11
0.01
0.00
0.00
0.00
0.00
0.00
0.00
0.00
0.01
0.02
0.00
0.00
0.00
0.02
0.02
0.02
0.00
0.02
0.02
0.06
0.10
0.15
0.21
0.21
0.33
0.45
0.58
0.53
0.45
0.45
0.41
0.26
0.15
0.10
0.06
0.06
0.06
0.06
0.06
0.06
0.02
0.02
0.02
0.02
0.02
0.02
0.02
0.02
0.00
0.02
0.02
0.02
0.06
0.06
0.21
0.15
0.10
0.10
0.06
0.06
0.06
0.06
0.06
0.02
0.02
0.02
0.06
0.06
0.15
0.81
0.95
0.87
0.29
0.70
0.58
0.51
0.49
0.06
0.00
0.01
0.06
0.01
0.01
0.01
0.06
0.06
0.00
0.06
0.06
0.06
0.01
0.01
0.01
0.06
0.00
0.01
0.00
0.00
0.00
0.06
0.06
0.15
0.26
0.29
0.33
0.41
0.33
0.26
0.15
0.10
0.02
0.00
0.01
0.01
0.01
0.06
0.06
0.01
0.01
0.06
0.06
0.06
0.01
0.06
0.06
0.06
0.06
0.06
0.01
0.01
0.01
0.00
0.06
0.02
0.02
0.00
0.01
0.01
0.01
0.06
0.06
0.11
0.06
0.06
0.01
0.01
0.06
0.82
0.96
0.88
0.06
0.84
0.75
0.58
0.49
0.39
0.30
0.30
0.19
0.19
0.30
0.19
0.19
0.30
0.30
0.19
0.19
0.19
0.30
0.19
0.19
0.19
0.19
0.11
0.06
0.06
0.01
0.00
0.02
0.06
0.15
0.21
0.29
0.33
0.29
0.21
0.10
0.00
0.01
0.06
0.06
0.06
0.11
0.11
0.19
0.11
0.11
0.11
0.11
0.11
0.11
0.19
0.11
0.11
0.11
0.11
0.06
0.11
0.06
0.01
0.00
0.00
0.01
0.01
0.06
0.06
0.06
0.11
0.11
0.19
0.11
0.19
0.06
0.11
0.00
0.79
0.90
0.88
0.41
0.84
0.80
0.70
0.54
0.45
0.39
0.30
0.39
0.30
0.19
0.30
0.30
0.30
0.19
0.19
0.19
0.30
0.19
0.19
0.19
0.11
0.11
0.11
0.06
0.06
0.00
0.00
0.02
0.10
0.15
0.26
0.29
0.29
0.26
0.10
0.02
0.02
0.01
0.06
0.11
0.11
0.06
0.19
0.19
0.19
0.19
0.19
0.19
0.19
0.11
0.19
0.19
0.19
0.19
0.19
0.19
0.11
0.06
0.01
0.00
0.01
0.06
0.06
0.06
0.06
0.11
0.19
0.19
0.19
0.19
0.11
0.11
0.11
0.21
0.83
0.92
0.83
0.58
0.84
0.75
0.65
0.51
0.39
0.39
0.39
0.39
0.39
0.39
0.30
0.19
0.39
0.30
0.19
0.30
0.30
0.30
0.19
0.19
0.19
0.19
0.11
0.11
0.06
0.06
0.00
0.02
0.06
0.15
0.26
0.26
0.21
0.15
0.10
0.06
0.00
0.06
0.11
0.11
0.19
0.19
0.19
0.11
0.19
0.19
0.19
0.19
0.19
0.19
0.19
0.11
0.19
0.19
0.19
0.11
0.11
0.19
0.01
0.01
0.06
0.11
0.11
0.11
0.19
0.19
0.30
0.19
0.30
0.30
0.19
0.11
0.19
0.06
0.82
0.88
0.83
0.65
0.84
0.75
0.70
0.54
0.45
0.30
0.30
0.39
0.30
0.30
0.39
0.30
0.30
0.19
0.30
0.30
0.30
0.19
0.19
0.30
0.30
0.19
0.19
0.11
0.11
0.06
0.06
0.00
0.02
0.10
0.21
0.21
0.21
0.10
0.02
0.01
0.01
0.06
0.11
0.19
0.19
0.30
0.30
0.30
0.30
0.19
0.19
0.30
0.30
0.30
0.30
0.30
0.30
0.19
0.30
0.19
0.19
0.11
0.06
0.11
0.11
0.06
0.19
0.19
0.19
0.30
0.30
0.39
0.30
0.19
0.19
0.30
0.19
0.58
0.88
0.88
0.68
0.84
0.84
0.80
0.70
0.49
0.45
0.45
0.45
0.39
0.45
0.45
0.45
0.45
0.45
0.45
0.45
0.39
0.45
0.45
0.45
0.45
0.45
0.39
0.39
0.30
0.39
0.30
0.19
0.11
0.06
0.00
0.06
0.15
0.10
0.06
0.00
0.01
0.11
0.19
0.19
0.19
0.39
0.30
0.30
0.30
0.39
0.39
0.39
0.30
0.30
0.39
0.39
0.30
0.39
0.39
0.30
0.30
0.19
0.19
0.06
0.11
0.19
0.19
0.30
0.30
0.39
0.39
0.39
0.39
0.39
0.39
0.30
0.30
0.00
0.83
0.96
0.85
0.70
0.86
0.84
0.70
0.58
0.49
0.45
0.49
0.49
0.49
0.45
0.45
0.45
0.49
0.45
0.45
0.49
0.45
0.45
0.45
0.45
0.45
0.39
0.39
0.39
0.39
0.30
0.11
0.11
0.06
0.00
0.06
0.10
0.10
0.10
0.10
0.01
0.06
0.11
0.19
0.30
0.30
0.30
0.30
0.30
0.39
0.30
0.30
0.30
0.30
0.30
0.19
0.30
0.19
0.30
0.19
0.19
0.11
0.06
0.02
0.06
0.06
0.11
0.11
0.11
0.19
0.19
0.11
0.19
0.19
0.11
0.11
0.11
0.00
0.81
0.95
0.89
0.06
0.85
0.80
0.58
0.49
0.39
0.19
0.19
0.30
0.30
0.30
0.19
0.30
0.30
0.19
0.19
0.19
0.19
0.11
0.19
0.19
0.19
0.11
0.11
0.11
0.11
0.01
0.00
0.02
0.10
0.21
0.26
0.29
0.29
0.21
0.15
0.06
0.02
0.02
0.01
0.01
0.06
0.06
0.06
0.06
0.06
0.01
0.06
0.06
0.06
0.06
0.01
0.06
0.06
0.01
0.01
0.06
0.00
0.02
0.06
0.02
0.02
0.02
0.00
0.00
0.00
0.01
0.06
0.06
0.01
0.00
0.00
0.00
0.10
0.81
0.95
0.88
0.63
0.84
0.75
0.58
0.48
0.30
0.11
0.11
0.11
0.06
0.11
0.11
0.11
0.11
0.06
0.06
0.06
0.06
0.01
0.06
0.01
0.06
0.06
0.01
0.01
0.00
0.02
0.02
0.10
0.21
0.21
0.29
0.41
0.45
0.41
0.29
0.26
0.15
0.06
0.00
0.01
0.00
0.01
0.06
0.01
0.01
0.01
0.01
0.06
0.01
0.00
0.01
0.01
0.06
0.01
0.06
0.01
0.00
0.02
0.00
0.10
0.06
0.06
0.02
0.00
0.02
0.01
0.01
0.01
0.06
0.01
0.01
0.00
0.02
0.29
0.84
1.00
0.84
0.70
0.84
0.65
0.49
0.45
0.19
0.11
0.11
0.11
0.11
0.11
0.06
0.11
0.11
0.11
0.06
0.06
0.11
0.11
0.06
0.01
0.06
0.01
0.01
0.01
0.00
0.02
0.10
0.15
0.21
0.29
0.41
0.45
0.41
0.33
0.29
0.21
0.10
0.02
0.02
0.00
0.00
0.00
0.00
0.00
0.01
0.01
0.00
0.01
0.01
0.00
0.00
0.00
0.01
0.00
0.02
0.01
0.00
0.02
0.15
0.10
0.02
0.02
0.00
0.00
0.00
0.01
0.01
