0.60
0.61
0.58
0.21
0.21
0.13
0.16
0.07
0.04
0.07
0.02
0.00
0.01
0.02
0.01
0.00
0.01
0.01
0.00
0.01
0.01
0.00
0.01
0.01
0.00
0.00
0.00
0.00
0.00
0.04
0.04
0.07
0.16
0.07
0.07
0.01
0.04
0.00
0.00
0.00
0.00
0.01
0.01
0.03
0.06
0.01
0.01
0.06
0.03
0.01
0.03
0.01
0.01
0.01
0.01
0.00
0.00
0.01
0.01
0.01
0.00
0.00
0.00
0.00
0.01
0.00
0.00
0.00
0.01
0.01
0.06
0.03
0.03
0.08
0.21
0.19
0.12
0.07
0.01
0.07
0.07
0.04
0.04
0.07
0.09
0.09
0.16
0.00
0.38
0.72
0.55
0.68
0.64
0.61
0.58
0.39
0.09
0.01
0.02
0.00
0.00
0.01
0.01
0.03
0.06
0.08
0.07
0.12
0.15
0.15
0.15
0.21
0.21
0.26
0.29
0.32
0.38
0.35
0.32
0.29
0.25
0.19
0.12
0.06
0.01
0.00
0.01
0.00
0.01
0.01
0.00
0.01
0.01
0.03
0.01
0.06
0.06
0.06
0.06
0.03
0.03
0.03
0.03
0.03
0.01
0.01
0.01
0.01
0.00
0.01
0.00
0.00
0.00
0.01
0.00
0.00
0.00
0.01
0.00
0.01
0.00
0.00
0.00
0.06
0.06
0.06
0.14
0.19
0.26
0.12
0.07
0.00
0.07
0.02
0.01
0.01
0.01
0.02
0.01
0.01
0.01
0.59
0.74
0.52
0.84
0.84
0.66
0.58
0.38
0.00
0.00
0.01
0.06
0.08
0.10
0.12
0.12
0.15
0.15
0.21
0.19
0.21
0.25
0.29
0.32
0.35
0.38
0.41
0.43
0.46
0.43
0.38
0.32
0.26
0.21
0.14
0.07
0.01
0.00
0.00
0.01
0.00
0.00
0.00
0.01
0.01
0.01
0.01
0.01
0.01
0.01
0.01
0.01
0.01
0.03
0.07
0.06
0.03
0.03
0.03
0.07
0.08
0.06
0.07
0.03
0.07
0.03
0.06
0.01
0.03
0.03
0.03
0.03
0.01
0.01
0.01
0.01
0.01
0.08
0.08
0.10
0.14
0.26
0.19
0.10
0.07
0.02
0.09
0.02
0.01
0.01
0.01
0.02
0.02
0.04
0.00
0.56
0.75
0.58
0.82
0.77
0.66
0.58
0.21
0.04
0.01
0.01
0.00
0.01
0.01
0.06
0.06
0.07
0.08
0.10
0.14
0.15
0.15
0.15
0.15
0.19
0.21
0.25
0.21
0.21
0.19
0.15
0.15
0.10
0.07
0.01
0.00
0.01
0.02
0.01
0.00
0.01
0.00
0.01
0.03
0.01
0.03
0.03
0.03
0.01
0.03
0.01
0.03
0.03
0.03
0.01
0.06
0.03
0.03
0.01
0.01
0.00
0.01
0.01
0.00
0.00
0.00
0.00
0.00
0.02
0.00
0.02
0.02
0.07
0.07
0.02
0.02
0.04
0.07
0.07
0.07
0.01
0.00
0.04
0.03
0.03
0.15
0.03
0.01
0.09
0.24
0.24
0.21
0.18
0.16
0.21
0.21
0.21
0.28
0.35
0.68
0.44
0.77
0.71
0.65
0.58
0.39
0.18
0.18
0.13
0.09
0.07
0.04
0.04
0.02
0.02
0.01
0.00
0.01
0.00
0.00
0.00
0.00
0.01
0.01
0.01
0.01
0.00
0.00
0.04
0.04
0.04
0.09
0.18
0.21
0.24
0.28
0.18
0.18
0.13
0.09
0.04
0.02
0.01
0.01
0.04
0.01
0.07
0.04
0.04
0.04
0.07
0.04
0.07
0.07
0.04
0.02
0.02
0.04
0.04
0.01
0.02
0.02
0.01
0.02
0.09
0.02
0.02
0.01
0.04
0.04
0.07
0.07
0.04
0.00
0.00
0.01
0.01
0.00
0.15
0.08
0.01
0.01
0.18
0.21
0.24
0.21
0.24
0.21
0.24
0.32
0.43
0.06
0.61
0.70
0.64
0.68
0.64
0.58
0.58
0.28
0.35
0.24
0.13
0.07
0.07
0.04
0.02
0.01
0.00
0.00
0.00
0.00
0.00
0.01
0.01
0.03
0.06
0.07
0.07
0.07
0.08
0.07
0.06
0.03
0.01
0.01
0.00
0.02
0.04
0.04
0.04
0.04
0.02
0.00
0.01
0.01
0.01
0.01
0.00
0.00
0.00
0.00
0.00
0.01
0.00
0.01
0.00
0.00
0.00
0.00
0.01
0.00
0.01
0.00
0.00
0.00
0.00
0.01
0.01
0.00
0.00
0.01
0.02
0.02
0.01
0.01
0.00
0.00
0.01
0.01
0.06
0.08
0.21
0.14
0.03
0.01
0.09
0.09
0.09
0.07
0.07
0.07
0.04
0.04
0.07
0.35
0.70
0.73
0.77
0.84
0.64
0.60
0.54
0.00
0.01
0.01
0.03
0.06
0.10
0.10
0.10
0.15
0.14
0.15
0.15
0.19
0.21
0.25
0.29
0.32
0.38
0.38
0.43
0.46
0.47
0.41
0.38
0.32
0.25
0.19
0.12
0.03
0.00
0.00
0.01
0.01
0.01
0.03
0.06
0.08
0.07
0.08
0.10
0.08
0.07
0.08
0.10
0.12
0.14
0.14
0.15
0.15
0.10
0.14
0.15
0.14
0.14
0.14
0.12
0.14
0.12
0.12
0.10
0.08
0.08
0.06
0.08
0.06
0.06
0.07
0.01
0.08
0.15
0.10
0.15
0.19
0.38
0.21
0.12
0.07
0.02
0.01
0.02
0.00
0.00
0.01
0.01
0.01
0.04
0.47
0.67
0.61
0.78
0.85
0.64
0.58
0.44
0.01
0.01
0.01
0.03
0.08
0.08
0.12
0.12
0.15
0.15
0.19
0.19
0.25
0.21
0.26
0.32
0.38
0.38
0.41
0.41
0.41
0.35
0.32
0.26
0.25
0.15
0.12
0.01
0.00
0.00
0.00
0.00
0.01
0.06
0.06
0.08
0.10
0.12
0.08
0.12
0.10
0.12
0.12
0.15
0.15
0.14
0.15
0.15
0.19
0.15
0.15
0.15
0.15
0.14
0.12
0.14
0.12
0.10
0.08
0.10
0.08
0.07
0.08
0.07
0.06
0.07
0.06
0.06
0.06
0.06
0.07
0.14
0.12
0.15
0.15
0.41
0.26
0.12
0.08
0.00
0.02
0.01
0.00
0.01
0.01
0.01
0.00
0.04
0.21
0.61
0.79
0.70
0.81
0.63
0.60
0.54
0.00
0.01
0.00
0.00
0.01
0.01
0.06
0.07
0.07
0.08
0.08
0.08
0.12
0.14
0.15
0.15
0.15
0.15
0.15
0.19
0.19
0.15
0.10
0.07
0.01
0.01
0.00
0.01
0.07
0.13
0.13
0.07
0.02
0.01
0.01
0.00
0.01
0.00
0.00
0.01
0.01
0.00
0.00
0.00
0.01
0.00
0.03
0.01
0.03
0.01
0.01
0.03
0.03
0.03
0.01
0.01
0.01
0.01
0.01
0.01
0.00
0.00
0.00
0.00
0.00
0.00
0.00
0.01
0.01
0.01
0.01
0.06
0.06
0.06
0.14
0.21
0.19
0.10
0.07
0.02
0.07
0.04
0.01
0.04
0.07
0.07
0.04
0.13
0.01
0.43
0.73
0.58
0.68
0.63
0.63
0.57
0.38
0.21
0.16
0.16
0.07
0.07
0.02
0.04
0.04
0.02
0.02
0.04
0.04
0.07
0.02
0.02
0.04
0.01
0.04
0.04
0.04
0.02
0.02
0.02
0.07
0.09
0.13
0.16
0.18
0.21
0.24
0.32
0.21
0.13
0.13
0.09
0.04
0.02
0.02
0.07
0.02
0.00
0.01
0.01
0.01
0.01
0.01
0.01
0.01
0.01
0.04
0.04
0.02
0.07
0.04
0.07
0.07
0.07
0.04
0.07
0.07
0.07
0.07
0.07
0.09
0.13
0.07
0.07
0.02
0.01
0.00
0.01
0.01
0.14
0.08
0.01
0.00
0.16
0.21
0.16
0.16
0.18
0.24
0.21
0.21
0.24
0.01
0.41
0.73
0.59
0.69
0.64
0.62
0.57
0.32
0.16
0.02
0.02
0.00
0.00
0.01
0.01
0.06
0.08
0.08
0.10
0.12
0.15
0.15
0.21
0.25
0.26
0.35
0.35
0.43
0.43
0.41
0.43
0.38
0.29
0.25
0.15
0.08
0.01
0.00
0.01
0.01
0.01
0.01
0.01
0.03
0.03
0.07
0.08
0.10
0.08
0.07
0.08
0.10
0.10
0.12
0.12
0.10
0.10
0.10
0.10
0.12
0.10
0.08
0.10
0.10
0.07
0.08
0.07
0.07
0.06
0.03
0.01
0.03
0.01
0.01
0.00
0.00
0.01
0.08
0.01
0.08
0.06
0.21
0.08
0.01
0.00
0.21
0.21
0.18
0.16
0.13
0.16
0.16
0.16
0.21
0.26
0.61
0.60
0.82
0.88
0.65
0.60
0.52
0.09
0.09
0.04
0.01
0.00
0.00
0.00
0.01
0.01
0.01
0.03
0.07
0.08
0.12
0.14
0.15
0.19
0.19
0.25
0.21
0.26
0.26
0.25
0.21
0.19
0.14
0.08
0.01
0.01
0.02
0.02
0.02
0.02
0.01
0.00
0.01
0.01
0.00
0.00
0.00
0.00
0.00
0.00
0.00
0.01
0.00
0.01
0.01
0.00
0.00
0.00
0.00
0.01
0.01
0.00
0.01
0.00
0.01
0.01
0.01
0.01
0.00
0.01
0.00
0.00
0.00
0.01
0.01
0.00
0.00
0.01
0.00
0.03
0.01
0.10
0.12
0.25
0.10
0.01
0.00
0.09
0.07
0.07
0.04
0.02
0.07
0.07
0.07
0.09
0.46
0.70
0.39
0.79
0.79
0.64
0.58
0.43
0.09
0.09
0.02
0.00
0.00
0.00
0.00
0.00
0.03
0.03
0.03
0.06
0.07
0.08
0.10
0.10
0.14
0.14
0.14
0.15
0.15
0.14
0.10
0.08
0.07
0.01
0.01
0.01
0.07
0.09
0.13
0.09
0.04
0.01
0.01
0.01
0.00
0.01
0.00
0.00
0.00
0.01
0.00
0.01
0.00
0.00
0.00
0.00
0.00
0.00
0.00
0.01
0.00
0.00
0.02
0.04
0.04
0.04
0.04
0.09
0.09
0.16
0.18
0.16
0.18
0.21
0.21
0.21
0.16
0.16
0.00
0.07
0.00
0.01
0.10
0.01
0.01
0.04
0.35
0.35
0.35
0.21
0.21
0.21
0.24
0.24
0.38
0.00
0.43
0.75
0.61
0.73
0.64
0.62
0.58
0.32
0.35
0.21
0.21
0.21
0.13
0.07
0.07
0.07
0.07
0.07
0.02
0.02
0.00
0.00
0.00
0.01
0.00
0.01
0.00
0.00
0.02
0.04
0.04
0.09
0.13
0.13
0.16
0.24
0.28
0.24
0.16
0.16
0.09
0.04
0.04
0.04
0.00
0.01
0.00
0.00
0.00
0.01
0.01
0.00
0.00
0.00
0.00
0.01
0.01
0.00
0.01
0.00
0.01
0.01
0.00
0.01
0.01
0.01
0.01
0.02
0.01
0.01
0.04
0.07
0.01
0.02
0.02
0.00
0.00
0.00
0.01
0.15
0.10
0.07
0.01
0.09
0.16
0.16
0.13
0.13
0.07
0.13
0.09
0.21
0.03
0.38
0.71
0.58
0.68
0.63
0.61
0.57
0.39
0.13
0.04
0.02
0.01
0.01
0.00
0.00
0.00
0.00
0.00
0.01
0.01
0.01
0.01
0.03
0.03
0.07
0.07
0.08
0.12
0.10
0.10
0.10
0.08
0.08
0.07
0.01
0.01
0.01
0.01
0.02
0.00
0.00
0.01
0.01
0.00
0.01
0.03
0.06
0.03
0.06
0.07
0.07
0.08
0.07
0.07
0.06
0.06
0.03
0.03
0.01
0.01
0.00
0.01
0.01
0.01
0.01
0.01
0.00
0.00
0.00
0.00
0.00
0.00
0.00
0.00
0.01
0.07
0.10
0.07
0.15
0.15
0.29
0.15
0.07
0.01
0.09
0.07
0.04
0.02
0.01
0.02
0.02
0.04
0.00
0.53
0.73
0.38
0.84
0.85
0.66
0.58
0.38
0.00
0.00
0.01
0.03
0.07
0.08
0.10
0.10
0.12
0.12
0.15
0.19
0.21
0.21
0.25
0.32
0.35
0.41
0.46
0.47
0.47
0.47
0.43
0.46
0.43
0.32
0.25
0.15
0.07
0.01
0.01
0.01
0.01
0.03
0.06
0.08
0.10
0.12
0.12
0.10
0.10
0.10
0.12
0.14
0.12
0.12
0.14
0.14
0.15
0.15
0.15
0.15
0.14
0.14
0.15
0.14
0.12
0.12
0.12
0.07
0.10
0.10
0.08
0.10
0.08
0.06
0.07
0.08
0.15
0.12
0.15
0.19
0.38
0.29
0.15
0.14
0.00
0.00
0.01
0.01
0.00
0.00
0.00
0.00
0.01
0.01
0.60
0.75
0.57
0.79
0.77
0.64
0.58
0.28
0.01
0.00
0.00
0.06
0.03
0.07
0.06
0.08
0.08
0.10
0.10
0.12
0.12
0.14
0.15
0.15
0.19
0.19
0.21
0.21
0.21
0.19
0.15
0.15
0.12
0.07
0.03
0.00
0.00
0.01
0.01
0.01
0.00
0.00
0.01
0.03
0.03
0.06
0.06
0.03
0.03
0.07
0.07
0.07
0.08
0.03
0.08
0.07
0.10
0.08
0.08
0.07
0.07
0.07
0.07
0.07
0.07
0.07
0.03
0.06
0.03
0.03
0.03
0.03
0.01
0.01
0.01
0.01
0.03
0.01
0.07
0.07
0.10
0.12
0.26
0.19
0.07
0.06
0.04
0.09
0.07
0.01
0.04
0.07
0.02
0.01
0.04
0.15
0.61
0.81
0.64
0.77
0.61
0.61
0.56
0.04
0.13
0.07
0.04
0.00
0.01
0.01
0.00
0.00
0.01
0.00
0.01
0.01
0.03
0.01
0.07
0.07
0.03
0.06
0.06
0.03
0.06
0.00
0.00
0.00
0.01
0.00
0.04
0.09
0.04
0.09
0.07
0.01
0.01
0.01
0.00
0.00
0.01
0.00
0.01
0.00
0.00
0.00
0.01
0.01
0.01
0.01
0.01
0.01
0.00
0.00
0.01
0.00
0.00
0.01
0.00
0.00
0.01
0.01
0.02
0.01
0.02
0.01
0.01
0.02
0.01
0.02
0.07
0.04
0.02
0.00
0.01
0.01
0.01
0.15
0.14
0.06
0.01
0.07
0.07
0.16
0.09
0.07
0.04
0.13
0.13
0.38
0.14
0.63
0.73
0.61
0.67
0.63
0.58
0.58
0.13
0.18
0.07
0.07
0.07
0.02
0.00
0.00
0.01
0.00
0.01
0.00
0.01
0.01
0.01
0.01
0.01
0.03
0.06
0.03
0.07
0.06
0.07
0.03
0.03
0.03
0.01
0.00
0.00
0.02
0.02
0.02
0.01
0.02
0.01
0.01
0.01
0.00
0.00
0.00
0.00
0.01
0.00
0.01
0.01
0.00
0.00
0.00
0.00
0.00
0.00
0.01
0.00
0.00
0.01
0.00
0.01
0.00
0.00
0.01
0.00
0.01
0.00
0.00
0.00
0.02
0.01
0.01
0.01
0.07
0.01
0.10
0.12
0.21
0.14
0.03
0.00
0.16
0.13
0.09
0.09
0.09
0.09
0.13
0.09
0.09
0.47
0.70
0.01
0.82
0.84
0.66
0.57
0.45
0.01
0.02
0.01
0.01
0.00
0.01
0.03
0.06
0.06
0.08
0.08
0.12
0.14
0.19
0.19
0.21
0.25
0.32
0.38
0.38
0.41
0.38
0.41
0.32
0.26
0.21
0.14
0.06
0.00
0.01
0.04
0.04
0.02
0.01
0.01
0.00
0.01
0.00
0.01
0.01
0.01
0.01
0.00
0.01
0.00
0.00
0.01
0.01
0.01
0.01
0.03
0.01
0.03
0.03
0.03
0.01
0.01
0.01
0.01
0.01
0.01
0.00
0.00
0.00
0.00
0.00
0.00
0.00
0.00
0.00
0.01
0.06
0.06
0.10
0.08
0.25
0.15
0.08
0.01
0.04
0.09
0.09
0.07
0.02
0.02
0.04
0.07
0.09
0.25
0.60
0.73
0.77
0.86
0.64
0.61
0.52
0.02
0.02
0.00
0.01
0.00
0.00
0.01
0.01
0.06
0.07
0.07
0.08
0.08
0.12
0.15
0.15
0.19
0.19
0.21
0.21
0.25
0.21
0.21
0.15
0.15
0.12
0.06
0.01
0.01
0.01
0.02
0.00
0.00
0.00
0.01
0.01
0.03
0.03
0.01
0.01
0.01
0.00
0.01
0.01
0.01
0.01
0.03
0.01
0.07
0.06
0.03
0.03
0.06
0.01
0.06
0.06
0.06
0.06
0.01
0.01
0.06
0.03
0.03
0.03
0.03
0.01
0.01
0.01
0.01
0.00
0.01
0.03
0.01
0.01
0.06
0.15
0.12
0.00
0.00
0.18
0.28
0.28
0.18
0.24
0.24
0.24
0.21
0.35
0.03
0.47
0.76
0.69
0.81
0.64
0.61
0.58
0.24
0.32
0.18
0.13
0.09
0.04
0.04
0.04
0.01
0.01
0.00
0.01
0.00
0.00
0.00
0.01
0.00
0.00
0.00
0.00
0.00
0.00
0.01
0.01
0.00
0.04
0.09
0.07
0.13
0.18
0.16
0.09
0.16
0.04
0.01
0.01
0.01
0.00
0.00
0.00
0.01
0.01
0.00
0.00
0.00
0.00
0.01
0.00
0.00
0.01
0.01
0.01
0.00
0.00
0.01
0.01
0.00
0.01
0.01
0.01
0.00
0.01
0.00
0.01
0.01
0.01
0.00
0.02
0.00
0.02
0.00
0.01
0.00
0.00
0.01
0.19
0.10
0.01
0.01
0.16
0.18
0.18
0.07
0.09
0.16
0.18
0.16
0.38
0.12
0.60
0.71
0.64
0.68
0.64
0.58
0.58
0.24
0.28
0.24
0.18
0.04
0.04
0.02
0.00
0.01
0.01
0.01
0.00
0.01
0.00
0.01
0.01
0.03
0.03
0.06
0.03
0.06
0.06
0.03
0.06
0.01
0.01
0.00
0.01
0.01
0.07
0.09
0.07
0.07
0.07
0.02
0.02
0.01
0.02
0.00
0.01
0.00
0.01
0.01
0.01
0.00
0.00
0.00
0.01
0.01
0.00
0.01
0.02
0.01
0.00
0.00
0.01
0.00
0.01
0.00
0.01
0.00
0.01
0.00
0.00
0.01
0.00
0.01
0.01
0.02
0.01
0.00
0.00
0.06
0.07
0.10
0.00
0.00
0.16
0.32
0.28
0.28
0.28
0.32
0.28
0.28
0.28
0.18
0.35
0.70
0.58
0.84
0.79
0.68
0.57
0.44
0.18
0.18
0.04
0.01
0.01
0.00
0.00
0.01
0.03
0.06
0.08
0.10
0.12
0.15
0.19
0.21
0.25
0.29
0.32
0.35
0.38
0.38
0.35
0.29
0.25
0.15
0.10
0.01
0.01
0.02
0.04
0.02
0.00
0.00
0.01
0.00
0.00
0.00
0.00
0.00
0.01
0.00
0.01
0.00
0.00
0.01
0.01
0.01
0.01
0.01
0.00
0.01
0.01
0.01
0.01
0.01
0.01
0.00
0.00
0.00
0.00
0.00
0.01
0.00
0.01
0.00
0.01
0.01
0.00
0.00
0.00
0.01
0.01
0.01
0.07
0.21
0.12
0.03
0.00
0.13
0.13
0.13
0.07
0.02
0.04
0.09
0.07
0.07
0.25
0.61
0.76
0.75
0.86
0.64
0.63
0.54
0.02
0.04
0.00
0.00
0.00
0.01
0.00
0.01
0.01
0.01
0.03
0.03
0.03
0.07
0.08
0.08
0.10
0.12
0.14
0.15
0.15
0.15
0.14
0.10
0.08
0.03
0.01
0.00
0.07
0.13
0.16
0.16
0.16
0.07
0.04
0.01
0.00
0.01
0.01
0.01
0.00
0.01
0.00
0.01
0.00
0.00
0.00
0.01
0.01
0.00
0.01
0.01
0.01
0.03
0.01
0.01
0.01
0.00
0.00
0.00
0.00
0.01
0.01
0.01
0.01
0.00
0.00
0.01
0.01
0.00
0.01
0.01
0.00
0.00
0.00
0.06
0.00
0.12
0.08
0.21
0.12
0.01
0.01
0.13
0.09
0.07
0.07
0.02
0.07
0.07
0.07
0.13
0.41
0.67
0.01
0.77
0.78
0.64
0.58
0.44
0.07
0.04
0.00
0.00
0.00
0.01
0.01
0.01
0.07
0.07
0.08
0.08
0.07
0.08
0.12
0.12
0.12
0.12
0.12
0.10
0.10
0.10
0.06
0.01
0.01
0.00
0.00
0.04
0.09
0.09
0.09
0.09
0.02
0.01
0.00
0.00
0.01
0.00
0.03
0.03
0.01
0.01
0.03
0.03
0.06
0.07
0.01
0.06
0.06
0.03
0.01
0.03
0.06
0.00
0.00
0.00
0.01
0.01
0.00
0.00
0.01
0.07
0.04
0.07
0.04
0.09
0.09
0.16
0.18
0.13
0.13
0.04
0.09
0.07
0.01
0.03
0.01
0.00
0.02
0.21
0.35
0.28
0.21
0.18
0.24
0.28
0.28
0.35
0.01
0.46
0.73
0.62
0.67
0.60
0.60
0.57
0.28
0.24
0.16
0.16
0.07
0.02
0.01
0.00
0.01
0.01
0.00
0.00
0.00
0.01
0.00
0.01
0.01
0.03
0.03
0.01
0.03
0.03
0.06
0.03
0.03
0.00
0.00
0.01
0.01
0.02
0.04
0.07
0.04
0.02
0.00
0.07
0.00
0.00
0.00
0.00
0.00
0.01
0.00
0.01
0.00
0.01
0.00
0.01
0.01
0.00
0.00
0.00
0.00
0.00
0.01
0.01
0.01
0.01
0.01
0.06
0.06
0.03
0.07
0.06
0.03
0.06
0.03
0.01
0.03
0.07
0.10
0.01
0.15
0.15
0.21
0.15
0.01
0.00
0.09
0.13
0.13
0.16
0.18
0.18
0.21
0.24
0.24
0.19
0.67
0.02
0.75
0.70
0.65
0.58
0.52
0.24
0.21
0.13
0.07
0.04
0.02
0.01
0.00
0.01
0.00
0.01
0.01
0.03
0.07
0.10
0.15
0.19
0.21
0.26
0.35
0.35
0.41
0.38
0.35
0.29
0.25
0.15
0.08
0.03
0.00
0.01
0.01
0.00
0.00
0.01
0.01
0.06
0.06
0.07
0.06
0.10
0.08
0.08
0.08
0.10
0.10
0.10
0.08
0.10
0.10
0.08
0.08
0.07
0.03
0.03
0.01
0.01
0.01
0.03
0.01
0.01
0.00
0.01
0.01
0.01
0.01
0.01
0.01
0.01
0.01
0.10
0.12
0.08
0.19
0.21
0.26
0.15
0.08
0.00
0.01
0.01
0.01
0.00
0.00
0.01
0.01
0.01
0.03
0.63
0.80
0.62
0.84
0.73
0.65
0.56
0.02
0.00
0.01
0.03
0.03
0.07
0.10
0.14
0.14
0.14
0.15
0.15
0.21
0.21
0.21
0.26
0.29
0.29
0.32
0.41
0.43
0.41
0.38
0.32
0.29
0.25
0.21
0.15
0.03
0.00
0.01
0.01
0.01
0.00
0.00
0.00
0.01
0.03
0.06
0.06
0.07
0.06
0.06
0.07
0.08
0.08
0.08
0.08
0.12
0.10
0.10
0.12
0.12
0.14
0.10
0.12
0.10
0.12
0.08
0.10
0.10
0.07
0.07
0.06
0.06
0.03
0.03
0.03
0.03
0.03
0.03
0.06
0.12
0.06
0.15
0.15
0.29
0.15
0.08
0.00
0.02
0.02
0.01
0.01
0.00
0.02
0.01
0.01
0.04
0.49
0.71
0.24
0.79
0.80
0.65
0.58
0.44
0.02
0.02
0.01
0.00
0.01
0.03
0.03
0.06
0.07
0.10
0.08
0.10
0.12
0.12
0.15
0.19
0.15
0.21
0.21
0.21
0.21
0.21
0.19
0.15
0.12
0.08
0.06
0.03
0.01
0.01
0.02
0.02
0.00
0.00
0.01
0.03
0.03
0.06
0.06
0.01
0.06
0.07
0.06
0.07
0.03
0.07
0.07
0.06
0.07
0.07
0.03
0.07
0.01
0.01
0.01
0.01
0.00
0.00
0.00
0.00
0.00
0.01
0.00
0.01
0.01
0.01
0.01
0.01
0.00
0.01
0.01
0.00
0.01
0.01
0.19
0.10
0.01
0.00
0.13
0.18
0.16
0.09
0.07
0.09
0.16
0.09
0.35
0.19
0.63
0.73
0.66
0.70
0.61
0.58
0.57
0.16
0.28
0.18
0.09
0.16
0.02
0.02
0.01
0.01
0.01
0.01
0.01
0.01
0.00
0.00
0.01
0.01
0.01
0.00
0.01
0.00
0.01
0.00
0.00
0.00
0.00
0.00
0.01
0.16
0.13
0.09
0.02
0.00
0.02
0.01
0.01
0.00
0.01
0.01
0.01
0.01
0.01
0.01
0.01
0.01
0.03
0.00
0.01
0.01
0.01
0.01
0.01
0.01
0.00
0.00
0.01
0.00
0.00
0.00
0.00
0.01
0.01
0.00
0.01
0.01
0.00
0.00
0.00
0.06
0.01
0.03
0.07
0.21
0.15
0.07
0.01
0.04
0.13
0.16
0.09
0.09
0.13
0.16
0.13
0.28
0.08
0.52
0.73
0.60
0.68
0.63
0.60
0.58
0.18
0.13
0.02
0.02
0.01
0.01
0.01
0.01
0.06
0.08
0.08
0.12
0.12
0.15
0.19
0.21
0.21
0.26
0.32
0.38
0.41
0.43
0.43
0.43
0.43
0.38
0.26
0.21
0.12
0.06
0.06
0.01
0.03
0.03
0.03
0.06
0.08
0.08
0.08
0.10
0.08
0.12
0.12
0.12
0.12
0.10
0.12
0.08
0.12
0.12
0.10
0.08
0.07
0.03
0.07
0.06
0.07
0.07
0.03
0.01
0.06
0.03
0.03
0.01
0.01
0.01
0.01
0.01
0.03
0.12
0.07
0.15
0.14
0.32
0.21
0.10
0.06
0.01
0.07
0.02
0.00
0.01
0.01
0.00
0.00
0.00
0.35
0.65
0.79
0.73
0.86
0.66
0.61
0.55
0.02
0.01
0.00
0.01
0.03
0.06
0.08
0.08
0.10
0.10
0.15
0.15
0.21
0.19
0.25
0.25
0.29
0.35
0.38
0.41
0.41
0.43
0.43
0.41
0.32
0.29
0.25
0.15
0.10
0.03
0.01
0.01
0.03
0.03
0.10
0.10
0.12
0.12
0.10
0.08
0.08
0.12
0.10
0.08
0.10
0.10
0.08
0.10
0.14
0.08
0.08
0.08
0.06
0.07
0.07
0.03
0.01
0.01
0.00
0.01
0.00
0.00
0.00
0.01
0.01
0.00
0.00
0.00
0.00
0.01
0.00
0.01
0.07
0.01
0.14
0.15
0.25
0.12
0.07
0.00
0.09
0.04
0.02
0.01
0.00
0.01
0.00
0.00
0.01
0.56
0.79
0.61
0.79
0.68
0.64
0.56
0.02
0.01
0.00
0.01
0.06
0.07
0.10
0.10
0.12
0.12
0.15
0.14
0.15
0.19
0.21
0.21
0.21
0.21
0.21
0.26
0.26
0.25
0.21
0.19
0.19
0.14
0.12
0.07
0.00
0.00
0.00
0.00
0.00
0.01
0.01
0.03
0.07
0.07
0.08
0.07
0.08
0.07
0.07
0.07
0.08
0.10
0.10
0.10
0.08
0.12
0.10
0.10
0.08
0.07
0.07
0.07
0.06
0.08
0.03
0.01
0.01
0.00
0.00
0.01
0.01
0.00
0.00
0.00
0.00
0.00
0.01
0.01
0.00
0.01
0.01
0.08
0.12
0.15
0.07
0.00
0.07
0.18
0.16
0.09
0.09
0.09
0.13
0.13
0.16
0.02
0.38
0.73
0.58
0.77
0.69
0.64
0.57
0.44
0.38
0.32
0.28
0.28
0.24
0.24
0.18
0.18
0.18
0.18
0.18
0.18
0.16
0.09
0.13
0.13
0.07
0.09
0.04
0.04
0.04
0.07
0.09
0.16
0.16
0.16
0.18
0.24
0.21
0.24
0.18
0.16
0.09
0.02
0.02
0.01
0.04
0.00
0.00
0.02
0.02
0.02
0.04
0.02
0.00
0.01
0.01
0.01
0.02
0.01
0.02
0.02
0.04
0.02
0.07
0.09
0.07
0.07
0.07
0.09
0.13
0.07
0.04
0.07
0.04
0.04
0.09
0.09
0.04
0.00
0.00
0.00
0.07
0.14
0.15
0.08
0.03
0.01
0.09
0.16
0.04
0.13
0.13
0.09
0.13
0.24
0.00
0.35
0.70
0.58
0.67
0.60
0.60
0.57
0.35
0.18
0.13
0.07
0.04
0.01
0.01
0.00
0.00
0.00
0.01
0.00
0.00
0.03
0.03
0.01
0.06
0.01
0.07
0.06
0.08
0.07
0.03
0.06
0.06
0.07
0.01
0.01
0.00
0.00
0.00
0.01
0.01
0.00
0.00
0.00
0.01
0.01
0.01
0.00
0.01
0.01
0.00
0.01
0.01
0.00
0.00
0.00
0.01
0.00
0.00
0.00
0.00
0.00
0.01
0.00
0.00
0.01
0.00
0.01
0.00
0.00
0.01
0.00
0.00
0.00
0.01
0.01
0.01
0.07
0.03
0.10
0.10
0.26
0.15
0.08
0.01
0.09
0.04
0.02
0.02
0.01
0.04
0.04
0.04
0.09
0.46
0.70
0.60
0.77
0.79
0.64
0.58
0.49
0.01
0.01
0.01
0.01
0.01
0.06
0.07
0.10
0.10
0.14
0.15
0.19
0.21
0.21
0.21
0.32
0.38
0.41
0.46
0.47
0.49
0.49
0.49
0.43
0.41
0.32
0.21
0.12
0.03
0.01
0.01
0.00
0.01
0.03
0.07
0.08
0.07
0.07
0.07
0.08
0.08
0.08
0.07
0.06
0.06
0.03
0.03
0.03
0.03
0.01
0.01
0.01
0.01
0.01
0.01
0.00
0.00
0.00
0.00
0.01
0.00
0.00
0.01
0.01
0.01
0.01
0.01
0.00
0.01
0.00
0.06
0.08
0.15
0.03
0.00
0.13
0.24
0.21
0.18
0.16
0.16
0.21
0.18
0.16
0.04
0.46
0.73
0.58
0.81
0.73
0.64
0.58
0.21
0.13
0.09
0.04
0.01
0.01
0.01
0.00
0.00
0.00
0.01
0.01
0.01
0.03
0.06
0.07
0.08
0.10
0.14
0.15
0.12
0.15
0.12
0.10
0.10
0.03
0.00
0.01
0.02
0.16
0.13
0.13
0.09
0.04
0.01
0.01
0.01
0.00
0.00
0.00
0.01
0.01
0.00
0.00
0.00
0.00
0.01
0.00
0.01
0.00
0.01
0.00
0.00
0.01
0.01
0.00
0.02
0.01
0.02
0.01
0.02
0.04
0.07
0.07
0.04
0.04
0.07
0.07
0.07
0.07
0.04
0.02
0.00
0.01
0.01
0.00
0.14
0.07
0.01
0.01
0.18
0.24
0.21
0.13
0.16
0.16
0.18
0.18
0.21
0.15
0.52
0.76
0.68
0.81
0.64
0.63
0.56
0.07
0.13
0.07
0.01
0.01
0.01
0.00
0.00
0.01
0.00
0.01
0.01
0.06
0.03
0.06
0.08
0.10
0.08
0.12
0.12
0.12
0.10
0.07
0.07
0.03
0.01
0.01
0.02
0.07
0.16
0.13
0.13
0.09
0.04
0.01
0.00
0.00
0.00
0.01
0.01
0.01
0.01
0.00
0.00
0.00
0.00
0.01
0.01
0.01
0.01
0.00
0.00
0.00
0.01
0.00
0.00
0.00
0.00
0.04
0.04
0.02
0.02
0.04
0.07
0.04
0.07
0.01
0.04
0.02
0.02
0.02
0.00
0.00
0.00
0.01
0.01
0.15
0.08
0.01
0.00
0.13
0.18
0.21
0.09
0.13
0.09
0.13
0.18
0.32
0.15
0.60
0.73
0.66
0.70
0.61
0.58
0.56
0.21
0.24
0.18
0.16
0.09
0.09
0.07
0.07
0.02
0.00
0.00
0.01
0.00
0.00
0.00
0.00
0.00
0.00
0.01
0.00
0.00
0.01
0.01
0.01
0.00
0.00
0.02
0.07
0.13
0.07
0.07
0.09
0.04
0.00
0.00
0.00
0.00
0.00
0.00
0.00
0.01
0.01
0.00
0.00
0.00
0.01
0.01
0.01
0.01
0.01
0.01
0.00
0.01
0.01
0.01
0.00
0.00
0.01
0.00
0.01
0.01
0.00
0.00
0.01
0.01
0.01
0.00
0.01
0.00
0.01
0.01
0.01
0.01
0.21
0.12
0.06
0.01
0.02
0.13
0.09
0.09
0.13
0.16
0.13
0.13
0.28
0.12
0.60
0.72
0.61
0.65
0.63
0.57
0.57
0.09
0.21
0.04
0.01
0.01
0.01
0.00
0.00
0.00
0.01
0.01
0.01
0.03
0.06
0.07
0.07
0.08
0.08
0.10
0.12
0.15
0.14
0.15
0.10
0.12
0.08
0.07
0.01
0.00
0.01
0.01
0.00
0.01
0.00
0.00
0.00
0.00
0.01
0.00
0.01
0.03
0.03
0.03
0.03
0.01
0.03
0.03
0.01
0.01
0.01
0.01
0.01
0.01
0.01
0.00
0.01
0.00
0.01
0.03
0.01
0.01
0.03
0.01
0.01
0.03
0.03
0.03
0.01
0.01
0.03
0.14
0.14
0.12
0.15
0.35
0.26
0.15
0.12
0.01
0.01
0.01
0.01
0.01
0.01
0.00
0.01
0.01
0.19
0.63
0.79
0.65
0.79
0.68
0.64
0.57
0.02
0.00
0.00
0.01
0.03
0.08
0.08
0.10
0.10
0.12
0.14
0.19
0.21
0.21
0.26
0.26
0.35
0.38
0.43
0.46
0.47
0.49
0.47
0.47
0.43
0.38
0.29
0.19
0.10
0.03
0.01
0.00
0.01
0.01
0.06
0.03
0.07
0.08
0.08
0.08
0.10
0.07
0.10
0.10
0.10
0.12
0.14
0.14
0.15
0.15
0.15
0.15
0.15
0.14
0.19
0.15
0.15
0.15
0.15
0.12
0.15
0.15
0.14
0.14
0.12
0.10
0.12
0.10
0.14
0.15
0.21
0.15
0.25
0.26
0.41
0.25
0.15
0.06
0.01
0.00
0.00
0.01
0.01
0.01
0.01
0.00
0.00
0.56
0.71
0.06
0.77
0.77
0.64
0.57
0.21
0.00
0.00
0.01
0.03
0.06
0.07
0.08
0.10
0.12
0.12
0.15
0.15
0.15
0.21
0.21
0.25
0.29
0.25
0.32
0.29
0.32
0.32
0.25
0.25
0.15
0.14
0.12
0.03
0.00
0.01
0.01
0.00
0.00
0.01
0.03
0.06
0.06
0.06
0.06
0.06
0.06
0.06
0.03
0.01
0.03
0.01
0.03
0.06
0.03
0.01
0.03
0.03
0.01
0.01
0.01
0.01
0.01
0.00
0.01
0.01
0.01
0.00
0.00
0.00
0.01
0.03
0.01
0.01
0.01
0.01
0.01
0.03
0.08
0.10
0.03
0.12
0.21
0.19
0.07
0.03
0.04
0.16
0.09
0.13
0.13
0.13
0.18
0.21
0.21
0.00
0.43
0.75
0.61
0.78
0.64
0.63
0.58
0.35
0.32
0.24
0.18
0.09
0.09
0.07
0.07
0.02
0.02
0.02
0.02
0.02
0.01
0.00
0.00
0.00
0.02
0.04
0.04
0.07
0.04
0.09
0.16
0.18
0.21
0.32
0.38
0.38
0.41
0.41
0.39
0.39
0.38
0.32
0.28
0.28
0.18
0.24
0.21
0.16
0.21
0.18
0.13
0.16
0.13
0.13
0.09
0.13
0.09
0.18
0.16
0.18
0.18
0.18
0.18
0.24
0.24
0.24
0.28
0.24
0.21
0.32
0.24
0.21
0.28
0.24
0.24
0.24
0.21
0.07
0.16
0.04
0.04
0.01
0.00
0.02
0.09
0.32
0.41
0.39
0.39
0.41
0.39
0.43
0.44
0.48
0.18
0.12
0.61
0.60
0.69
0.65
0.62
0.60
0.52
0.46
0.44
0.43
0.41
0.38
0.38
0.35
0.35
0.32
0.28
0.28
0.21
0.24
0.13
0.18
0.16
0.13
0.13
0.07
0.07
0.09
0.04
0.13
0.09
0.13
0.13
0.18
0.24
0.32
0.38
0.35
0.35
0.32
0.32
0.41
0.32
0.21
0.18
0.21
0.24
0.21
0.21
0.18
0.16
0.18
0.24
0.24
0.09
0.24
0.21
0.21
0.24
0.24
0.24
0.32
0.32
0.32
0.32
0.24
0.24
0.21
0.21
0.21
0.21
0.32
0.28
0.28
0.09
0.07
0.16
0.04
0.01
0.03
0.01
0.02
0.04
0.28
0.28
0.21
0.32
0.28
0.28
0.24
0.28
0.39
0.10
0.65
0.29
0.66
0.65
0.64
0.59
0.56
0.21
0.28
0.16
0.16
0.07
0.04
0.02
0.01
0.01
0.01
0.01
0.01
0.00
0.01
0.03
0.07
0.14
0.14
0.21
0.26
0.26
0.29
0.32
0.35
0.35
0.26
0.15
0.10
0.03
0.00
0.00
0.00
0.01
0.01
0.01
0.01
0.00
0.00
0.00
0.00
0.01
0.01
0.01
0.03
0.01
0.03
0.03
0.01
0.06
0.03
0.03
0.01
0.01
0.01
0.01
0.00
0.01
0.00
0.00
0.00
0.01
0.01
0.01
0.01
0.01
0.01
0.03
0.03
0.10
0.15
0.12
0.21
0.29
0.38
0.21
0.15
0.01
0.00
0.00
0.01
0.00
0.00
0.00
0.01
0.01
0.10
0.63
0.75
0.59
0.86
0.81
0.68
0.59
0.13
0.01
0.06
0.10
0.15
0.15
0.19
0.15
0.21
0.26
0.29
0.26
0.38
0.41
0.47
0.50
0.56
0.56
0.61
0.63
0.63
0.65
0.65
0.65
0.63
0.61
0.56
0.49
0.35
0.19
0.12
0.08
0.08
0.12
0.12
0.14
0.15
0.14
0.15
0.15
0.14
0.15
0.14
0.15
0.14
0.15
0.15
0.15
0.19
0.15
0.15
0.15
0.19
0.19
0.19
0.21
0.15
0.19
0.19
0.19
0.15
0.15
0.12
0.14
0.14
0.14
0.15
0.25
0.15
0.26
0.26
0.49
0.26
0.15
0.08
0.00
0.01
0.00
0.01
0.01
0.00
0.00
0.00
0.01
0.50
0.69
0.65
0.77
0.86
0.64
0.58
0.44
0.00
0.01
0.03
0.07
0.10
0.12
0.08
0.14
0.14
0.15
0.15
0.15
0.15
0.19
0.21
0.21
0.21
0.29
0.29
0.35
0.35
0.35
0.29
0.26
0.21
0.15
0.10
0.07
0.00
0.00
0.01
0.01
0.01
0.00
0.01
0.00
0.01
0.01
0.01
0.00
0.01
0.00
0.00
0.00
0.00
0.00
0.00
0.01
0.00
0.00
0.00
0.00
0.00
0.00
0.00
0.00
0.00
0.00
0.00
0.01
0.02
0.02
0.02
0.01
0.01
0.04
0.02
0.00
0.00
0.00
0.01
0.12
0.10
0.00
0.00
0.18
0.24
0.24
0.21
0.18
0.21
0.21
0.21
0.24
0.04
0.32
0.75
0.62
0.79
0.68
0.65
0.58
0.35
0.24
0.18
0.13
0.13
0.07
0.04
0.02
0.00
0.01
0.01
0.02
0.00
0.00
0.01
0.00
0.00
0.00
0.00
0.01
0.01
0.01
0.00
0.01
0.01
0.02
0.07
0.16
0.21
0.32
0.32
0.28
0.18
0.16
0.13
0.07
0.02
0.01
0.01
0.02
0.01
0.01
0.02
0.00
0.00
0.00
0.01
0.01
0.00
0.01
0.01
0.01
0.01
0.01
0.01
0.00
0.01
0.00
0.01
0.00
0.00
0.00
0.00
0.00
0.01
0.00
0.03
0.06
0.21
0.12
0.06
0.01
0.18
0.13
0.18
0.13
0.09
0.16
0.18
0.16
0.35
0.14
0.56
0.71
0.75
0.83
0.64
0.60
0.54
0.16
0.18
0.09
0.02
0.01
0.00
0.00
0.01
0.00
0.00
0.01
0.01
0.01
0.00
0.01
0.01
0.03
0.03
0.03
0.03
0.03
0.01
0.00
0.01
0.00
0.07
0.09
0.21
0.21
0.28
0.18
0.18
0.13
0.07
0.09
0.04
0.04
0.04
0.04
0.07
0.02
0.04
0.02
0.01
0.00
0.01
0.00
0.00
0.00
0.02
0.01
0.01
0.01
0.02
0.02
0.04
0.04
0.04
0.07
0.07
0.09
0.09
0.04
0.01
0.01
0.00
0.10
0.07
0.03
0.01
0.13
0.28
0.28
0.24
0.21
0.32
0.28
0.28
0.32
0.07
0.25
0.73
0.63
0.81
0.68
0.65
0.57
0.38
0.32
0.21
0.16
0.13
0.09
0.04
0.02
0.01
0.01
0.00
0.00
0.00
0.00
0.00
0.01
0.00
0.00
0.01
0.01
0.01
0.01
0.00
0.01
0.02
0.07
0.09
0.18
0.21
0.32
0.21
0.21
0.16
0.09
0.07
0.07
0.02
0.04
0.04
0.02
0.04
0.07
0.04
0.07
0.02
0.01
0.01
0.02
0.01
0.01
0.01
0.01
0.01
0.04
0.02
0.02
0.02
0.01
0.04
0.04
0.04
0.04
0.04
0.00
0.00
0.01
0.01
0.06
0.21
0.12
0.06
0.00
0.16
0.13
0.13
0.09
0.09
0.16
0.16
0.16
0.28
0.25
0.60
0.68
0.77
0.84
0.64
0.58
0.54
0.09
0.13
0.07
0.02
0.00
0.01
0.01
0.00
0.00
0.00
0.01
0.01
0.01
0.03
0.03
0.06
0.07
0.07
0.07
0.08
0.07
0.07
0.06
0.01
0.01
0.00
0.01
0.01
0.04
0.04
0.04
0.01
0.00
0.00
0.00
0.00
0.01
0.01
0.01
0.01
0.01
0.01
0.01
0.01
0.01
0.01
0.03
0.01
0.03
0.01
0.06
0.03
0.06
0.01
0.03
0.01
0.03
0.01
0.01
0.01
0.01
0.01
0.01
0.01
0.01
0.01
0.07
0.10
0.06
0.14
0.19
0.26
0.15
0.07
0.01
0.09
0.07
0.04
0.01
0.02
0.02
0.02
0.02
0.16
0.46
0.70
0.25
0.78
0.79
0.64
0.58
0.39
0.02
0.02
0.00
0.00
0.00
0.00
0.01
0.00
0.03
0.03
0.01
0.01
0.06
0.06
0.07
0.06
0.06
0.06
0.06
0.03
0.03
0.01
0.00
0.02
0.02
0.02
0.04
0.13
0.18
0.13
0.04
0.01
0.00
0.01
0.00
0.00
0.00
0.01
0.01
0.00
0.00
0.03
0.01
0.03
0.07
0.03
0.01
0.03
0.01
0.01
0.06
0.01
0.01
0.00
0.00
0.01
0.01
0.01
0.00
0.00
0.00
0.00
0.01
0.00
0.00
0.03
0.06
0.01
0.07
0.15
0.15
0.21
0.10
0.00
0.02
0.02
0.00
0.01
0.01
0.02
0.02
0.13
0.09
0.32
0.71
0.18
0.69
0.64
0.61
0.58
0.48
0.21
0.16
0.13
0.07
0.04
0.02
0.01
0.01
0.01
0.00
0.01
0.00
0.00
0.01
0.01
0.01
0.01
0.03
0.06
0.06
0.07
0.01
0.01
0.01
0.00
0.00
0.00
0.01
0.01
0.01
0.01
0.01
0.00
0.00
0.00
0.01
0.01
0.03
0.03
0.01
0.06
0.01
0.03
0.03
0.07
0.06
0.06
0.03
0.06
0.06
0.03
0.06
0.01
0.03
0.03
0.06
0.06
0.03
0.06
0.06
0.01
0.06
0.07
0.06
0.06
0.10
0.15
0.15
0.21
0.41
0.29
0.32
0.15
0.06
0.01
0.00
0.01
0.01
0.00
0.01
0.00
0.01
0.10
0.63
0.79
0.60
0.85
0.77
0.65
0.57
0.02
0.01
0.03
0.08
0.08
0.15
0.14
0.15
0.15
0.15
0.21
0.21
0.21
0.32
0.32
0.38
0.41
0.43
0.47
0.50
0.52
0.56
0.50
0.49
0.43
0.43
0.32
0.25
0.10
0.07
0.01
0.01
0.06
0.06
0.08
0.10
0.08
0.12
0.12
0.12
0.12
0.12
0.10
0.12
0.10
0.14
0.14
0.14
0.15
0.15
0.15
0.15
0.15
0.15
0.15
0.14
0.14
0.15
0.12
0.12
0.10
0.10
0.07
0.10
0.07
0.07
0.08
0.15
0.14
0.21
0.21
0.46
0.32
0.21
0.15
0.00
0.01
0.00
0.01
0.03
0.01
0.01
0.00
0.00
0.52
0.70
0.76
0.77
0.88
0.64
0.60
0.46
0.03
0.03
0.07
0.10
0.12
0.12
0.15
0.15
0.19
0.21
0.15
0.19
0.21
0.21
0.25
0.25
0.25
0.26
0.29
0.35
0.32
0.32
0.32
0.21
0.21
0.19
0.14
0.10
0.01
0.00
0.00
0.00
0.03
0.03
0.08
0.07
0.08
0.08
0.08
0.08
0.08
0.07
0.08
0.07
0.08
0.08
0.08
0.08
0.08
0.08
0.10
0.12
0.08
0.14
0.08
0.08
0.08
0.10
0.07
0.06
0.06
0.03
0.06
0.06
0.06
0.03
0.03
0.01
0.01
0.03
0.01
0.01
0.07
0.08
0.08
0.14
0.29
0.19
0.10
0.06
0.04
0.13
0.13
0.04
0.04
0.04
0.07
0.07
0.09
0.10
0.56
0.81
0.68
0.85
0.65
0.61
0.56
0.04
0.09
0.02
0.02
0.01
0.00
0.00
0.00
0.01
0.01
0.03
0.03
0.03
0.06
0.08
0.10
0.14
0.14
0.15
0.15
0.19
0.15
0.15
0.12
0.12
0.07
0.06
0.00
0.00
0.02
0.01
0.00
0.01
0.00
0.00
0.01
0.06
0.03
0.07
0.06
0.06
0.07
0.07
0.07
0.07
0.07
0.07
0.07
0.07
0.08
0.07
0.08
0.06
0.03
0.06
0.03
0.03
0.03
0.03
0.01
0.03
0.03
0.03
0.01
0.01
0.03
0.01
0.03
0.01
0.00
0.01
0.10
0.08
0.08
0.14
0.35
0.21
0.15
0.07
0.02
0.02
0.07
0.01
0.00
0.07
0.02
0.01
0.04
0.15
0.60
0.81
0.68
0.83
0.65
0.61
0.55
0.02
0.02
0.00
0.00
0.01
0.01
0.03
0.07
0.08
0.10
0.12
0.12
0.14
0.15
0.15
0.19
0.19
0.21
0.21
0.21
0.21
0.21
0.21
0.15
0.14
0.08
0.07
0.03
0.00
0.00
0.00
0.00
0.00
0.00
0.03
0.06
0.07
0.06
0.07
0.07
0.06
0.06
0.08
0.07
0.08
0.10
0.08
0.10
0.10
0.08
0.10
0.12
0.08
0.07
0.06
0.06
0.06
0.03
0.01
0.00
0.01
0.00
0.00
0.00
0.01
0.00
0.00
0.00
0.00
0.01
0.06
0.06
0.01
0.06
0.25
0.19
0.19
0.06
0.04
0.13
0.21
0.04
0.01
0.13
0.16
0.09
0.28
0.06
0.52
0.80
0.62
0.73
0.64
0.63
0.58
0.16
0.21
0.13
0.13
0.02
0.01
0.00
0.01
0.01
0.00
0.01
0.01
0.01
0.00
0.06
0.03
0.03
0.01
0.01
0.06
0.01
0.01
0.01
0.01
0.00
0.00
0.01
0.01
0.04
0.02
0.04
0.00
0.00
0.00
0.01
0.00
0.06
0.03
0.07
0.06
0.01
0.01
0.03
0.00
0.00
0.01
0.01
0.03
0.01
0.01
0.01
0.00
0.01
0.01
0.01
0.00
0.00
0.00
0.00
0.01
0.00
0.00
0.03
0.00
0.00
0.00
0.01
0.03
0.10
0.08
0.12
0.12
0.41
0.29
0.21
0.15
0.00
0.01
0.02
0.00
0.00
0.04
0.09
0.04
0.24
0.19
0.63
0.73
0.62
0.65
0.64
0.58
0.58
0.02
0.13
0.00
0.00
0.01
0.03
0.06
0.03
0.08
0.08
0.10
0.12
0.15
0.19
0.21
0.25
0.29
0.35
0.43
0.46
0.46
0.50
0.50
0.47
0.47
0.38
0.25
0.21
0.12
0.08
0.01
0.01
0.01
0.06
0.06
0.08
0.08
0.10
0.10
0.14
0.14
0.12
0.14
0.12
0.12
0.15
0.12
0.12
0.12
0.10
0.08
0.10
0.10
0.10
0.10
0.07
0.07
0.10
0.08
0.10
0.10
0.08
0.08
0.08
0.07
0.12
0.10
0.10
0.14
0.15
0.21
0.21
0.49
0.35
0.25
0.15
0.01
0.00
0.01
0.00
0.00
0.00
0.01
0.00
0.00
0.38
0.65
0.79
0.77
0.88
0.65
0.61
0.54
0.00
0.00
0.01
0.06
0.08
0.08
0.10
0.15
0.15
0.19
0.19
0.21
0.21
0.32
0.32
0.38
0.41
0.43
0.47
0.47
0.49
0.49
0.46
0.38
0.38
0.29
0.21
0.15
0.08
0.01
0.00
0.00
0.00
0.01
0.01
0.06
0.03
0.07
0.07
0.07
0.03
0.03
0.03
0.06
0.03
0.06
0.06
0.06
0.06
0.07
0.08
0.07
0.08
0.06
0.07
0.03
0.06
0.06
0.03
0.01
0.01
0.01
0.01
0.01
0.01
0.01
0.00
0.06
0.12
0.03
0.15
0.25
0.26
0.21
0.10
0.00
0.04
0.07
0.04
0.09
0.04
0.09
0.07
0.13
0.13
0.43
0.73
0.55
0.81
0.77
0.66
0.57
0.44
0.16
0.09
0.04
0.02
0.01
0.00
0.01
0.00
0.00
0.00
0.01
0.01
0.03
0.06
0.06
0.06
0.10
0.08
0.10
0.12
0.10
0.08
0.06
0.01
0.03
0.00
0.00
0.09
0.16
0.21
0.13
0.16
0.07
0.04
0.01
0.02
0.01
0.00
0.01
0.01
0.01
0.01
0.02
0.00
0.00
0.01
0.01
0.01
0.01
0.01
0.00
0.00
0.00
0.01
0.07
0.02
0.04
0.04
0.09
0.09
0.13
0.16
0.13
0.16
0.16
0.18
0.21
0.21
0.13
0.00
0.13
0.01
0.00
0.06
0.01
0.01
0.09
0.35
0.35
0.35
0.28
0.28
0.35
0.32
0.38
0.44
0.14
0.60
0.38
0.81
0.83
0.66
0.58
0.52
0.32
0.28
0.24
0.21
0.13
0.09
0.07
0.07
0.04
0.04
0.02
0.01
0.01
0.01
0.01
0.01
0.00
0.00
0.00
0.00
0.01
0.00
0.01
0.01
0.02
0.07
0.16
0.28
0.28
0.35
0.38
0.28
0.24
0.18
0.16
0.16
0.16
0.16
0.16
0.16
0.18
0.18
0.13
0.18
0.16
0.16
0.16
0.16
0.13
0.13
0.13
0.13
0.18
0.13
0.16
0.16
0.16
0.13
0.18
0.09
0.13
0.13
0.09
0.09
0.13
0.09
0.09
0.09
0.04
0.01
0.02
0.00
0.00
0.15
0.08
0.01
0.01
0.18
0.21
0.32
0.24
0.16
0.28
0.28
0.28
0.39
0.08
0.56
0.71
0.72
0.78
0.64
0.59
0.57
0.24
0.38
0.28
0.24
0.18
0.16
0.09
0.13
0.07
0.07
0.04
0.04
0.04
0.01
0.00
0.02
0.01
0.02
0.02
0.01
0.02
0.02
0.07
0.09
0.16
0.21
0.13
0.28
0.21
0.28
0.28
0.21
0.13
0.04
0.07
0.04
0.02
0.02
0.01
0.01
0.01
0.01
0.00
0.01
0.01
0.01
0.01
0.01
0.04
0.01
0.01
0.07
0.04
0.01
0.07
0.07
0.13
0.04
0.07
0.09
0.13
0.16
0.16
0.16
0.09
0.13
0.16
0.04
0.07
0.00
0.00
0.15
0.07
0.07
0.01
0.07
0.09
0.24
0.13
0.13
0.24
0.18
0.18
0.41
0.07
0.60
0.73
0.62
0.66
0.64
0.58
0.58
0.21
0.24
0.13
0.09
0.04
0.00
0.00
0.01
0.00
0.00
0.00
0.01
0.06
0.03
0.06
0.08
0.10
0.12
0.12
0.15
0.15
0.19
0.15
0.15
0.19
0.12
0.12
0.06
0.00
0.00
0.01
0.00
0.00
0.00
0.00
0.01
0.01
0.01
0.03
0.07
0.07
0.06
0.06
0.03
0.06
0.06
0.06
0.07
0.06
0.03
0.03
0.06
0.03
0.03
0.03
0.00
0.01
0.01
0.03
0.03
0.01
0.01
0.01
0.01
0.01
0.03
0.01
0.07
0.12
0.08
0.15
0.29
0.32
0.25
0.10
0.01
0.00
0.01
0.01
0.00
0.01
0.02
0.01
0.02
0.06
0.60
0.80
0.64
0.86
0.77
0.66
0.58
0.09
0.00
0.01
0.01
0.03
0.10
0.07
0.14
0.14
0.15
0.19
0.19
0.21
0.26
0.35
0.35
0.41
0.43
0.47
0.49
0.50
0.50
0.50
0.47
0.43
0.38
0.29
0.15
0.10
0.01
0.01
0.00
0.06
0.01
0.07
0.06
0.07
0.08
0.10
0.10
0.08
0.10
0.07
0.10
0.10
0.14
0.12
0.12
0.12
0.14
0.14
0.15
0.15
0.12
0.15
0.10
0.12
0.12
0.12
0.12
0.10
0.06
0.08
0.08
0.08
0.08
0.07
0.14
0.14
0.15
0.19
0.46
0.26
0.21
0.10
0.00
0.01
0.01
0.00
0.01
0.00
0.00
0.01
0.04
0.46
0.65
0.73
0.77
0.84
0.63
0.57
0.48
0.01
0.00
0.01
0.03
0.03
0.06
0.07
0.10
0.10
0.08
0.12
0.14
0.14
0.15
0.19
0.21
0.19
0.21
0.21
0.25
0.25
0.21
0.19
0.14
0.14
0.10
0.03
0.00
0.01
0.01
0.01
0.00
0.01
0.03
0.06
0.06
0.07
0.08
0.10
0.10
0.08
0.08
0.10
0.10
0.12
0.14
0.12
0.10
0.12
0.12
0.14
0.12
0.08
0.10
0.07
0.08
0.08
0.06
0.07
0.06
0.03
0.03
0.06
0.03
0.03
0.01
0.01
0.03
0.07
0.14
0.07
0.15
0.26
0.29
0.25
0.14
0.01
0.01
0.01
0.00
0.01
0.01
0.00
0.00
0.04
0.01
0.50
0.75
0.58
0.78
0.70
0.65
0.58
0.21
0.04
0.02
0.00
0.00
0.01
0.01
0.01
0.06
0.01
0.08
0.10
0.12
0.10
0.15
0.14
0.19
0.15
0.21
0.19
0.19
0.15
0.15
0.15
0.12
0.08
0.03
0.00
0.00
0.01
0.01
0.01
0.01
0.00
0.03
0.06
0.06
0.07
0.08
0.07
0.07
0.07
0.10
0.10
0.08
0.10
0.08
0.07
0.08
0.03
0.08
0.06
0.06
0.06
0.07
0.06
0.03
0.06
0.01
0.03
0.01
0.01
0.01
0.01
0.01
0.00
0.01
0.00
0.01
0.06
0.08
0.07
0.12
0.32
0.21
0.15
0.07
0.02
0.02
0.07
0.02
0.01
0.02
0.01
0.02
0.04
0.10
0.61
0.81
0.63
0.77
0.64
0.61
0.57
0.09
0.09
0.01
0.01
0.00
0.00
0.01
0.00
0.01
0.03
0.01
0.01
0.00
0.03
0.06
0.06
0.06
0.03
0.06
0.01
0.07
0.03
0.01
0.01
0.01
0.01
0.00
0.04
0.04
0.04
0.07
0.09
0.04
0.00
0.00
0.00
0.00
0.01
0.01
0.00
0.00
0.01
0.01
0.01
0.01
0.01
0.01
0.03
0.06
0.03
0.01
0.01
0.01
0.03
0.00
0.00
0.01
0.01
0.00
0.01
0.00
0.00
0.00
0.01
0.01
0.01
0.01
0.06
0.12
0.08
0.15
0.32
0.26
0.19
0.15
0.08
0.01
0.01
0.00
0.00
0.04
0.02
0.02
0.16
0.00
0.35
0.72
0.57
0.67
0.61
0.60
0.57
0.32
0.24
0.09
0.09
0.04
0.04
0.00
0.00
0.00
0.01
0.00
0.00
0.00
0.01
0.01
0.03
0.03
0.03
0.07
0.08
0.07
0.08
0.06
0.06
0.03
0.03
0.00
0.00
0.01
0.07
0.04
0.04
0.02
0.00
0.01
0.01
0.00
0.00
0.00
0.00
0.01
0.00
0.01
0.01
0.01
0.01
0.01
0.00
0.01
0.01
0.01
0.01
0.01
0.00
0.01
0.01
0.01
0.01
0.00
0.00
0.00
0.00
0.01
0.00
0.01
0.00
0.01
0.00
0.03
0.01
0.07
0.07
0.21
0.14
0.06
0.01
0.13
0.24
0.13
0.13
0.09
0.09
0.13
0.16
0.18
0.38
0.63
0.46
0.86
0.89
0.67
0.60
0.50
0.02
0.04
0.01
0.01
0.01
0.01
0.01
0.03
0.03
0.07
0.07
0.10
0.10
0.12
0.15
0.19
0.19
0.21
0.26
0.29
0.29
0.25
0.21
0.19
0.14
0.08
0.01
0.00
0.07
0.16
0.18
0.18
0.13
0.13
0.07
0.04
0.02
0.02
0.02
0.04
0.04
0.02
0.02
0.02
0.02
0.04
0.00
0.01
0.00
0.01
0.00
0.00
0.00
0.01
0.01
0.01
0.00
0.01
0.01
0.00
0.00
0.00
0.01
0.02
0.00
0.00
0.01
0.01
0.01
0.00
0.07
0.15
0.19
0.08
0.00
0.09
0.18
0.16
0.09
0.07
0.13
0.16
0.16
0.18
0.09
0.41
0.72
0.58
0.84
0.79
0.67
0.58
0.44
0.24
0.18
0.13
0.04
0.02
0.02
0.02
0.01
0.00
0.00
0.00
0.00
0.00
0.00
0.01
0.01
0.03
0.06
0.06
0.07
0.08
0.06
0.03
0.01
0.01
0.01
0.02
0.07
0.09
0.13
0.13
0.09
0.02
0.00
0.01
0.00
0.00
0.01
0.00
0.00
0.00
0.01
0.01
0.00
0.00
0.00
0.00
0.00
0.00
0.00
0.00
0.00
0.00
0.00
0.00
0.00
0.00
0.01
0.01
0.02
0.02
0.07
0.07
0.07
0.02
0.02
0.07
0.07
0.09
0.04
0.01
0.00
0.00
0.00
0.12
0.06
0.01
0.01
0.35
0.35
0.35
0.32
0.24
0.21
0.28
0.24
0.32
0.01
0.41
0.75
0.64
0.83
0.68
0.64
0.58
0.38
0.32
0.21
0.21
0.13
0.09
0.07
0.07
0.02
0.02
0.01
0.01
0.00
0.01
0.01
0.01
0.06
0.07
0.08
0.07
0.07
0.07
0.07
0.03
0.03
0.00
0.00
0.07
0.09
0.13
0.16
0.13
0.09
0.04
0.02
0.00
0.01
0.01
0.01
0.01
0.01
0.00
0.00
0.00
0.00
0.01
0.00
0.00
0.01
0.01
0.00
0.00
0.00
0.01
0.00
0.01
0.01
0.01
0.01
0.02
0.02
0.01
0.04
0.02
0.02
0.09
0.07
0.07
0.04
0.00
0.01
0.02
0.01
0.07
0.12
0.01
0.00
0.21
0.32
0.24
0.24
0.21
0.21
0.24
0.18
0.24
0.07
0.38
0.75
0.61
0.77
0.66
0.63
0.58
0.32
0.28
0.18
0.13
0.04
0.07
0.09
0.01
0.00
0.01
0.01
0.00
0.00
0.00
0.01
0.01
0.01
0.01
0.01
0.03
0.01
0.00
0.01
0.01
0.02
0.02
0.02
0.07
0.13
0.16
0.16
0.07
0.00
0.00
0.00
0.00
0.00
0.01
0.00
0.01
0.00
0.00
0.01
0.00
0.00
0.00
0.01
0.00
0.00
0.01
0.00
0.01
0.00
0.00
0.00
0.00
0.01
0.01
0.01
0.01
0.02
0.00
0.01
0.02
0.01
0.02
0.01
0.02
0.01
0.02
0.00
0.06
0.01
0.03
0.08
0.25
0.15
0.12
0.03
0.01
0.09
0.07
0.04
0.09
0.07
0.18
0.13
0.24
0.01
0.26
0.70
0.58
0.68
0.61
0.61
0.58
0.44
0.24
0.13
0.16
0.04
0.02
0.02
0.01
0.01
0.00
0.01
0.00
0.01
0.01
0.06
0.06
0.10
0.10
0.12
0.12
0.15
0.15
0.15
0.15
0.14
0.10
0.07
0.03
0.00
0.00
0.00
0.00
0.01
0.00
0.01
0.01
0.03
0.03
0.03
0.08
0.07
0.08
0.10
0.10
0.08
0.08
0.10
0.10
0.08
0.07
0.08
0.07
0.08
0.07
0.07
0.07
0.07
0.08
0.06
0.08
0.06
0.08
0.07
0.06
0.07
0.07
0.06
0.06
0.06
0.06
0.06
0.07
0.15
0.12
0.19
0.19
0.41
0.26
0.19
0.12
0.01
0.00
0.01
0.00
0.00
0.00
0.00
0.00
0.00
0.32
0.65
0.79
0.77
0.88
0.64
0.62
0.54
0.01
0.00
0.01
0.03
0.07
0.10
0.08
0.12
0.12
0.15
0.19
0.21
0.21
0.21
0.26
0.26
0.32
0.43
0.43
0.43
0.46
0.46
0.43
0.41
0.35
0.25
0.19
0.12
0.06
0.01
0.00
0.00
0.00
0.01
0.06
0.08
0.08
0.08
0.08
0.07
0.07
0.07
0.08
0.10
0.08
0.08
0.08
0.12
0.12
0.12
0.12
0.14
0.12
0.12
0.12
0.10
0.08
0.08
0.07
0.07
0.07
0.06
0.06
0.06
0.03
0.03
0.01
0.03
0.01
0.12
0.08
0.08
0.15
0.29
0.26
0.15
0.08
0.01
0.01
0.01
0.01
0.00
0.00
0.01
0.01
0.00
0.08
0.61
0.80
0.62
0.80
0.68
0.64
0.57
0.13
0.01
0.00
0.00
0.01
0.01
0.03
0.06
0.07
0.10
0.08
0.12
0.10
0.14
0.15
0.21
0.21
0.21
0.21
0.21
0.25
0.21
0.21
0.15
0.12
0.08
0.06
0.01
0.01
0.01
0.01
0.01
0.00
0.01
0.01
0.06
0.07
0.07
0.08
0.07
0.07
0.07
0.08
0.07
0.07
0.08
0.08
0.08
0.10
0.08
0.12
0.12
0.10
0.10
0.10
0.08
0.08
0.08
0.07
0.07
0.03
0.03
0.03
0.06
0.03
0.03
0.03
0.03
0.03
0.06
0.06
0.03
0.07
0.06
0.14
0.08
0.15
0.15
0.29
0.21
0.10
0.07
0.02
0.02
0.04
0.01
0.01
0.00
0.01
0.00
0.02
0.21
0.60
0.81
0.64
0.77
0.64
0.61
0.55
0.00
0.02
0.00
0.01
0.00
0.01
0.01
0.03
0.03
0.03
0.06
0.03
0.08
0.07
0.12
0.12
0.12
0.10
0.14
0.15
0.14
0.15
0.12
0.08
0.06
0.06
0.01
0.00
0.02
0.04
0.09
0.02
0.01
0.01
0.00
0.00
0.01
0.01
0.01
0.01
0.03
0.01
0.00
0.01
0.01
0.01
0.01
0.00
0.00
0.01
0.01
0.00
0.00
0.00
0.00
0.01
0.00
0.00
0.00
0.00
0.00
0.00
0.00
0.01
0.01
0.01
0.02
0.04
0.02
0.04
0.04
0.07
0.01
0.01
0.01
0.00
0.07
0.10
0.15
0.03
0.00
0.09
0.24
0.21
0.24
0.21
0.16
0.21
0.16
0.24
0.28
0.32
0.70
0.46
0.70
0.66
0.63
0.58
0.48
0.24
0.16
0.18
0.13
0.13
0.07
0.02
0.01
0.00
0.00
0.01
0.00
0.00
0.00
0.01
0.01
0.01
0.00
0.00
0.00
0.00
0.01
0.04
0.04
0.07
0.07
0.13
0.09
0.28
0.24
0.18
0.18
0.09
0.07
0.04
0.02
0.02
0.01
0.00
0.01
0.01
0.00
0.00
0.00
0.01
0.00
0.02
0.00
0.02
0.02
0.07
0.04
0.07
0.09
0.09
0.04
0.13
0.09
0.13
0.13
0.13
0.09
0.09
0.13
0.16
0.13
0.13
0.09
0.07
0.01
0.02
0.00
0.00
0.14
0.08
0.00
0.00
0.24
0.24
0.21
0.18
0.21
0.24
0.28
0.28
0.39
0.08
0.56
0.70
0.64
0.68
0.64
0.58
0.58
0.24
0.24
0.16
0.07
0.04
0.01
0.01
0.01
0.00
0.00
0.01
0.01
0.03
0.06
0.08
0.12
0.15
0.19
0.25
0.26
0.26
0.26
0.32
0.32
0.25
0.21
0.12
0.06
0.00
0.00
0.01
0.00
0.01
0.00
0.00
0.00
0.00
0.01
0.00
0.01
0.01
0.01
0.01
0.01
0.01
0.01
0.01
0.01
0.01
0.01
0.01
0.00
0.01
0.01
0.00
0.01
0.00
0.01
0.01
0.01
0.01
0.01
0.00
0.00
0.00
0.00
0.00
0.00
0.01
0.01
0.00
0.03
0.01
0.06
0.08
0.19
0.14
0.06
0.01
0.13
0.18
0.16
0.13
0.07
0.09
0.09
0.09
0.13
0.12
0.60
0.80
0.68
0.86
0.68
0.64
0.56
0.02
0.01
0.01
0.00
0.00
0.01
0.06
0.07
0.08
0.06
0.08
0.12
0.14
0.15
0.19
0.21
0.21
0.29
0.29
0.35
0.32
0.38
0.26
0.29
0.19
0.19
0.12
0.06
0.00
0.00
0.02
0.01
0.00
0.00
0.01
0.01
0.06
0.06
0.06
0.03
0.06
0.06
0.06
0.06
0.06
0.07
0.07
0.07
0.07
0.08
0.06
0.07
0.07
0.06
0.06
0.07
0.03
0.01
0.01
0.01
0.01
0.01
0.01
0.00
0.00
0.00
0.00
0.00
0.00
0.01
0.00
0.03
0.06
0.06
0.10
0.19
0.19
0.01
0.00
0.13
0.21
0.21
0.18
0.16
0.16
0.18
0.16
0.18
0.04
0.47
0.73
0.60
0.81
0.73
0.65
0.58
0.32
0.09
0.04
0.01
0.01
0.00
0.00
0.01
0.03
0.01
0.06
0.08
0.07
0.10
0.12
0.12
0.14
0.14
0.14
0.15
0.15
0.14
0.12
0.12
0.03
0.01
0.00
0.01
0.09
0.13
0.16
0.09
0.07
0.02
0.00
0.00
0.01
0.01
0.01
0.01
0.01
0.01
0.01
0.03
0.03
0.06
0.03
0.06
0.06
0.08
0.06
0.07
0.07
0.06
0.06
0.06
0.06
0.03
0.03
0.01
0.01
0.01
0.03
0.00
0.00
0.01
0.00
0.00
0.00
0.00
0.00
0.00
0.00
0.00
0.07
0.01
0.07
0.07
0.21
0.15
0.06
0.01
0.13
0.13
0.16
0.04
0.01
0.02
0.04
0.07
0.24
0.38
0.63
0.65
0.73
0.75
0.63
0.58
0.48
0.09
0.09
0.04
0.01
0.00
0.00
0.01
0.01
0.01
0.01
0.06
0.06
0.06
0.06
0.03
0.03
0.03
0.06
0.01
0.01
0.01
0.01
0.00
0.00
0.02
0.04
0.02
0.18
0.18
0.16
0.13
0.07
0.04
0.02
0.00
0.01
0.01
0.00
0.00
0.01
0.00
0.01
0.00
0.00
0.01
0.01
0.01
0.01
0.03
0.03
0.03
0.03
0.00
0.01
0.01
0.01
0.01
0.00
0.00
0.01
0.01
0.01
0.01
0.01
0.00
0.01
0.00
0.00
0.00
0.02
0.01
0.06
0.01
0.10
0.14
0.21
0.12
0.06
0.00
0.13
0.07
0.07
0.13
0.07
0.13
0.09
0.18
0.13
0.19
0.69
0.16
0.68
0.64
0.62
0.58
0.46
0.07
0.02
0.01
0.00
0.00
0.00
0.03
0.06
0.03
0.06
0.07
0.08
0.07
0.12
0.12
0.14
0.14
0.15
0.19
0.19
0.19
0.15
0.15
0.15
0.12
0.12
0.03
0.00
0.00
0.02
0.01
0.00
0.01
0.01
0.00
0.00
0.00
0.01
0.03
0.01
0.06
0.01
0.06
0.07
0.06
0.07
0.07
0.03
0.06
0.06
0.06
0.06
0.06
0.01
0.01
0.01
0.03
0.03
0.01
0.01
0.01
0.01
0.03
0.01
0.01
0.00
0.00
0.01
0.01
0.03
0.01
0.01
0.08
0.10
0.10
0.15
0.25
0.29
0.14
0.08
0.00
0.04
0.02
0.02
0.01
0.00
0.00
0.00
0.01
0.01
0.59
0.78
0.58
0.81
0.77
0.65
0.58
0.21
0.01
0.00
0.00
0.03
0.03
0.07
0.08
0.08
0.10
0.08
0.10
0.12
0.12
0.14
0.15
0.19
0.15
0.21
0.25
0.25
0.25
0.21
0.21
0.19
0.14
0.10
0.03
0.01
0.04
0.09
0.04
0.02
0.00
0.00
0.00
0.00
0.01
0.01
0.01
0.01
0.01
0.00
0.01
0.03
0.01
0.03
0.01
0.03
0.03
0.06
0.07
0.06
0.06
0.03
0.06
0.03
0.03
0.03
0.01
0.01
0.01
0.01
0.00
0.00
0.01
0.00
0.00
0.00
0.00
0.00
0.00
0.01
0.00
0.01
0.06
0.00
0.10
0.10
0.26
0.12
0.03
0.00
0.16
0.16
0.13
0.07
0.01
0.02
0.02
0.07
0.07
0.50
0.71
0.48
0.77
0.77
0.64
0.58
0.32
0.04
0.02
0.01
0.00
0.01
0.01
0.01
0.01
0.03
0.03
0.06
0.08
0.08
0.10
0.12
0.12
0.15
0.19
0.15
0.15
0.15
0.14
0.12
0.08
0.06
0.00
0.00
0.07
0.16
0.16
0.09
0.13
0.07
0.04
0.01
0.00
0.00
0.01
0.00
0.00
0.01
0.01
0.01
0.00
0.00
0.00
0.01
0.01
0.01
0.01
0.03
0.01
0.03
0.06
0.03
0.01
0.01
0.01
0.01
0.01
0.01
0.01
0.00
0.00
0.00
0.00
0.00
0.00
0.01
0.00
0.00
0.01
0.00
0.01
0.03
0.06
0.07
0.25
0.15
0.07
0.01
0.13
0.09
0.09
0.02
0.02
0.04
0.04
0.02
0.07
0.14
0.59
0.80
0.63
0.74
0.63
0.61
0.57
0.07
0.09
0.04
0.02
0.01
0.00
0.00
0.01
0.01
0.00
0.01
0.00
0.01
0.01
0.01
0.01
0.03
0.03
0.03
0.03
0.00
0.01
0.00
0.00
0.00
0.01
0.07
0.09
0.18
0.18
0.21
0.16
0.16
0.09
0.04
0.01
0.01
0.01
0.00
0.00
0.01
0.00
0.00
0.00
0.00
0.00
0.01
0.01
0.00
0.00
0.00
0.00
0.00
0.01
0.00
0.01
0.00
0.00
0.01
0.01
0.00
0.01
0.01
0.01
0.04
0.02
0.02
0.07
0.04
0.07
0.02
0.07
0.04
0.01
0.01
0.02
0.03
0.07
0.15
0.12
0.03
0.01
0.13
0.07
0.13
0.07
0.09
0.09
0.09
0.13
0.32
0.19
0.67
0.52
0.67
0.64
0.63
0.57
0.54
0.09
0.18
0.13
0.02
0.01
0.00
0.01
0.00
0.01
0.00
0.00
0.00
0.01
0.01
0.01
0.06
0.07
0.08
0.10
0.12
0.12
0.14
0.14
0.14
0.10
0.06
0.03
0.00
0.01
0.02
0.04
0.07
0.01
0.01
0.01
0.00
0.00
0.00
0.01
0.01
0.03
0.03
0.01
0.06
0.06
0.03
0.06
0.01
0.03
0.01
0.03
0.01
0.01
0.00
0.00
0.00
0.01
0.00
0.01
0.01
0.02
0.02
0.04
0.01
0.04
0.07
0.04
0.07
0.07
0.02
0.04
0.02
0.00
0.00
0.01
0.06
0.14
0.15
0.03
0.00
0.09
0.18
0.16
0.18
0.13
0.13
0.21
0.16
0.21
0.02
0.52
0.75
0.60
0.85
0.77
0.67
0.58
0.35
0.09
0.09
0.02
0.01
0.00
0.00
0.01
0.01
0.01
0.06
0.08
0.08
0.10
0.14
0.15
0.19
0.19
0.21
0.25
0.29
0.26
0.29
0.25
0.21
0.19
0.10
0.03
0.01
0.01
0.07
0.07
0.07
0.04
0.00
0.01
0.00
0.00
0.00
0.00
0.00
0.00
0.00
0.00
0.00
0.00
0.01
0.00
0.00
0.00
0.00
0.00
0.01
0.00
0.00
0.00
0.00
0.00
0.00
0.00
0.00
0.00
0.00
0.00
0.00
0.00
0.00
0.00
0.01
0.01
0.01
0.00
0.00
0.07
0.00
0.10
0.08
0.26
0.15
0.08
0.01
0.16
0.16
0.13
0.04
0.04
0.09
0.09
0.07
0.09
0.21
0.59
0.79
0.69
0.84
0.64
0.63
0.55
0.02
0.04
0.00
0.00
0.01
0.01
0.06
0.06
0.07
0.08
0.12
0.12
0.14
0.15
0.15
0.21
0.21
0.21
0.25
0.26
0.25
0.21
0.25
0.19
0.14
0.12
0.07
0.03
0.00
0.01
0.02
0.01
0.01
0.00
0.01
0.03
0.06
0.06
0.06
0.06
0.08
0.07
0.06
0.07
0.07
0.10
0.10
0.10
0.10
0.08
0.10
0.12
0.14
0.10
0.10
0.10
0.10
0.10
0.12
0.08
0.08
0.10
0.06
0.07
0.06
0.10
0.06
0.06
0.06
0.06
0.07
0.06
0.07
0.14
0.12
0.14
0.19
0.35
0.26
0.15
0.08
0.01
0.02
0.01
0.01
0.00
0.02
0.01
0.01
0.02
0.08
0.59
0.80
0.62
0.75
0.65
0.63
0.57
0.07
0.02
0.01
0.01
0.00
0.01
0.00
0.01
0.01
0.03
0.03
0.03
0.03
0.01
0.03
0.06
0.08
0.07
0.10
0.06
0.06
0.06
0.06
0.00
0.01
0.00
0.01
0.04
0.07
0.16
0.16
0.16
0.04
0.02
0.00
0.01
0.01
0.01
0.00
0.00
0.00
0.00
0.01
0.00
0.00
0.01
0.01
0.00
0.00
0.01
0.01
0.00
0.00
0.01
0.00
0.01
0.01
0.01
0.02
0.00
0.04
0.01
0.02
0.02
0.02
0.02
0.04
0.00
0.04
0.00
0.02
0.04
0.01
0.01
0.01
0.00
0.01
0.12
0.12
0.07
0.01
0.00
0.24
0.16
0.09
0.16
0.09
0.18
0.21
0.24
0.35
0.19
0.65
0.14
0.68
0.64
0.63
0.58
0.52
0.24
0.18
0.16
0.07
0.09
0.04
0.01
0.00
0.01
0.00
0.00
0.00
0.01
0.01
0.01
0.03
0.07
0.06
0.06
0.08
0.08
0.08
0.08
0.07
0.06
0.03
0.01
0.00
0.02
0.02
0.04
0.01
0.00
0.01
0.01
0.00
0.01
0.01
0.01
0.06
0.03
0.03
0.01
0.03
0.06
0.06
0.06
0.03
0.01
0.01
0.03
0.01
0.01
0.03
0.01
0.00
0.01
0.01
0.01
0.01
0.01
0.00
0.00
0.01
0.01
0.00
0.00
0.00
0.01
0.06
0.12
0.07
0.15
0.15
0.32
0.19
0.12
0.01
0.02
0.04
0.04
0.02
0.00
0.04
0.01
0.07
0.07
0.47
0.71
0.07
0.84
0.86
0.66
0.58
0.51
0.00
0.00
0.00
0.01
0.03
0.07
0.08
0.10
0.12
0.14
0.15
0.19
0.21
0.25
0.21
0.29
0.38
0.43
0.46
0.47
0.49
0.50
0.49
0.49
0.43
0.35
0.21
0.12
0.06
0.00
0.01
0.00
0.00
0.00
0.01
0.03
0.03
0.03
0.03
0.03
0.01
0.06
0.03
0.03
0.01
0.03
0.03
0.06
0.06
0.06
0.08
0.06
0.06
0.08
0.06
0.06
0.07
0.06
0.03
0.03
0.03
0.01
0.01
0.01
0.00
0.01
0.01
0.01
0.08
0.12
0.06
0.14
0.29
0.29
0.19
0.12
0.01
0.01
0.01
0.00
0.00
0.00
0.00
0.00
0.00
0.03
0.60
0.79
0.60
0.82
0.73
0.65
0.57
0.16
0.01
0.00
0.00
0.01
0.01
0.03
0.01
0.03
0.08
0.08
0.10
0.12
0.12
0.15
0.15
0.19
0.21
0.21
0.25
0.25
0.26
0.21
0.19
0.15
0.12
0.08
0.06
0.00
0.01
0.01
0.01
0.00
0.00
0.01
0.01
0.06
0.03
0.03
0.03
0.06
0.06
0.03
0.06
0.03
0.03
0.06
0.06
0.03
0.07
0.06
0.06
0.06
0.07
0.07
0.06
0.06
0.01
0.06
0.06
0.06
0.03
0.03
0.03
0.03
0.03
0.03
0.03
0.01
0.03
0.14
0.10
0.15
0.15
0.41
0.29
0.21
0.10
0.01
0.00
0.04
0.01
0.01
0.02
0.01
0.01
0.02
0.21
0.60
0.77
0.71
0.83
0.64
0.63
0.55
0.02
0.13
0.04
0.02
0.00
0.00
0.00
0.00
0.00
0.00
0.01
0.01
0.01
0.03
0.03
0.03
0.07
0.08
0.08
0.08
0.06
0.06
0.01
0.00
0.00
0.01
0.04
0.09
0.16
0.18
0.16
0.07
0.02
0.01
0.01
0.00
0.00
0.01
0.00
0.01
0.00
0.00
0.01
0.01
0.01
0.01
0.01
0.00
0.01
0.03
0.01
0.00
0.28
0.02
0.09
0.04
0.52
0.61
0.60
0.56
0.81
0.88
0.93
0.94
0.93
0.94
0.92
0.81
0.32
0.25
0.01
0.01
0.01
0.18
0.28
0.44
0.52
0.55
0.55
0.57
0.59
0.57
0.58
0.58
0.60
0.60
0.62
0.61
0.63
0.63
0.61
0.61
0.61
0.58
0.58
0.54
0.44
0.35
0.24
0.13
0.13
0.09
0.09
0.09
0.04
0.02
0.09
0.04
0.01
0.04
0.07
0.07
0.09
0.09
0.09
0.07
0.04
0.07
0.13
0.09
0.13
0.09
0.09
0.09
0.09
0.13
0.18
0.16
0.16
0.16
0.18
0.24
0.21
0.18
0.18
0.24
0.21
0.21
0.28
0.24
0.32
0.28
0.24
0.24
0.28
0.24
0.21
0.24
0.28
0.24
0.28
0.24
0.24
0.24
0.28
0.21
0.28
0.28
0.21
0.28
0.28
0.21
0.24
0.09
0.13
0.01
0.01
0.08
0.01
0.00
0.01
0.21
0.28
0.35
0.32
0.21
0.35
0.28
0.38
0.35
0.15
0.65
0.55
0.83
0.78
0.67
0.59
0.51
0.24
0.24
0.21
0.09
0.07
0.04
0.00
0.01
0.00
0.01
0.01
0.07
0.10
0.12
0.15
0.19
0.21
0.26
0.38
0.46
0.49
0.50
0.50
0.50
0.50
0.50
0.43
0.21
0.10
0.00
0.07
0.13
0.18
0.18
0.13
0.16
0.07
0.07
0.04
0.00
0.02
0.07
0.00
0.02
0.01
0.01
0.00
0.01
0.00
0.00
0.00
0.01
0.01
0.00
0.04
0.35
0.55
0.58
0.58
0.28
0.80
0.94
1.00
1.00
1.00
1.00
0.98
0.97
0.99
0.99
0.97
0.87
0.68
0.43
0.57
0.58
0.58
0.59
0.62
0.61
0.61
0.63
0.65
0.66
0.69
0.73
0.77
0.84
0.88
0.90
0.91
0.93
0.93
0.93
0.93
0.93
0.90
0.87
0.77
0.64
0.62
0.57
0.55
0.48
0.43
0.38
0.35
0.28
0.32
0.24
0.24
0.21
0.24
0.24
0.24
0.18
0.21
0.18
0.16
0.18
0.16
0.16
0.09
0.13
0.13
0.09
0.13
0.09
0.13
0.09
0.09
0.09
0.13
0.07
0.13
0.09
0.09
0.13
0.13
0.09
0.13
0.09
0.13
0.09
0.09
0.13
0.16
0.09
0.09
0.16
0.09
0.16
0.13
0.16
0.13
0.09
0.01
0.02
0.01
0.12
0.06
0.03
0.00
0.13
0.24
0.28
0.24
0.24
0.24
0.32
0.32
0.38
0.03
0.29
0.74
0.72
0.83
0.64
0.61
0.57
0.28
0.28
0.16
0.09
0.07
0.01
0.00
0.01
0.01
0.01
0.01
0.03
0.06
0.06
0.10
0.12
0.14
0.12
0.14
0.12
0.15
0.15
0.15
0.15
0.15
0.15
0.15
0.06
0.01
0.02
0.13
0.16
0.21
0.09
0.16
0.04
0.00
0.00
0.00
0.01
0.01
0.00
0.01
0.00
0.02
0.01
0.01
0.01
0.02
0.02
0.01
0.00
0.00
0.01
0.01
0.00
0.00
0.00
0.00
0.00
0.00
0.00
0.00
0.01
0.08
0.21
0.15
0.21
0.08
0.00
0.02
0.09
0.04
0.04
0.16
0.16
0.13
0.38
0.10
0.56
0.73
0.61
0.68
0.64
0.58
0.59
0.18
0.21
0.09
0.07
0.07
0.01
0.02
0.01
0.00
0.01
0.01
0.00
0.01
0.01
0.00
0.01
0.00
0.03
0.01
0.01
0.06
0.01
0.01
0.00
0.00
0.00
0.00
0.01
0.01
0.01
0.07
0.04
0.01
0.01
0.01
0.01
0.00
0.01
0.01
0.03
0.01
0.00
0.01
0.00
0.01
0.01
0.00
0.01
0.01
0.00
0.01
0.01
0.00
0.00
0.00
0.00
0.00
0.01
0.00
0.00
0.01
0.07
0.06
0.10
0.14
0.32
0.21
0.21
0.15
0.03
0.00
0.01
0.01
0.01
0.02
0.02
0.07
0.16
0.35
0.71
0.65
0.77
0.79
0.66
0.60
0.55
0.02
0.01
0.00
0.03
0.01
0.07
0.07
0.10
0.14
0.14
0.15
0.19
0.21
0.29
0.32
0.46
0.46
0.49
0.52
0.56
0.60
0.60
0.60
0.60
0.56
0.50
0.41
0.21
0.15
0.07
0.03
0.01
0.03
0.03
0.07
0.06
0.08
0.07
0.07
0.07
0.07
0.06
0.07
0.06
0.07
0.06
0.07
0.07
0.08
0.06
0.06
0.06
0.06
0.06
0.03
0.03
0.03
0.03
0.03
0.03
0.03
0.07
0.08
0.14
0.14
0.32
0.21
0.19
0.08
0.00
0.01
0.09
0.01
0.01
0.02
0.02
0.04
0.09
0.29
0.63
0.73
0.81
0.89
0.65
0.63
0.54
0.01
0.01
0.00
0.01
0.03
0.03
0.06
0.07
0.08
0.12
0.12
0.12
0.15
0.19
0.21
0.25
0.26
0.32
0.35
0.35
0.41
0.41
0.32
0.25
0.21
0.15
0.10
0.03
0.00
0.01
0.00
0.00
0.01
0.01
0.01
0.03
0.03
0.06
0.03
0.03
0.06
0.03
0.03
0.06
0.07
0.07
0.08
0.12
0.10
0.12
0.12
0.12
0.12
0.10
0.10
0.12
0.10
0.08
0.08
0.08
0.06
0.08
0.15
0.14
0.19
0.25
0.35
0.32
0.25
0.10
0.00
0.00
0.02
0.00
0.00
0.00
0.00
0.01
0.16
0.46
0.65
0.38
0.80
0.86
0.64
0.57
0.48
0.01
0.01
0.00
0.00
0.00
0.03
0.03
0.03
0.06
0.03
0.07
0.07
0.10
0.12
0.14
0.12
0.15
0.15
0.21
0.19
0.21
0.15
0.12
0.14
0.10
0.03
0.00
0.00
0.02
0.01
0.00
0.00
0.00
0.00
0.01
0.03
0.03
0.03
0.06
0.03
0.01
0.01
0.03
0.01
0.06
0.06
0.01
0.01
0.06
0.06
0.03
0.06
0.03
0.06
0.03
0.01
0.01
0.03
0.01
0.01
0.01
0.03
0.01
0.03
0.07
0.07
0.15
0.32
0.26
0.29
0.14
0.01
0.01
0.02
0.00
0.00
0.01
0.00
0.00
0.02
0.14
0.60
0.79
0.62
0.75
0.64
0.61
0.58
0.21
0.13
0.02
0.01
0.00
0.00
0.01
0.00
0.00
0.00
0.01
0.00
0.00
0.01
0.01
0.01
0.01
0.01
0.01
0.03
0.01
0.01
0.00
0.01
0.01
0.00
0.00
0.02
0.02
0.07
0.04
0.04
0.01
0.00
0.00
0.01
0.01
0.00
0.01
0.00
0.00
0.01
0.00
0.00
0.00
0.00
0.01
0.00
0.01
0.01
0.01
0.01
0.03
0.03
0.01
0.03
0.01
0.01
0.03
0.00
0.00
0.00
0.01
0.01
0.07
0.01
0.10
0.14
0.26
0.21
0.12
0.06
0.00
0.04
0.04
0.07
0.04
0.09
0.09
0.18
0.24
0.26
0.71
0.15
0.77
0.73
0.64
0.58
0.55
0.07
0.07
0.04
0.00
0.00
0.00
0.03
0.06
0.08
0.10
0.08
0.12
0.15
0.19
0.21
0.25
0.26
0.35
0.41
0.46
0.46
0.46
0.46
0.41
0.35
0.26
0.15
0.07
0.03
0.01
0.01
0.01
0.03
0.06
0.03
0.06
0.06
0.07
0.08
0.07
0.08
0.08
0.08
0.08
0.10
0.10
0.10
0.08
0.07
0.10
0.07
0.08
0.07
0.03
0.06
0.06
0.06
0.06
0.06
0.01
0.01
0.03
0.01
0.06
0.12
0.08
0.15
0.15
0.35
0.26
0.19
0.08
0.00
0.01
0.01
0.00
0.01
0.01
0.00
0.01
0.02
0.47
0.67
0.59
0.86
0.89
0.66
0.58
0.45
0.01
0.01
0.01
0.07
0.08
0.08
0.08
0.10
0.14
0.15
0.15
0.15
0.19
0.21
0.25
0.26
0.32
0.29
0.32
0.35
0.38
0.32
0.26
0.21
0.15
0.08
0.06
0.00
0.00
0.02
0.01
0.02
0.01
0.01
0.00
0.00
0.00
0.01
0.01
0.01
0.00
0.00
0.01
0.01
0.01
0.00
0.01
0.00
0.00
0.00
0.00
0.01
0.01
0.01
0.01
0.01
0.00
0.00
0.00
0.00
0.00
0.01
0.01
0.00
0.00
0.06
0.01
0.08
0.12
0.21
0.15
0.06
0.01
0.07
0.09
0.04
0.04
0.04
0.04
0.07
0.13
0.09
0.50
0.71
0.48
0.85
0.86
0.67
0.58
0.44
0.07
0.07
0.02
0.00
0.01
0.00
0.00
0.00
0.01
0.01
0.01
0.03
0.06
0.07
0.08
0.07
0.12
0.14
0.15
0.14
0.14
0.08
0.07
0.07
0.01
0.00
0.01
0.07
0.13
0.09
0.07
0.01
0.01
0.00
0.00
0.01
0.01
0.01
0.01
0.01
0.01
0.01
0.03
0.01
0.01
0.06
0.03
0.03
0.06
0.03
0.07
0.03
0.03
0.01
0.07
0.03
0.03
0.01
0.01
0.01
0.01
0.01
0.01
0.00
0.00
0.01
0.06
0.06
0.08
0.07
0.29
0.15
0.14
0.01
0.09
0.13
0.16
0.09
0.07
0.09
0.13
0.16
0.09
0.10
0.56
0.79
0.72
0.88
0.68
0.65
0.58
0.24
0.24
0.21
0.13
0.13
0.09
0.09
0.04
0.09
0.07
0.07
0.04
0.04
0.02
0.02
0.01
0.01
0.00
0.01
0.01
0.01
0.01
0.00
0.00
0.00
0.02
0.07
0.16
0.21
0.24
0.21
0.13
0.07
0.02
0.01
0.01
0.00
0.01
0.00
0.01
0.01
0.00
0.00
0.01
0.01
0.01
0.01
0.03
0.06
0.01
0.03
0.06
0.07
0.06
0.01
0.06
0.01
0.01
0.00
0.00
0.00
0.00
0.00
0.00
0.01
0.01
0.00
0.01
0.01
0.03
0.06
0.26
0.15
0.10
0.01
0.02
0.13
0.21
0.09
0.07
0.13
0.16
0.07
0.09
0.03
0.56
0.76
0.60
0.75
0.66
0.60
0.58
0.32
0.13
0.04
0.02
0.01
0.00
0.00
0.01
0.01
0.01
0.00
0.01
0.07
0.07
0.06
0.07
0.07
0.10
0.07
0.08
0.08
0.06
0.03
0.01
0.06
0.00
0.01
0.00
0.00
0.01
0.00
0.00
0.01
0.00
0.00
0.01
0.01
0.07
0.03
0.00
0.01
0.01
0.03
0.03
0.03
0.03
0.03
0.01
0.07
0.01
0.06
0.01
0.01
0.01
0.01
0.01
0.03
0.03
0.01
0.00
0.03
0.01
0.00
0.03
0.01
0.07
0.08
0.06
0.15
0.26
0.26
0.21
0.14
0.06
0.01
0.00
0.00
0.02
0.02
0.04
0.02
0.09
0.01
0.43
0.71
0.44
0.77
0.69
0.64
0.58
0.48
0.07
0.02
0.00
0.00
0.01
0.06
0.08
0.10
0.12
0.14
0.15
0.15
0.21
0.26
0.35
0.38
0.46
0.46
0.52
0.56
0.60
0.56
0.56
0.56
0.50
0.43
0.32
0.15
0.12
0.07
0.08
0.06
0.08
0.08
0.10
0.08
0.08
0.10
0.12
0.10
0.10
0.12
0.10
0.14
0.14
0.15
0.12
0.15
0.12
0.12
0.14
0.10
0.08
0.08
0.07
0.07
0.08
0.08
0.06
0.03
0.03
0.06
0.03
0.03
0.03
0.03
0.06
0.14
0.14
0.15
0.19
0.47
0.32
0.21
0.12
0.00
0.00
0.01
0.01
0.00
0.00
0.00
0.00
0.01
0.32
0.65
0.81
0.72
0.88
0.71
0.64
0.54
0.00
0.03
0.06
0.10
0.10
0.14
0.14
0.15
0.15
0.15
0.21
0.21
0.25
0.29
0.29
0.32
0.38
0.41
0.46
0.47
0.47
0.47
0.46
0.35
0.29
0.26
0.15
0.08
0.01
0.01
0.00
0.00
0.01
0.01
0.03
0.01
0.07
0.06
0.06
0.03
0.06
0.01
0.06
0.06
0.07
0.07
0.07
0.03
0.10
0.08
0.10
0.08
0.08
0.06
0.07
0.07
0.03
0.03
0.01
0.00
0.00
0.00
0.00
0.00
0.00
0.01
0.00
0.00
0.03
0.01
0.07
0.07
0.25
0.10
0.01
0.00
0.21
0.24
0.21
0.13
0.13
0.16
0.16
0.21
0.24
0.25
0.60
0.70
0.81
0.88
0.65
0.60
0.52
0.16
0.16
0.09
0.04
0.01
0.00
0.00
0.00
0.01
0.01
0.06
0.06
0.08
0.10
0.10
0.12
0.14
0.19
0.15
0.19
0.15
0.15
0.12
0.10
0.06
0.01
0.01
0.04
0.07
0.09
0.04
0.04
0.02
0.01
0.01
0.00
0.01
0.01
0.00
0.00
0.00
0.00
0.03
0.01
0.01
0.03
0.03
0.03
0.03
0.03
0.03
0.03
0.01
0.03
0.01
0.01
0.00
0.01
0.01
0.00
0.00
0.00
0.01
0.01
0.01
0.01
0.01
0.00
0.01
0.01
0.01
0.00
0.03
0.19
0.08
0.01
0.00
0.24
0.24
0.18
0.18
0.13
0.18
0.18
0.18
0.24
0.19
0.60
0.77
0.73
0.86
0.65
0.61
0.56
0.16
0.21
0.13
0.09
0.07
0.04
0.02
0.02
0.01
0.00
0.00
0.01
0.00
0.00
0.00
0.01
0.01
0.00
0.00
0.01
0.01
0.01
0.00
0.01
0.01
0.04
0.04
0.16
0.24
0.18
0.21
0.16
0.13
0.13
0.04
0.04
0.07
0.09
0.07
0.04
0.09
0.13
0.09
0.09
0.09
0.07
0.04
0.07
0.13
0.09
0.09
0.07
0.09
0.07
0.13
0.16
0.16
0.16
0.18
0.24
0.16
0.21
0.18
0.18
0.21
0.16
0.16
0.13
0.01
0.07
0.00
0.01
0.12
0.07
0.00
0.00
0.28
0.35
0.38
0.24
0.28
0.38
0.35
0.35
0.44
0.03
0.56
0.70
0.64
0.69
0.64
0.59
0.58
0.35
0.38
0.24
0.18
0.18
0.13
0.07
0.07
0.04
0.04
0.04
0.02
0.01
0.01
0.01
0.00
0.01
0.01
0.06
0.06
0.06
0.03
0.06
0.00
0.03
0.00
0.01
0.01
0.07
0.13
0.09
0.07
0.07
0.04
0.02
0.04
0.02
0.00
0.00
0.01
0.01
0.01
0.00
0.01
0.00
0.00
0.00
0.00
0.00
0.01
0.01
0.00
0.01
0.00
0.01
0.01
0.01
0.00
0.01
0.02
0.00
0.01
0.01
0.01
0.01
0.01
0.02
0.01
0.00
0.01
0.01
0.03
0.12
0.14
0.01
0.01
0.16
0.24
0.21
0.21
0.16
0.18
0.18
0.18
0.16
0.06
0.59
0.77
0.68
0.88
0.77
0.66
0.59
0.13
0.04
0.01
0.01
0.00
0.01
0.03
0.03
0.08
0.08
0.12
0.12
0.21
0.19
0.21
0.26
0.25
0.35
0.38
0.46
0.46
0.46
0.43
0.38
0.32
0.25
0.15
0.08
0.00
0.00
0.01
0.01
0.01
0.00
0.01
0.01
0.03
0.03
0.06
0.06
0.03
0.03
0.06
0.07
0.07
0.08
0.08
0.08
0.10
0.10
0.08
0.10
0.08
0.07
0.08
0.07
0.06
0.06
0.03
0.03
0.01
0.03
0.01
0.03
0.01
0.03
0.06
0.12
0.08
0.15
0.15
0.38
0.21
0.12
0.07
0.01
0.04
0.01
0.00
0.01
0.01
0.00
0.00
0.01
0.43
0.65
0.75
0.77
0.85
0.64
0.58
0.48
0.00
0.00
0.00
0.01
0.03
0.06
0.08
0.10
0.10
0.08
0.14
0.12
0.15
0.15
0.19
0.19
0.21
0.25
0.25
0.25
0.21
0.21
0.15
0.14
0.08
0.03
0.00
0.01
0.07
0.04
0.07
0.02
0.01
0.01
0.00
0.00
0.00
0.01
0.01
0.01
0.01
0.03
0.01
0.06
0.07
0.06
0.07
0.10
0.08
0.07
0.07
0.07
0.08
0.06
0.06
0.06
0.06
0.01
0.03
0.03
0.01
0.01
0.01
0.00
0.01
0.01
0.00
0.01
0.01
0.08
0.01
0.12
0.10
0.26
0.15
0.03
0.01
0.04
0.09
0.04
0.02
0.01
0.04
0.01
0.04
0.16
0.46
0.65
0.29
0.78
0.81
0.64
0.58
0.45
0.02
0.01
0.01
0.01
0.01
0.03
0.06
0.06
0.10
0.08
0.10
0.10
0.12
0.14
0.15
0.15
0.15
0.15
0.15
0.15
0.14
0.14
0.08
0.07
0.01
0.01
0.00
0.02
0.13
0.16
0.16
0.07
0.04
0.02
0.01
0.00
0.00
0.00
0.00
0.00
0.00
0.00
0.01
0.00
0.01
0.01
0.01
0.00
0.00
0.00
0.01
0.01
0.00
0.00
0.01
0.00
0.00
0.00
0.01
0.00
0.00
0.00
0.01
0.01
0.01
0.00
0.00
0.00
0.01
0.03
0.00
0.07
0.15
0.15
0.08
0.06
0.01
0.16
0.09
0.09
0.09
0.13
0.09
0.04
0.18
0.01
0.43
0.74
0.57
0.70
0.63
0.61
0.58
0.24
0.24
0.13
0.09
0.04
0.04
0.01
0.01
0.01
0.00
0.01
0.00
0.01
0.00
0.00
0.00
0.00
0.01
0.00
0.01
0.00
0.01
0.00
0.00
0.00
0.01
0.01
0.07
0.07
0.13
0.09
0.07
0.07
0.02
0.04
0.00
0.01
0.00
0.00
0.00
0.00
0.00
0.00
0.01
0.00
0.00
0.01
0.00
0.01
0.00
0.00
0.00
0.01
0.00
0.00
0.00
0.01
0.01
0.00
0.02
0.01
0.00
0.01
0.01
0.00
0.02
0.00
0.03
0.01
0.03
0.06
0.15
0.12
0.06
0.01
0.09
0.13
0.16
0.09
0.09
0.09
0.13
0.13
0.21
0.21
0.65
0.73
0.73
0.80
0.66
0.60
0.57
0.02
0.04
0.00
0.00
0.00
0.03
0.07
0.07
0.12
0.10
0.15
0.15
0.19
0.21
0.26
0.26
0.35
0.38
0.47
0.46
0.50
0.50
0.47
0.47
0.43
0.26
0.21
0.08
0.03
0.00
0.00
0.00
0.00
0.01
0.01
0.06
0.06
0.06
0.06
0.03
0.07
0.08
0.08
0.07
0.07
0.07
0.06
0.08
0.08
0.07
0.07
0.03
0.06
0.06
0.06
0.01
0.01
0.01
0.01
0.00
0.01
0.00
0.01
0.00
0.00
0.01
0.00
0.01
0.12
0.06
0.12
0.14
0.29
0.15
0.08
0.01
0.02
0.09
0.04
0.01
0.01
0.02
0.04
0.04
0.07
0.43
0.65
0.26
0.79
0.86
0.65
0.57
0.48
0.02
0.07
0.01
0.00
0.00
0.01
0.01
0.01
0.06
0.06
0.07
0.10
0.10
0.12
0.15
0.19
0.21
0.21
0.25
0.26
0.29
0.26
0.25
0.21
0.15
0.12
0.07
0.01
0.00
0.00
0.00
0.01
0.00
0.01
0.01
0.03
0.03
0.01
0.01
0.01
0.03
0.03
0.01
0.03
0.01
0.03
0.06
0.03
0.03
0.06
0.03
0.03
0.07
0.03
0.01
0.01
0.01
0.01
0.00
0.00
0.00
0.00
0.01
0.00
0.00
0.01
0.01
0.01
0.01
0.00
0.01
0.00
0.03
0.00
0.06
0.07
0.19
0.08
0.01
0.00
0.16
0.13
0.13
0.09
0.02
0.04
0.09
0.04
0.18
0.38
0.65
0.15
0.77
0.77
0.64
0.57
0.45
0.02
0.04
0.00
0.00
0.01
0.01
0.01
0.03
0.06
0.06
0.08
0.07
0.10
0.08
0.10
0.12
0.15
0.15
0.14
0.14
0.10
0.12
0.07
0.06
0.01
0.00
0.00
0.04
0.07
0.09
0.13
0.09
0.01
0.01
0.00
0.01
0.01
0.01
0.03
0.03
0.03
0.03
0.03
0.03
0.06
0.06
0.06
0.07
0.06
0.03
0.03
0.03
0.03
0.03
0.06
0.01
0.01
0.00
0.01
0.01
0.01
0.00
0.01
0.00
0.00
0.01
0.00
0.00
0.00
0.01
0.00
0.06
0.01
0.08
0.07
0.21
0.14
0.03
0.00
0.13
0.13
0.09
0.09
0.02
0.07
0.09
0.07
0.18
0.15
0.56
0.76
0.65
0.77
0.63
0.60
0.56
0.07
0.16
0.07
0.07
0.07
0.02
0.00
0.00
0.00
0.01
0.01
0.00
0.01
0.01
0.01
0.01
0.01
0.01
0.06
0.06
0.01
0.01
0.01
0.01
0.01
0.01
0.01
0.07
0.09
0.13
0.07
0.01
0.00
0.01
0.00
0.00
0.00
0.01
0.00
0.00
0.01
0.01
0.01
0.01
0.01
0.01
0.01
0.00
0.01
0.03
0.01
0.01
0.00
0.00
0.01
0.01
0.00
0.00
0.00
0.00
0.00
0.01
0.01
0.00
0.01
0.01
0.01
0.01
0.01
0.00
0.01
0.00
0.06
0.10
0.19
0.12
0.01
0.01
0.18
0.16
0.13
0.13
0.16
0.21
0.18
0.24
0.32
0.14
0.63
0.00
0.68
0.64
0.63
0.57
0.50
0.18
0.16
0.13
0.02
0.02
0.00
0.00
0.00
0.00
0.00
0.01
0.03
0.03
0.03
0.03
0.08
0.10
0.10
0.12
0.15
0.15
0.19
0.15
0.12
0.14
0.07
0.01
0.00
0.01
0.02
0.02
0.02
0.01
0.01
0.00
0.01
0.01
0.01
0.01
0.03
0.06
0.07
0.06
0.03
0.03
0.03
0.03
0.06
0.03
0.01
0.01
0.01
0.01
0.03
0.01
0.00
0.01
0.01
0.01
0.01
0.03
0.01
0.01
0.01
0.01
0.01
0.01
0.01
0.01
0.01
0.01
0.10
0.08
0.08
0.15
0.21
0.21
0.12
0.07
0.01
0.04
0.07
0.04
0.02
0.02
0.02
0.01
0.07
0.07
0.56
0.78
0.62
0.81
0.73
0.65
0.58
0.16
0.00
0.00
0.01
0.01
0.08
0.08
0.08
0.08
0.14
0.12
0.14
0.14
0.15
0.15
0.21
0.21
0.25
0.29
0.32
0.29
0.26
0.25
0.25
0.21
0.15
0.10
0.06
0.00
0.02
0.07
0.07
0.04
0.00
0.01
0.01
0.00
0.00
0.00
0.00
0.01
0.00
0.01
0.01
0.01
0.01
0.01
0.03
0.03
0.06
0.06
0.06
0.03
0.03
0.01
0.03
0.03
0.03
0.01
0.01
0.01
0.01
0.01
0.01
0.00
0.00
0.00
0.00
0.00
0.00
0.00
0.01
0.01
0.10
0.01
0.12
0.12
0.21
0.10
0.03
0.00
0.16
0.13
0.16
0.07
0.04
0.09
0.07
0.09
0.18
0.32
0.63
0.10
0.77
0.78
0.65
0.58
0.44
0.09
0.07
0.02
0.00
0.00
0.00
0.00
0.01
0.01
0.03
0.03
0.07
0.07
0.08
0.07
0.08
0.10
0.12
0.10
0.12
0.10
0.10
0.03
0.03
0.01
0.00
0.01
0.07
0.16
0.13
0.13
0.09
0.04
0.02
0.00
0.01
0.00
0.00
0.01
0.00
0.00
0.00
0.00
0.00
0.01
0.01
0.00
0.01
0.01
0.01
0.03
0.01
0.01
0.00
0.01
0.01
0.03
0.01
0.01
0.01
0.00
0.01
0.00
0.00
0.00
0.00
0.00
0.00
0.00
0.01
0.00
0.01
0.03
0.01
0.03
0.06
0.21
0.08
0.01
0.00
0.21
0.18
0.21
0.16
0.13
0.13
0.18
0.18
0.35
0.15
0.53
0.68
0.70
0.78
0.64
0.60
0.56
0.16
0.21
0.18
0.09
0.07
0.04
0.01
0.00
0.00
0.01
0.01
0.00
0.01
0.03
0.03
0.06
0.06
0.07
0.08
0.08
0.06
0.01
0.01
0.00
0.01
0.01
0.02
0.09
0.18
0.18
0.18
0.07
0.02
0.01
0.01
0.01
0.00
0.01
0.01
0.00
0.00
0.00
0.00
0.00
0.00
0.00
0.00
0.00
0.00
0.00
0.00
0.00
0.00
0.00
0.00
0.00
0.00
0.01
0.01
0.01
0.01
0.00
0.01
0.00
0.00
0.01
0.02
0.01
0.02
0.00
0.00
0.00
0.01
0.00
0.03
0.15
0.15
0.07
0.03
0.04
0.13
0.09
0.09
0.09
0.09
0.16
0.09
0.18
0.00
0.25
0.70
0.57
0.68
0.61
0.63
0.57
0.39
0.18
0.09
0.09
0.02
0.01
0.01
0.01
0.00
0.00
0.00
0.00
0.00
0.00
0.01
0.01
0.03
0.01
0.03
0.06
0.07
0.06
0.06
0.01
0.01
0.01
0.01
0.01
0.00
0.04
0.04
0.02
0.01
0.00
0.00
0.00
0.00
0.00
0.03
0.03
0.06
0.03
0.01
0.01
0.06
0.01
0.03
0.01
0.01
0.01
0.01
0.01
0.01
0.01
0.01
0.01
0.01
0.01
0.01
0.01
0.01
0.00
0.01
0.00
0.01
0.00
0.01
0.00
0.01
0.00
0.01
0.07
0.07
0.08
0.14
0.26
0.15
0.10
0.06
0.07
0.04
0.02
0.02
0.01
0.04
0.02
0.01
0.04
0.21
0.63
0.79
0.72
0.84
0.64
0.62
0.55
0.00
0.00
0.00
0.03
0.06
0.10
0.10
0.12
0.14
0.15
0.19
0.15
0.21
0.21
0.26
0.29
0.35
0.38
0.41
0.43
0.46
0.41
0.41
0.38
0.29
0.25
0.15
0.10
0.03
0.00
0.00
0.00
0.00
0.00
0.07
0.07
0.07
0.07
0.06
0.06
0.06
0.06
0.06
0.06
0.06
0.03
0.03
0.03
0.03
0.03
0.03
0.03
0.01
0.03
0.01
0.01
0.01
0.00
0.00
0.00
0.00
0.00
0.01
0.01
0.01
0.00
0.00
0.00
0.00
0.00
0.08
0.03
0.10
0.10
0.29
0.15
0.10
0.06
0.09
0.09
0.07
0.04
0.01
0.01
0.02
0.02
0.09
0.26
0.63
0.75
0.70
0.80
0.63
0.59
0.52
0.01
0.02
0.00
0.00
0.00
0.01
0.03
0.07
0.08
0.07
0.08
0.12
0.12
0.14
0.15
0.14
0.15
0.15
0.21
0.19
0.19
0.15
0.12
0.12
0.08
0.06
0.00
0.01
0.04
0.07
0.07
0.00
0.01
0.00
0.01
0.01
0.06
0.06
0.06
0.07
0.06
0.06
0.07
0.07
0.07
0.07
0.08
0.08
0.07
0.07
0.08
0.07
0.08
0.06
0.06
0.07
0.07
0.03
0.06
0.01
0.03
0.01
0.01
0.01
0.01
0.01
0.01
0.01
0.00
0.01
0.01
0.07
0.12
0.08
0.15
0.26
0.26
0.15
0.10
0.00
0.02
0.01
0.01
0.00
0.01
0.00
0.00
0.01
0.00
0.52
0.75
0.58
0.77
0.66
0.64
0.59
0.24
0.04
0.04
0.01
0.01
0.00
0.00
0.01
0.03
0.03
0.07
0.06
0.07
0.08
0.10
0.12
0.15
0.14
0.14
0.14
0.12
0.14
0.12
0.07
0.01
0.00
0.00
0.01
0.07
0.09
0.13
0.07
0.04
0.00
0.00
0.00
0.00
0.00
0.00
0.01
0.00
0.00
0.01
0.01
0.00
0.00
0.01
0.01
0.01
0.00
0.00
0.00
0.00
0.01
0.00
0.01
0.00
0.01
0.01
0.01
0.00
0.01
0.01
0.00
0.01
0.00
0.01
0.00
0.01
0.00
0.01
0.06
0.00
0.07
0.10
0.25
0.14
0.03
0.01
0.13
0.13
0.09
0.09
0.09
0.16
0.16
0.18
0.38
0.15
0.60
0.71
0.64
0.66
0.63
0.58
0.57
0.16
0.21
0.18
0.13
0.07
0.02
0.02
0.04
0.01
0.01
0.01
0.01
0.01
0.00
0.01
0.00
0.00
0.00
0.01
0.00
0.00
0.00
0.00
0.01
0.00
0.00
0.02
0.13
0.16
0.13
0.13
0.09
0.07
0.02
0.01
0.00
0.01
0.01
0.00
0.00
0.00
0.00
0.00
0.00
0.01
0.00
0.00
0.00
0.00
0.00
0.01
0.00
0.01
0.00
0.01
0.01
0.00
0.00
0.00
0.00
0.00
0.00
0.01
0.00
0.00
0.01
0.00
0.00
0.00
0.01
0.01
0.06
0.03
0.07
0.14
0.15
0.06
0.01
0.07
0.13
0.16
0.09
0.13
0.07
0.13
0.07
0.13
0.15
0.63
0.77
0.68
0.81
0.66
0.61
0.59
0.02
0.04
0.00
0.00
0.01
0.01
0.03
0.07
0.08
0.10
0.12
0.14
0.15
0.15
0.21
0.25
0.29
0.32
0.38
0.43
0.46
0.43
0.38
0.35
0.35
0.26
0.19
0.08
0.03
0.01
0.00
0.01
0.00
0.01
0.03
0.06
0.08
0.08
0.08
0.07
0.07
0.07
0.07
0.07
0.08
0.06
0.08
0.08
0.10
0.08
0.10
0.08
0.10
0.08
0.12
0.08
0.08
0.07
0.08
0.06
0.06
0.07
0.06
0.03
0.03
0.01
0.01
0.01
0.03
0.07
0.08
0.03
0.12
0.21
0.21
0.10
0.03
0.04
0.13
0.07
0.04
0.02
0.02
0.04
0.09
0.09
0.00
0.50
0.75
0.58
0.81
0.73
0.65
0.58
0.28
0.07
0.07
0.00
0.00
0.00
0.00
0.01
0.01
0.06
0.03
0.07
0.07
0.07
0.08
0.08
0.12
0.12
0.15
0.15
0.15
0.15
0.14
0.12
0.08
0.06
0.00
0.00
0.04
0.09
0.13
0.09
0.07
0.02
0.00
0.00
0.00
0.01
0.01
0.00
0.00
0.01
0.01
0.01
0.01
0.01
0.01
0.01
0.03
0.01
0.06
0.03
0.07
0.06
0.03
0.01
0.01
0.01
0.01
0.01
0.00
0.00
0.00
0.01
0.01
0.00
0.01
0.00
0.01
0.01
0.01
0.00
0.00
0.03
0.00
0.07
0.06
0.21
0.12
0.03
0.00
0.16
0.16
0.09
0.02
0.01
0.04
0.02
0.09
0.18
0.43
0.67
0.07
0.77
0.77
0.64
0.58
0.44
0.01
0.04
0.01
0.00
0.01
0.01
0.03
0.01
0.03
0.03
0.03
0.07
0.08
0.08
0.08
0.10
0.10
0.14
0.12
0.14
0.12
0.08
0.06
0.03
0.00
0.00
0.01
0.07
0.16
0.21
0.16
0.09
0.07
0.02
0.00
0.00
0.00
0.00
0.00
0.00
0.01
0.00
0.00
0.01
0.01
0.01
0.01
0.03
0.01
0.01
0.01
0.01
0.01
0.01
0.01
0.01
0.00
0.01
0.01
0.00
0.00
0.00
0.00
0.02
0.00
0.01
0.00
0.01
0.01
0.02
0.01
0.00
0.00
0.01
0.01
0.21
0.14
0.01
0.00
0.09
0.16
0.16
0.18
0.13
0.16
0.16
0.16
0.28
0.03
0.50
0.75
0.61
0.68
0.63
0.61
0.58
0.16
0.21
0.16
0.09
0.04
0.04
0.01
0.01
0.01
0.00
0.00
0.01
0.00
0.01
0.00
0.01
0.01
0.00
0.01
0.01
0.01
0.01
0.00
0.01
0.00
0.01
0.00
0.04
0.09
0.13
0.07
0.04
0.04
0.04
0.01
0.01
0.00
0.00
0.00
0.00
0.00
0.00
0.00
0.01
0.00
0.01
0.01
0.00
0.01
0.01
0.01
0.01
0.00
0.00
0.00
0.00
0.00
0.01
0.00
0.00
0.01
0.00
0.01
0.01
0.00
0.00
0.01
0.00
0.00
0.00
0.06
0.00
0.08
0.06
0.25
0.15
0.06
0.01
0.09
0.13
0.09
0.09
0.09
0.18
0.13
0.18
0.21
0.10
0.60
0.74
0.65
0.70
0.65
0.60
0.58
0.18
0.16
0.01
0.01
0.00
0.00
0.03
0.03
0.06
0.10
0.08
0.12
0.14
0.15
0.21
0.25
0.26
0.35
0.38
0.46
0.46
0.49
0.47
0.46
0.41
0.29
0.25
0.15
0.03
0.01
0.01
0.01
0.00
0.01
0.01
0.01
0.03
0.06
0.06
0.08
0.08
0.08
0.07
0.08
0.08
0.10
0.08
0.10
0.08
0.08
0.10
0.10
0.10
0.07
0.07
0.06
0.07
0.06
0.07
0.06
0.06
0.03
0.03
0.01
0.03
0.03
0.01
0.01
0.01
0.01
0.03
0.10
0.12
0.08
0.15
0.21
0.35
0.15
0.08
0.00
0.04
0.02
0.01
0.00
0.00
0.00
0.01
0.01
0.01
0.53
0.71
0.01
0.79
0.85
0.64
0.58
0.44
0.01
0.01
0.00
0.01
0.07
0.06
0.08
0.08
0.10
0.14
0.15
0.15
0.15
0.19
0.21
0.25
0.29
0.32
0.32
0.38
0.35
0.35
0.32
0.26
0.21
0.19
0.12
0.07
0.01
0.01
0.00
0.01
0.00
0.03
0.06
0.08
0.10
0.07
0.08
0.10
0.07
0.08
0.07
0.07
0.06
0.08
0.07
0.08
0.08
0.07
0.07
0.07
0.08
0.07
0.07
0.03
0.01
0.01
0.01
0.01
0.00
0.01
0.00
0.00
0.00
0.00
0.00
0.00
0.00
0.01
0.00
0.01
0.01
0.06
0.00
0.06
0.08
0.21
0.10
0.01
0.00
0.18
0.18
0.16
0.09
0.04
0.13
0.09
0.07
0.21
0.32
0.63
0.65
0.77
0.83
0.64
0.58
0.52
0.04
0.09
0.01
0.01
0.00
0.00
0.01
0.01
0.03
0.06
0.06
0.06
0.07
0.07
0.10
0.12
0.10
0.12
0.12
0.14
0.14
0.14
0.12
0.07
0.01
0.00
0.00
0.01
0.07
0.09
0.04
0.02
0.01
0.00
0.01
0.03
0.03
0.01
0.06
0.01
0.06
0.03
0.03
0.03
0.06
0.06
0.07
0.08
0.06
0.06
0.06
0.08
0.08
0.06
0.03
0.01
0.00
0.00
0.00
0.00
0.00
0.00
0.00
0.00
0.00
0.01
0.00
0.00
0.00
0.00
0.01
0.01
0.01
0.00
0.03
0.01
0.07
0.03
0.21
0.10
0.01
0.00
0.21
0.13
0.13
0.04
0.04
0.04
0.04
0.02
0.24
0.38
0.65
0.63
0.69
0.73
0.61
0.58
0.51
0.07
0.09
0.02
0.01
0.00
0.01
0.01
0.00
0.01
0.03
0.01
0.01
0.03
0.03
0.03
0.01
0.01
0.03
0.01
0.01
0.01
0.01
0.00
0.00
0.02
0.01
0.02
0.09
0.18
0.13
0.18
0.13
0.07
0.02
0.07
0.00
0.00
0.00
0.00
0.00
0.00
0.03
0.00
0.00
0.01
0.01
0.01
0.03
0.01
0.00
0.03
0.01
0.00
0.00
0.00
0.01
0.00
0.00
0.00
0.00
0.00
0.00
0.00
0.00
0.01
0.01
0.01
0.02
0.01
0.00
0.00
0.01
0.01
0.03
0.07
0.21
0.14
0.06
0.00
0.13
0.16
0.09
0.09
0.09
0.16
0.16
0.21
0.38
0.15
0.63
0.60
0.64
0.65
0.64
0.58
0.57
0.13
0.18
0.07
0.04
0.00
0.00
0.01
0.00
0.00
0.00
0.01
0.01
0.01
0.03
0.01
0.06
0.07
0.07
0.08
0.08
0.08
0.08
0.08
0.07
0.06
0.01
0.00
0.01
0.02
0.02
0.02
0.04
0.04
0.00
0.01
0.00
0.01
0.01
0.00
0.01
0.03
0.06
0.03
0.03
0.03
0.03
0.03
0.06
0.06
0.01
0.01
0.00
0.01
0.01
0.00
0.00
0.01
0.01
0.01
0.00
0.00
0.01
0.01
0.00
0.00
0.01
0.01
0.00
0.01
0.00
0.07
0.03
0.10
0.12
0.26
0.15
0.07
0.03
0.07
0.07
0.04
0.02
0.01
0.02
0.02
0.02
0.02
0.26
0.63
0.76
0.77
0.86
0.65
0.62
0.55
0.02
0.02
0.01
0.00
0.00
0.01
0.01
0.06
0.06
0.07
0.08
0.10
0.12
0.15
0.19
0.21
0.21
0.26
0.29
0.29
0.35
0.32
0.29
0.26
0.21
0.15
0.12
0.06
0.00
0.07
0.09
0.09
0.04
0.02
0.02
0.02
0.00
0.01
0.01
0.00
0.00
0.02
0.02
0.01
0.00
0.01
0.01
0.00
0.00
0.00
0.01
0.01
0.01
0.01
0.01
0.00
0.00
0.01
0.01
0.00
0.00
0.01
0.00
0.00
0.00
0.01
0.00
0.01
0.00
0.03
0.01
0.03
0.07
0.19
0.15
0.07
0.01
0.07
0.09
0.09
0.02
0.01
0.01
0.02
0.02
0.04
0.12
0.59
0.80
0.64
0.78
0.65
0.61
0.57
0.04
0.02
0.01
0.00
0.00
0.01
0.01
0.03
0.03
0.06
0.07
0.08
0.10
0.12
0.12
0.15
0.15
0.15
0.19
0.15
0.15
0.14
0.15
0.14
0.10
0.06
0.01
0.00
0.02
0.07
0.07
0.04
0.02
0.01
0.01
0.00
0.01
0.00
0.00
0.00
0.00
0.00
0.00
0.00
0.00
0.00
0.01
0.03
0.01
0.03
0.03
0.01
0.06
0.03
0.01
0.03
0.01
0.01
0.01
0.01
0.00
0.00
0.00
0.00
0.00
0.00
0.01
0.01
0.01
0.01
0.10
0.06
0.14
0.12
0.32
0.15
0.07
0.03
0.09
0.07
0.07
0.02
0.02
0.04
0.04
0.09
0.13
0.25
0.61
0.73
0.73
0.77
0.61
0.58
0.52
0.01
0.04
0.01
0.00
0.00
0.01
0.01
0.03
0.03
0.03
0.03
0.03
0.07
0.06
0.06
0.07
0.08
0.07
0.12
0.10
0.10
0.07
0.06
0.01
0.01
0.00
0.00
0.07
0.18
0.18
0.18
0.09
0.07
0.02
0.00
0.01
0.00
0.00
0.01
0.01
0.00
0.01
0.01
0.01
0.00
0.01
0.00
0.02
0.00
0.01
0.02
0.01
0.02
0.04
0.02
0.02
0.04
0.02
0.07
0.09
0.07
0.09
0.09
0.09
0.09
0.09
0.16
0.09
0.13
0.07
0.01
0.07
0.01
0.00
0.15
0.07
0.00
0.00
0.24
0.32
0.24
0.21
0.21
0.24
0.24
0.24
0.39
0.06
0.47
0.73
0.64
0.69
0.64
0.59
0.58
0.38
0.39
0.35
0.28
0.21
0.18
0.18
0.18
0.04
0.04
0.02
0.02
0.04
0.04
0.00
0.01
0.00
0.01
0.01
0.02
0.01
0.00
0.00
0.02
0.07
0.09
0.07
0.13
0.18
0.21
0.18
0.16
0.13
0.09
0.02
0.02
0.02
0.02
0.01
0.01
0.00
0.01
0.01
0.00
0.01
0.00
0.01
0.01
0.01
0.00
0.00
0.01
0.01
0.01
0.01
0.02
0.01
0.01
0.01
0.02
0.01
0.04
0.01
0.01
0.00
0.02
0.04
0.00
0.00
0.01
0.03
0.08
0.15
0.07
0.01
0.01
0.13
0.09
0.13
0.18
0.18
0.16
0.18
0.18
0.02
0.21
0.69
0.54
0.68
0.64
0.61
0.57
0.45
0.13
0.07
0.04
0.01
0.01
0.01
0.00
0.01
0.03
0.03
0.06
0.08
0.10
0.15
0.15
0.21
0.21
0.26
0.29
0.41
0.41
0.41
0.38
0.35
0.25
0.21
0.10
0.03
0.00
0.00
0.01
0.00
0.01
0.01
0.00
0.01
0.01
0.03
0.03
0.06
0.03
0.06
0.01
0.06
0.01
0.01
0.01
0.01
0.01
0.00
0.00
0.00
0.00
0.00
0.00
0.00
0.00
0.01
0.01
0.00
0.00
0.01
0.00
0.00
0.01
0.02
0.01
0.01
0.00
0.03
0.01
0.21
0.08
0.01
0.00
0.24
0.24
0.24
0.21
0.16
0.18
0.16
0.16
0.18
0.14
0.59
0.77
0.75
0.88
0.70
0.65
0.59
0.13
0.07
0.02
0.01
0.00
0.00
0.01
0.03
0.06
0.06
0.07
0.08
0.12
0.12
0.15
0.19
0.19
0.21
0.26
0.26
0.29
0.32
0.29
0.26
0.21
0.21
0.14
0.07
0.00
0.00
0.01
0.00
0.00
0.01
0.01
0.06
0.07
0.07
0.07
0.07
0.06
0.06
0.07
0.06
0.06
0.07
0.03
0.07
0.07
0.06
0.07
0.07
0.07
0.08
0.10
0.08
0.08
0.08
0.06
0.06
0.08
0.07
0.03
0.01
0.01
0.01
0.01
0.03
0.08
0.10
0.07
0.15
0.25
0.35
0.15
0.08
0.00
0.04
0.02
0.01
0.00
0.01
0.02
0.02
0.02
0.00
0.53
0.75
0.58
0.79
0.75
0.64
0.58
0.28
0.00
0.01
0.01
0.01
0.01
0.03
0.03
0.01
0.06
0.07
0.08
0.10
0.12
0.12
0.15
0.19
0.19
0.21
0.21
0.25
0.21
0.21
0.15
0.12
0.10
0.06
0.00
0.01
0.02
0.04
0.02
0.01
0.01
0.00
0.01
0.00
0.01
0.00
0.01
0.01
0.01
0.00
0.00
0.00
0.00
0.01
0.01
0.01
0.01
0.01
0.01
0.03
0.01
0.01
0.01
0.00
0.01
0.00
0.00
0.00
0.00
0.01
0.00
0.00
0.01
0.00
0.01
0.01
0.00
0.01
0.07
0.01
0.10
0.10
0.25
0.12
0.01
0.01
0.13
0.21
0.18
0.09
0.07
0.09
0.09
0.16
0.24
0.35
0.65
0.07
0.77
0.75
0.64
0.58
0.46
0.24
0.16
0.16
0.13
0.09
0.07
0.04
0.01
0.01
0.07
0.00
0.00
0.01
0.01
0.01
0.00
0.01
0.01
0.01
0.00
0.04
0.09
0.09
0.13
0.16
0.21
0.28
0.32
0.32
0.28
0.21
0.18
0.07
0.04
0.00
0.00
0.01
0.00
0.00
0.01
0.00
0.00
0.01
0.01
0.01
0.00
0.01
0.07
0.01
0.02
0.18
0.38
0.49
0.55
0.54
0.46
0.81
0.94
0.98
0.97
0.93
0.93
0.94
0.97
0.94
0.86
0.43
0.38
0.21
0.38
0.44
0.41
0.49
0.54
0.57
0.58
0.58
0.58
0.60
0.62
0.61
0.60
0.64
0.65
0.68
0.72
0.74
0.77
0.77
0.73
0.68
0.64
0.62
0.58
0.57
0.50
0.41
0.32
0.16
0.21
0.13
0.16
0.13
0.04
0.04
0.04
0.04
0.07
0.02
0.01
0.00
0.00
0.01
0.00
0.00
0.01
0.01
0.01
0.01
0.02
0.02
0.00
0.01
0.01
0.00
0.01
0.01
0.00
0.00
0.00
0.00
0.00
0.01
0.01
0.00
0.01
0.01
0.01
0.00
0.01
0.00
0.00
0.01
0.01
0.00
0.00
0.00
0.00
0.00
0.01
0.00
0.00
0.01
0.01
0.01
0.01
0.01
0.01
0.01
0.01
0.01
0.01
0.06
0.08
0.07
0.15
0.25
0.21
0.21
0.12
0.01
0.01
0.01
0.00
0.00
0.00
0.00
0.00
0.00
0.15
0.60
0.79
0.61
0.77
0.66
0.61
0.58
0.04
0.00
0.06
0.08
0.12
0.14
0.12
0.15
0.15
0.21
0.21
0.21
0.26
0.32
0.38
0.43
0.47
0.50
0.53
0.59
0.63
0.63
0.65
0.65
0.65
0.65
0.65
0.63
0.56
0.38
0.21
0.10
0.07
0.06
0.07
0.07
0.08
0.12
0.15
0.19
0.15
0.19
0.19
0.15
0.21
0.25
0.26
0.26
0.25
0.26
0.29
0.29
0.26
0.26
0.25
0.25
0.14
0.09
0.44
0.59
0.50
0.38
0.90
0.98
1.00
1.00
1.00
1.00
0.98
0.98
1.00
0.99
0.94
0.87
0.19
0.41
0.54
0.57
0.58
0.58
0.60
0.60
0.62
0.61
0.63
0.65
0.66
0.70
0.77
0.82
0.88
0.90
0.90
0.92
0.93
0.93
0.93
0.91
0.89
0.81
0.68
0.61
0.58
0.54
0.44
0.24
0.07
0.01
0.01
0.01
0.01
0.00
0.00
0.00
0.01
0.00
0.00
0.00
0.00
0.00
0.00
0.00
0.00
0.00
0.01
0.00
0.01
0.01
0.00
0.01
0.01
0.03
0.01
0.01
0.01
0.03
0.01
0.03
0.01
0.01
0.00
0.01
0.01
0.01
0.00
0.00
0.00
0.00
0.01
0.00
0.01
0.00
0.00
0.01
0.01
0.01
0.01
0.00
0.01
0.08
0.03
0.12
0.21
0.21
0.15
0.08
0.00
0.02
0.04
0.07
0.02
0.04
0.09
0.04
0.09
0.07
0.41
0.79
0.60
0.78
0.70
0.64
0.58
0.32
0.18
0.13
0.07
0.02
0.01
0.00
0.01
0.00
0.00
0.01
0.00
0.01
0.03
0.08
0.07
0.07
0.07
0.10
0.14
0.15
0.15
0.15
0.19
0.15
0.15
0.15
0.15
0.06
0.00
0.09
0.21
0.24
0.18
0.21
0.16
0.16
0.16
0.13
0.16
0.16
0.16
0.16
0.16
0.13
0.13
0.13
0.13
0.16
0.16
0.16
0.09
0.16
0.13
0.13
0.16
0.16
0.13
0.16
0.21
0.24
0.21
0.13
0.07
0.13
0.00
0.00
0.03
0.03
0.00
0.07
0.24
0.28
0.35
0.35
0.38
0.38
0.35
0.39
0.48
0.00
0.53
0.19
0.68
0.65
0.65
0.60
0.57
0.39
0.39
0.38
0.32
0.32
0.32
0.24
0.28
0.18
0.18
0.24
0.13
0.13
0.16
0.16
0.16
0.21
0.18
0.18
0.16
0.16
0.18
0.21
0.13
0.18
0.21
0.28
0.28
0.38
0.35
0.24
0.35
0.28
0.21
0.21
0.18
0.13
0.21
0.16
0.18
0.18
0.21
0.18
0.18
0.21
0.24
0.24
0.28
0.24
0.24
0.21
0.21
0.24
0.24
0.21
0.18
0.21
0.18
0.18
0.18
0.16
0.09
0.09
0.01
0.02
0.00
0.01
0.15
0.08
0.06
0.00
0.13
0.18
0.24
0.18
0.16
0.21
0.24
0.21
0.35
0.10
0.59
0.71
0.65
0.77
0.67
0.63
0.58
0.35
0.21
0.13
0.09
0.02
0.01
0.01
0.01
0.00
0.00
0.03
0.07
0.12
0.12
0.15
0.25
0.29
0.41
0.41
0.49
0.50
0.53
0.56
0.53
0.52
0.43
0.29
0.15
0.10
0.01
0.01
0.02
0.01
0.01
0.01
0.01
0.00
0.00
0.00
0.00
0.00
0.01
0.01
0.00
0.01
0.01
0.00
0.00
0.00
0.00
0.01
0.01
0.01
0.00
0.01
0.01
0.00
0.01
0.01
0.01
0.01
0.00
0.07
0.07
0.08
0.14
0.35
0.21
0.21
0.07
0.00
0.01
0.07
0.01
0.01
0.04
0.07
0.07
0.04
0.21
0.63
0.75
0.79
0.90
0.67
0.61
0.57
0.18
0.09
0.07
0.02
0.01
0.01
0.01
0.00
0.00
0.01
0.01
0.01
0.06
0.07
0.12
0.14
0.14
0.19
0.21
0.25
0.32
0.29
0.29
0.25
0.21
0.15
0.12
0.01
0.01
0.00
0.02
0.02
0.00
0.00
0.00
0.00
0.00
0.00
0.01
0.00
0.00
0.00
0.00
0.01
0.01
0.01
0.03
0.03
0.06
0.06
0.08
0.10
0.08
0.07
0.07
0.07
0.07
0.07
0.07
0.07
0.03
0.03
0.01
0.06
0.10
0.12
0.10
0.14
0.32
0.25
0.15
0.07
0.01
0.02
0.04
0.01
0.01
0.01
0.01
0.01
0.02
0.03
0.56
0.79
0.62
0.84
0.73
0.64
0.57
0.18
0.01
0.00
0.00
0.07
0.06
0.08
0.08
0.12
0.14
0.15
0.15
0.15
0.19
0.21
0.21
0.25
0.26
0.21
0.26
0.21
0.26
0.21
0.21
0.15
0.12
0.07
0.01
0.01
0.01
0.01
0.01
0.01
0.01
0.07
0.06
0.06
0.08
0.06
0.03
0.07
0.06
0.07
0.03
0.06
0.06
0.08
0.08
0.08
0.08
0.06
0.07
0.07
0.06
0.03
0.01
0.01
0.01
0.01
0.00
0.01
0.00
0.00
0.00
0.00
0.00
0.01
0.01
0.08
0.00
0.12
0.19
0.29
0.46
0.41
0.43
0.71
0.71
0.77
0.81
0.90
0.94
0.94
0.93
0.93
0.93
0.94
0.91
0.65
0.12
0.38
0.38
0.45
0.52
0.54
0.55
0.57
0.58
0.58
0.58
0.58
0.59
0.61
0.62
0.61
0.64
0.65
0.67
0.68
0.68
0.67
0.67
0.64
0.63
0.62
0.60
0.57
0.57
0.49
0.43
0.24
0.16
0.07
0.07
0.02
0.04
0.09
0.07
0.07
0.13
0.09
0.02
0.09
0.13
0.04
0.13
0.09
0.07
0.09
0.04
0.02
0.09
0.04
0.07
0.13
0.04
0.02
0.09
0.09
0.02
0.02
0.04
0.04
0.04
0.07
0.01
0.01
0.02
0.02
0.02
0.00
0.00
0.00
0.03
0.14
0.12
0.07
0.01
0.02
0.13
0.16
0.18
0.21
0.18
0.16
0.18
0.24
0.01
0.38
0.70
0.58
0.73
0.66
0.61
0.58
0.39
0.07
0.01
0.00
0.00
0.01
0.03
0.07
0.10
0.10
0.14
0.14
0.21
0.25
0.29
0.35
0.41
0.43
0.52
0.56
0.60
0.63
0.61
0.63
0.61
0.60
0.52
0.41
0.21
0.14
0.06
0.06
0.01
0.01
0.01
0.03
0.06
0.03
0.07
0.03
0.03
0.06
0.03
0.06
0.03
0.06
0.06
0.06
0.07
0.07
0.07
0.06
0.08
0.07
0.07
0.07
0.07
0.07
0.07
0.03
0.03
0.06
0.01
0.03
0.08
0.10
0.10
0.19
0.29
0.29
0.15
0.10
0.00
0.02
0.04
0.04
0.04
0.09
0.09
0.09
0.09
0.01
0.60
0.77
0.64
0.89
0.80
0.68
0.58
0.28
0.07
0.04
0.01
0.00
0.01
0.01
0.03
0.06
0.07
0.12
0.12
0.15
0.19
0.21
0.26
0.29
0.29
0.38
0.46
0.38
0.43
0.38
0.35
0.26
0.21
0.14
0.06
0.00
0.00
0.01
0.01
0.00
0.00
0.01
0.01
0.01
0.03
0.03
0.06
0.03
0.01
0.01
0.06
0.06
0.06
0.08
0.06
0.06
0.10
0.10
0.12
0.08
0.07
0.07
0.06
0.06
0.01
0.03
0.01
0.00
0.01
0.01
0.00
0.01
0.01
0.00
0.00
0.00
0.06
0.00
0.07
0.03
0.21
0.12
0.01
0.00
0.18
0.18
0.16
0.13
0.09
0.09
0.13
0.16
0.16
0.29
0.63
0.68
0.79
0.88
0.65
0.59
0.52
0.04
0.04
0.01
0.00
0.00
0.01
0.01
0.01
0.07
0.08
0.10
0.12
0.15
0.15
0.15
0.15
0.21
0.25
0.25
0.25
0.26
0.26
0.21
0.21
0.15
0.12
0.01
0.01
0.00
0.01
0.02
0.01
0.01
0.00
0.00
0.01
0.01
0.01
0.01
0.01
0.01
0.03
0.01
0.03
0.01
0.06
0.06
0.07
0.07
0.06
0.06
0.03
0.06
0.06
0.03
0.03
0.01
0.01
0.00
0.00
0.00
0.01
0.00
0.00
0.01
0.00
0.00
0.00
0.01
0.02
0.01
0.01
0.00
0.00
0.00
0.06
0.12
0.10
0.06
0.00
0.13
0.18
0.16
0.18
0.16
0.18
0.18
0.16
0.16
0.01
0.49
0.74
0.61
0.77
0.68
0.64
0.58
0.38
0.21
0.16
0.07
0.04
0.02
0.01
0.00
0.00
0.01
0.00
0.01
0.00
0.01
0.01
0.07
0.08
0.07
0.10
0.10
0.08
0.10
0.08
0.07
0.03
0.01
0.00
0.00
0.00
0.04
0.04
0.04
0.07
0.01
0.00
0.00
0.01
0.01
0.00
0.01
0.01
0.00
0.00
0.01
0.00
0.01
0.00
0.00
0.01
0.00
0.00
0.00
0.00
0.00
0.01
0.02
0.02
0.02
0.04
0.02
0.04
0.04
0.09
0.13
0.07
0.07
0.09
0.13
0.13
0.04
0.00
0.07
0.00
0.00
0.12
0.06
0.00
0.00
0.24
0.24
0.21
0.16
0.13
0.16
0.18
0.24
0.39
0.12
0.63
0.63
0.66
0.68
0.65
0.58
0.57
0.18
0.21
0.16
0.09
0.04
0.02
0.00
0.01
0.00
0.01
0.00
0.01
0.01
0.03
0.08
0.03
0.10
0.14
0.15
0.15
0.15
0.15
0.15
0.15
0.12
0.08
0.06
0.00
0.01
0.04
0.00
0.01
0.01
0.00
0.00
0.00
0.00
0.00
0.01
0.01
0.06
0.01
0.06
0.06
0.03
0.03
0.06
0.06
0.06
0.03
0.03
0.01
0.03
0.01
0.01
0.01
0.01
0.01
0.01
0.01
0.01
0.01
0.01
0.00
0.01
0.01
0.01
0.00
0.00
0.00
0.01
0.01
0.07
0.07
0.08
0.12
0.26
0.21
0.12
0.06
0.02
0.07
0.07
0.09
0.04
0.07
0.07
0.07
0.04
0.12
0.61
0.79
0.68
0.86
0.69
0.64
0.57
0.09
0.04
0.02
0.01
0.00
0.01
0.03
0.03
0.06
0.06
0.08
0.10
0.10
0.15
0.15
0.19
0.21
0.25
0.26
0.26
0.29
0.29
0.25
0.21
0.19
0.15
0.10
0.03
0.01
0.01
0.04
0.07
0.02
0.01
0.01
0.01
0.01
0.03
0.03
0.01
0.06
0.03
0.06
0.03
0.03
0.06
0.08
0.08
0.10
0.10
0.10
0.10
0.12
0.12
0.12
0.10
0.08
0.07
0.07
0.06
0.06
0.01
0.01
0.01
0.01
0.03
0.01
0.00
0.00
0.00
0.00
0.00
0.00
0.01
0.00
0.00
0.01
0.08
0.03
0.14
0.15
0.25
0.12
0.06
0.00
0.04
0.07
0.04
0.02
0.02
0.04
0.02
0.07
0.13
0.46
0.65
0.06
0.78
0.77
0.65
0.58
0.38
0.02
0.01
0.00
0.00
0.00
0.01
0.06
0.03
0.06
0.07
0.07
0.08
0.10
0.14
0.14
0.15
0.15
0.19
0.19
0.21
0.19
0.19
0.15
0.14
0.10
0.07
0.01
0.01
0.02
0.04
0.02
0.01
0.00
0.00
0.00
0.01
0.03
0.06
0.03
0.01
0.01
0.03
0.01
0.06
0.03
0.03
0.06
0.07
0.08
0.10
0.08
0.08
0.06
0.07
0.06
0.06
0.06
0.03
0.01
0.01
0.01
0.01
0.00
0.00
0.00
0.00
0.00
0.00
0.00
0.00
0.01
0.01
0.01
0.00
0.00
0.00
0.00
0.00
0.01
0.07
0.03
0.10
0.21
0.15
0.08
0.01
0.04
0.09
0.04
0.07
0.02
0.04
0.07
0.09
0.13
0.00
0.38
0.73
0.58
0.70
0.65
0.61
0.58
0.32
0.24
0.13
0.09
0.09
0.04
0.00
0.00
0.01
0.00
0.01
0.00
0.00
0.00
0.00
0.01
0.00
0.01
0.01
0.01
0.01
0.01
0.00
0.01
0.01
0.00
0.00
0.02
0.07
0.16
0.09
0.16
0.07
0.04
0.07
0.00
0.00
0.00
0.01
0.01
0.00
0.01
0.00
0.00
0.01
0.00
0.01
0.01
0.01
0.01
0.00
0.01
0.01
0.00
0.01
0.00
0.01
0.01
0.01
0.07
0.01
0.01
0.02
0.01
0.01
0.02
0.02
0.02
0.04
0.04
0.04
0.04
0.02
0.01
0.00
0.01
0.00
0.03
0.01
0.21
0.14
0.06
0.01
0.09
0.09
0.13
0.04
0.07
0.09
0.09
0.09
0.24
0.15
0.59
0.71
0.60
0.66
0.64
0.58
0.59
0.16
0.18
0.04
0.01
0.00
0.00
0.00
0.01
0.01
0.03
0.06
0.07
0.10
0.08
0.14
0.15
0.19
0.25
0.26
0.32
0.35
0.41
0.38
0.38
0.32
0.25
0.15
0.10
0.01
0.00
0.01
0.01
0.00
0.01
0.00
0.01
0.03
0.03
0.03
0.03
0.03
0.07
0.07
0.07
0.07
0.07
0.07
0.08
0.08
0.07
0.08
0.07
0.06
0.07
0.07
0.07
0.06
0.06
0.06
0.06
0.03
0.03
0.01
0.01
0.01
0.01
0.01
0.01
0.00
0.00
0.01
0.00
0.01
0.00
0.06
0.10
0.07
0.15
0.15
0.35
0.15
0.08
0.01
0.02
0.02
0.04
0.00
0.00
0.01
0.00
0.00
0.04
0.47
0.65
0.53
0.77
0.84
0.64
0.58
0.44
0.01
0.00
0.01
0.01
0.01
0.03
0.06
0.08
0.10
0.14
0.14
0.15
0.14
0.21
0.21
0.25
0.25
0.29
0.29
0.35
0.41
0.35
0.32
0.29
0.21
0.15
0.10
0.03
0.00
0.01
0.02
0.02
0.01
0.00
0.01
0.03
0.06
0.06
0.07
0.08
0.03
0.03
0.07
0.03
0.06
0.06
0.08
0.07
0.08
0.07
0.07
0.08
0.07
0.07
0.07
0.06
0.01
0.01
0.00
0.01
0.00
0.00
0.00
0.00
0.00
0.01
0.01
0.01
0.01
0.00
0.01
0.01
0.01
0.00
0.01
0.01
0.00
0.00
0.03
0.01
0.08
0.07
0.19
0.10
0.01
0.02
0.18
0.16
0.13
0.09
0.04
0.09
0.09
0.07
0.16
0.38
0.65
0.01
0.75
0.77
0.64
0.58
0.48
0.07
0.13
0.04
0.00
0.01
0.00
0.00
0.00
0.01
0.06
0.03
0.08
0.08
0.14
0.14
0.15
0.19
0.21
0.21
0.21
0.21
0.21
0.19
0.15
0.14
0.08
0.03
0.00
0.04
0.09
0.09
0.07
0.01
0.00
0.01
0.01
0.01
0.01
0.01
0.00
0.01
0.01
0.00
0.01
0.00
0.01
0.01
0.01
0.01
0.01
0.00
0.01
0.01
0.01
0.01
0.00
0.00
0.01
0.00
0.00
0.00
0.00
0.00
0.00
0.01
0.00
0.00
0.01
0.02
0.00
0.00
0.00
0.00
0.00
0.00
0.00
0.01
0.00
0.06
0.01
0.07
0.10
0.14
0.07
0.00
0.07
0.21
0.24
0.21
0.18
0.18
0.21
0.32
0.32
0.38
0.21
0.63
0.24
0.73
0.70
0.64
0.58
0.49
0.32
0.35
0.24
0.18
0.13
0.09
0.07
0.04
0.07
0.07
0.02
0.01
0.00
0.01
0.01
0.01
0.00
0.00
0.00
0.00
0.00
0.01
0.00
0.01
0.00
0.07
0.09
0.13
0.18
0.24
0.18
0.18
0.09
0.13
0.07
0.02
0.00
0.01
0.01
0.02
0.02
0.00
0.01
0.02
0.04
0.01
0.02
0.00
0.00
0.01
0.01
0.02
0.00
0.01
0.04
0.04
0.01
0.02
0.00
0.02
0.04
0.00
0.04
0.04
0.07
0.07
0.02
0.07
0.09
0.07
0.13
0.07
0.04
0.09
0.07
0.04
0.01
0.01
0.01
0.00
0.12
0.08
0.00
0.00
0.09
0.18
0.18
0.16
0.24
0.24
0.21
0.24
0.32
0.02
0.15
0.65
0.58
0.69
0.64
0.61
0.58
0.46
0.32
0.24
0.21
0.16
0.13
0.09
0.04
0.02
0.01
0.01
0.01
0.01
0.00
0.01
0.01
0.03
0.03
0.07
0.10
0.12
0.14
0.14
0.12
0.10
0.10
0.07
0.01
0.01
0.02
0.09
0.07
0.04
0.02
0.01
0.01
0.00
0.01
0.01
0.01
0.01
0.03
0.03
0.06
0.03
0.03
0.03
0.03
0.01
0.06
0.01
0.01
0.00
0.00
0.01
0.00
0.01
0.00
0.00
0.00
0.02
0.01
0.01
0.02
0.02
0.02
0.07
0.02
0.02
0.04
0.07
0.07
0.09
0.04
0.02
0.07
0.00
0.00
0.02
0.03
0.03
0.15
0.06
0.00
0.04
0.24
0.21
0.18
0.13
0.09
0.16
0.13
0.18
0.18
0.35
0.65
0.21
0.77
0.79
0.64
0.58
0.44
0.07
0.07
0.02
0.01
0.00
0.01
0.03
0.01
0.06
0.08
0.10
0.14
0.14
0.15
0.19
0.25
0.25
0.26
0.32
0.32
0.32
0.29
0.29
0.21
0.15
0.14
0.07
0.00
0.00
0.07
0.09
0.09
0.04
0.00
0.01
0.00
0.01
0.00
0.01
0.00
0.00
0.00
0.00
0.01
0.00
0.01
0.01
0.01
0.03
0.03
0.03
0.06
0.07
0.06
0.06
0.06
0.01
0.01
0.03
0.01
0.01
0.00
0.00
0.00
0.00
0.00
0.00
0.00
0.01
0.00
0.00
0.01
0.01
0.00
0.00
0.01
0.07
0.06
0.07
0.10
0.25
0.15
0.06
0.01
0.07
0.09
0.07
0.07
0.02
0.02
0.04
0.07
0.13
0.15
0.52
0.75
0.68
0.77
0.63
0.61
0.55
0.04
0.07
0.01
0.01
0.00
0.00
0.01
0.06
0.06
0.07
0.07
0.08
0.10
0.12
0.12
0.15
0.15
0.15
0.15
0.15
0.15
0.15
0.15
0.12
0.10
0.07
0.00
0.01
0.09
0.16
0.16
0.13
0.09
0.07
0.04
0.02
0.00
0.01
0.01
0.00
0.00
0.00
0.00
0.01
0.01
0.01
0.00
0.00
0.00
0.01
0.00
0.00
0.00
0.00
0.00
0.00
0.00
0.00
0.00
0.01
0.00
0.01
0.00
0.01
0.01
0.00
0.00
0.01
0.01
0.00
0.01
0.01
0.00
0.01
0.00
0.00
0.01
0.01
0.01
0.01
0.00
0.03
0.12
0.08
0.00
0.00
0.18
0.24
0.21
0.24
0.18
0.18
0.18
0.18
0.21
0.01
0.43
0.76
0.61
0.73
0.65
0.61
0.58
0.24
0.18
0.09
0.09
0.02
0.01
0.01
0.01
0.00
0.00
0.01
0.01
0.00
0.00
0.00
0.00
0.00
0.01
0.00
0.00
0.01
0.01
0.02
0.04
0.07
0.09
0.13
0.21
0.28
0.35
0.32
0.32
0.24
0.21
0.16
0.07
0.04
0.04
0.02
0.01
0.04
0.02
0.02
0.04
0.04
0.00
0.01
0.01
0.01
0.00
0.00
0.00
0.01
0.02
0.01
0.07
0.02
0.02
0.04
0.04
0.09
0.09
0.07
0.09
0.07
0.09
0.09
0.13
0.09
0.16
0.18
0.16
0.13
0.21
0.16
0.18
0.07
0.09
0.04
0.01
0.03
0.01
0.01
0.01
0.24
0.32
0.28
0.24
0.28
0.28
0.24
0.28
0.38
0.00
0.29
0.70
0.62
0.67
0.64
0.60
0.58
0.41
0.38
0.21
0.16
0.13
0.07
0.04
0.04
0.02
0.00
0.01
0.01
0.00
0.00
0.01
0.06
0.06
0.08
0.08
0.08
0.08
0.10
0.08
0.07
0.06
0.03
0.01
0.00
0.01
0.04
0.04
0.04
0.04
0.00
0.01
0.00
0.00
0.00
0.01
0.01
0.01
0.01
0.01
0.01
0.01
0.01
0.01
0.00
0.01
0.01
0.01
0.01
0.01
0.00
0.01
0.00
0.01
0.01
0.00
0.00
0.00
0.01
0.00
0.00
0.00
0.00
0.01
0.00
0.00
0.01
0.00
0.00
0.00
0.00
0.03
0.08
0.06
0.14
0.15
0.26
0.10
0.07
0.00
0.04
0.07
0.04
0.04
0.02
0.04
0.07
0.09
0.01
0.47
0.73
0.57
0.77
0.77
0.64
0.58
0.35
0.04
0.02
0.01
0.01
0.00
0.01
0.07
0.08
0.10
0.14
0.15
0.19
0.21
0.21
0.25
0.29
0.29
0.35
0.41
0.43
0.43
0.43
0.41
0.35
0.29
0.25
0.19
0.07
0.01
0.00
0.01
0.00
0.00
0.01
0.01
0.01
0.06
0.06
0.06
0.06
0.03
0.01
0.01
0.03
0.03
0.03
0.03
0.03
0.03
0.06
0.03
0.06
0.06
0.03
0.07
0.06
0.07
0.07
0.07
0.06
0.07
0.07
0.07
0.07
0.07
0.06
0.06
0.06
0.03
0.03
0.03
0.01
0.01
0.06
0.01
0.03
0.06
0.14
0.06
0.15
0.15
0.29
0.19
0.10
0.01
0.02
0.02
0.02
0.01
0.01
0.00
0.01
0.01
0.07
0.50
0.68
0.10
0.70
0.75
0.61
0.58
0.43
0.00
0.00
0.01
0.06
0.07
0.08
0.08
0.10
0.12
0.12
0.15
0.14
0.14
0.15
0.15
0.15
0.15
0.19
0.19
0.15
0.19
0.15
0.12
0.08
0.06
0.01
0.00
0.01
0.13
0.16
0.21
0.16
0.09
0.04
0.02
0.00
0.01
0.00
0.00
0.00
0.00
0.01
0.00
0.00
0.01
0.00
0.00
0.01
0.01
0.01
0.01
0.01
0.03
0.01
0.03
0.01
0.01
0.01
0.01
0.01
0.01
0.00
0.00
0.01
0.00
0.00
0.00
0.00
0.00
0.00
0.00
0.00
0.00
0.00
0.00
0.03
0.10
0.01
0.14
0.12
0.32
0.14
0.07
0.00
0.04
0.04
0.02
0.02
0.01
0.02
0.00
0.02
0.07
0.43
0.71
0.46
0.72
0.68
0.63
0.58
0.38
0.04
0.01
0.00
0.01
0.00
0.01
0.01
0.03
0.06
0.03
0.07
0.07
0.07
0.08
0.08
0.10
0.10
0.12
0.12
0.12
0.10
0.10
0.08
0.06
0.01
0.00
0.00
0.07
0.13
0.13
0.16
0.09
0.04
0.02
0.00
0.00
0.00
0.00
0.01
0.00
0.00
0.00
0.00
0.01
0.00
0.00
0.00
0.00
0.01
0.00
0.00
0.00
0.00
0.00
0.00
0.00
0.01
0.00
0.00
0.01
0.00
0.01
0.01
0.00
0.00
0.00
0.00
0.01
0.01
0.00
0.02
0.00
0.01
0.01
0.01
0.01
0.03
0.03
0.21
0.15
0.08
0.03
0.13
0.16
0.09
0.04
0.09
0.13
0.13
0.09
0.24
0.06
0.47
0.73
0.60
0.66
0.61
0.60
0.58
0.24
0.24
0.09
0.13
0.07
0.02
0.00
0.01
0.00
0.00
0.01
0.01
0.00
0.01
0.00
0.00
0.01
0.00
0.00
0.00
0.00
0.00
0.00
0.01
0.01
0.01
0.04
0.07
0.16
0.21
0.21
0.21
0.18
0.21
0.16
0.13
0.13
0.09
0.07
0.09
0.07
0.09
0.09
0.09
0.09
0.13
0.09
0.09
0.13
0.09
0.13
0.09
0.09
0.07
0.07
0.09
0.07
0.13
0.04
0.04
0.02
0.02
0.02
0.02
0.01
0.01
0.01
0.00
0.01
0.00
0.00
0.01
0.00
0.03
0.01
0.06
0.08
0.19
0.19
0.08
0.03
0.07
0.09
0.09
0.07
0.04
0.02
0.04
0.04
0.09
0.10
0.59
0.77
0.61
0.77
0.65
0.62
0.59
0.07
0.00
0.01
0.01
0.06
0.08
0.10
0.10
0.14
0.14
0.15
0.15
0.21
0.21
0.25
0.26
0.32
0.38
0.38
0.41
0.43
0.41
0.38
0.38
0.26
0.21
0.19
0.10
0.01
0.00
0.00
0.01
0.01
0.00
0.01
0.01
0.06
0.08
0.10
0.03
0.08
0.07
0.07
0.07
0.07
0.08
0.08
0.10
0.10
0.10
0.12
0.10
0.10
0.12
0.10
0.08
0.08
0.07
0.06
0.07
0.06
0.03
0.03
0.01
0.01
0.01
0.01
0.00
0.00
0.00
0.01
0.00
0.00
0.03
0.00
0.07
0.03
0.19
0.08
0.00
0.01
0.18
0.18
0.13
0.07
0.02
0.04
0.04
0.07
0.09
0.41
0.63
0.59
0.73
0.79
0.64
0.58
0.48
0.01
0.00
0.01
0.00
0.03
0.03
0.03
0.06
0.07
0.06
0.10
0.10
0.10
0.10
0.14
0.15
0.15
0.19
0.19
0.21
0.21
0.15
0.15
0.14
0.12
0.07
0.01
0.00
0.00
0.07
0.04
0.04
0.01
0.00
0.01
0.01
0.01
0.03
0.06
0.03
0.06
0.03
0.07
0.08
0.07
0.08
0.08
0.14
0.12
0.12
0.10
0.10
0.12
0.10
0.08
0.08
0.07
0.07
0.07
0.06
0.06
0.06
0.06
0.01
0.03
0.01
0.06
0.01
0.01
0.01
0.00
0.01
0.00
0.01
0.01
0.01
0.01
0.07
0.06
0.10
0.10
0.26
0.15
0.06
0.01
0.04
0.09
0.09
0.04
0.04
0.04
0.04
0.04
0.09
0.14
0.52
0.79
0.64
0.77
0.63
0.63
0.56
0.09
0.09
0.04
0.01
0.01
0.01
0.01
0.00
0.01
0.00
0.01
0.01
0.03
0.06
0.08
0.07
0.10
0.10
0.14
0.15
0.12
0.12
0.12
0.08
0.07
0.03
0.01
0.01
0.07
0.13
0.16
0.16
0.07
0.04
0.02
0.00
0.01
0.00
0.00
0.00
0.00
0.00
0.01
0.01
0.00
0.00
0.00
0.00
0.01
0.01
0.00
0.00
0.01
0.01
0.02
0.01
0.01
0.01
0.01
0.01
0.02
0.04
0.01
0.04
0.02
0.02
0.07
0.04
0.04
0.02
0.02
0.02
0.04
0.07
0.07
0.02
0.01
0.00
0.00
0.01
0.01
0.15
0.07
0.00
0.00
0.21
0.28
0.21
0.16
0.13
0.16
0.24
0.18
0.32
0.07
0.49
0.76
0.64
0.69
0.60
0.60
0.59
0.18
0.32
0.13
0.13
0.07
0.02
0.02
0.01
0.01
0.00
0.01
0.00
0.00
0.01
0.00
0.00
0.01
0.00
0.01
0.00
0.03
0.00
0.00
0.01
0.01
0.07
0.09
0.09
0.18
0.24
0.28
0.28
0.24
0.18
0.16
0.09
0.07
0.09
0.09
0.02
0.04
0.07
0.02
0.02
0.02
0.02
0.00
0.00
0.01
0.02
0.00
0.01
0.00
0.01
0.00
0.02
0.01
0.00
0.01
0.00
0.01
0.01
0.02
0.01
0.02
0.04
0.02
0.02
0.02
0.01
0.02
0.01
0.00
0.01
0.01
0.03
0.07
0.14
0.07
0.01
0.02
0.18
0.18
0.18
0.16
0.18
0.21
0.16
0.28
0.24
0.10
0.63
0.01
0.67
0.64
0.63
0.57
0.54
0.18
0.16
0.09
0.02
0.01
0.01
0.00
0.00
0.00
0.01
0.03
0.03
0.06
0.08
0.12
0.14
0.15
0.19
0.21
0.21
0.21
0.25
0.21
0.19
0.15
0.10
0.07
0.00
0.00
0.02
0.02
0.01
0.00
0.00
0.01
0.01
0.01
0.01
0.06
0.03
0.06
0.06
0.01
0.06
0.03
0.06
0.06
0.08
0.06
0.06
0.06
0.03
0.07
0.07
0.06
0.03
0.03
0.03
0.01
0.01
0.01
0.01
0.01
0.00
0.01
0.01
0.00
0.01
0.00
0.00
0.01
0.00
0.01
0.01
0.08
0.10
0.12
0.15
0.26
0.25
0.14
0.08
0.01
0.04
0.02
0.02
0.02
0.04
0.07
0.04
0.04
0.00
0.50
0.74
0.58
0.79
0.72
0.64
0.58
0.38
0.07
0.04
0.01
0.01
0.00
0.01
0.01
0.03
0.08
0.08
0.10
0.14
0.14
0.15
0.19
0.19
0.21
0.25
0.29
0.32
0.32
0.32
0.26
0.21
0.21
0.15
0.12
0.06
0.00
0.00
0.01
0.01
0.00
0.01
0.03
0.03
0.06
0.08
0.10
0.08
0.07
0.08
0.06
0.08
0.08
0.08
0.10
0.08
0.10
0.10
0.10
0.12
0.12
0.12
0.12
0.10
0.12
0.12
0.10
0.10
0.08
0.07
0.08
0.10
0.08
0.08
0.07
0.07
0.07
0.06
0.06
0.06
0.03
0.01
0.01
0.01
0.03
0.06
0.10
0.07
0.15
0.21
0.19
0.12
0.06
0.01
0.04
0.04
0.01
0.00
0.00
0.00
0.00
0.01
0.06
0.53
0.78
0.58
0.75
0.66
0.63
0.57
0.13
0.02
0.01
0.00
0.01
0.01
0.01
0.03
0.06
0.08
0.08
0.08
0.08
0.08
0.12
0.14
0.15
0.15
0.15
0.19
0.19
0.21
0.21
0.19
0.14
0.08
0.06
0.01
0.00
0.01
0.04
0.01
0.01
0.00
0.01
0.03
0.07
0.07
0.08
0.08
0.08
0.08
0.10
0.07
0.07
0.08
0.08
0.12
0.10
0.12
0.10
0.14
0.10
0.10
0.08
0.08
0.07
0.07
0.06
0.06
0.03
0.03
0.06
0.01
0.03
0.01
0.03
0.01
0.00
0.00
0.01
0.01
0.01
0.00
0.00
0.01
0.00
0.03
0.07
0.00
0.10
0.10
0.21
0.15
0.03
0.01
0.07
0.07
0.04
0.02
0.02
0.07
0.04
0.16
0.13
0.35
0.69
0.13
0.69
0.68
0.61
0.58
0.44
0.09
0.09
0.04
0.01
0.01
0.00
0.00
0.00
0.00
0.00
0.01
0.01
0.01
0.03
0.01
0.03
0.06
0.07
0.07
0.07
0.03
0.01
0.03
0.00
0.00
0.00
0.01
0.07
0.09
0.07
0.07
0.07
0.04
0.01
0.01
0.01
0.00
0.01
0.00
0.01
0.01
0.00
0.00
0.00
0.00
0.00
0.00
0.00
0.01
0.01
0.00
0.00
0.01
0.01
0.00
0.00
0.00
0.00
0.00
0.00
0.01
0.00
0.00
0.01
0.00
0.00
0.01
0.01
0.01
0.04
0.01
0.01
0.01
0.00
0.01
0.01
0.08
0.06
0.19
0.15
0.06
0.00
0.09
0.04
0.09
0.04
0.07
0.07
0.09
0.13
0.28
0.15
0.65
0.52
0.64
0.64
0.61
0.58
0.54
0.07
0.07
0.01
0.01
0.00
0.00
0.00
0.01
0.01
0.06
0.03
0.03
0.03
0.03
0.06
0.06
0.10
0.10
0.10
0.12
0.15
0.14
0.15
0.12
0.08
0.06
0.01
0.01
0.02
0.04
0.09
0.09
0.02
0.02
0.01
0.00
0.00
0.00
0.01
0.01
0.01
0.03
0.00
0.01
0.01
0.00
0.01
0.00
0.00
0.00
0.00
0.00
0.00
0.01
0.01
0.00
0.01
0.00
0.01
0.00
0.01
0.01
0.01
0.01
0.00
0.01
0.01
0.01
0.01
0.01
0.01
0.00
0.01
0.00
0.01
0.00
0.07
0.03
0.19
0.08
0.01
0.01
0.13
0.18
0.16
0.09
0.09
0.09
0.09
0.09
0.18
0.21
0.53
0.74
0.73
0.85
0.64
0.62
0.57
0.13
0.16
0.07
0.04
0.02
0.02
0.01
0.01
0.01
0.00
0.01
0.01
0.01
0.06
0.07
0.08
0.10
0.12
0.14
0.15
0.15
0.15
0.15
0.12
0.07
0.03
0.00
0.01
0.09
0.21
0.24
0.28
0.21
0.16
0.07
0.04
0.04
0.02
0.00
0.01
0.01
0.01
0.01
0.01
0.01
0.00
0.01
0.00
0.01
0.00
0.00
0.00
0.00
0.00
0.00
0.00
0.00
0.01
0.00
0.01
0.01
0.01
0.00
0.01
0.00
0.01
0.02
0.01
0.01
0.04
0.04
0.04
0.09
0.02
0.04
0.02
0.01
0.00
0.04
0.03
0.07
0.10
0.00
0.01
0.18
0.24
0.28
0.21
0.18
0.18
0.24
0.21
0.24
0.01
0.41
0.76
0.64
0.79
0.64
0.61
0.59
0.24
0.28
0.16
0.09
0.02
0.04
0.00
0.01
0.00
0.01
0.00
0.00
0.00
0.00
0.01
0.03
0.06
0.06
0.07
0.07
0.08
0.08
0.07
0.06
0.01
0.00
0.00
0.02
0.13
0.18
0.24
0.21
0.18
0.09
0.07
0.02
0.02
0.02
0.00
0.00
0.00
0.00
0.01
0.02
0.01
0.01
0.00
0.01
0.01
0.01
0.00
0.01
0.00
0.02
0.02
0.04
0.04
0.02
0.02
0.02
0.04
0.07
0.07
0.04
0.02
0.01
0.02
0.07
0.02
0.02
0.02
0.01
0.04
0.04
0.01
0.00
0.00
0.03
0.08
0.07
0.00
0.00
0.18
0.24
0.21
0.21
0.21
0.18
0.21
0.24
0.28
0.04
0.38
0.74
0.60
0.75
0.66
0.64
0.57
0.39
0.24
0.21
0.16
0.13
0.02
0.04
0.04
0.00
0.01
0.00
0.01
0.00
0.01
0.01
0.00
0.01
0.00
0.01
0.01
0.01
0.01
0.01
0.02
0.07
0.09
0.13
0.18
0.28
0.38
0.38
0.32
0.24
0.21
0.21
0.13
0.13
0.07
0.07
0.07
0.09
0.07
0.07
0.07
0.04
0.04
0.02
0.04
0.07
0.07
0.02
0.01
0.01
0.01
0.01
0.01
0.02
0.01
0.02
0.01
0.02
0.01
0.00
0.01
0.00
0.00
0.02
0.01
0.04
0.02
0.02
0.04
0.02
0.01
0.01
0.03
0.01
0.10
0.06
0.00
0.00
0.21
0.28
0.24
0.21
0.21
0.24
0.21
0.32
0.39
0.08
0.63
0.56
0.65
0.65
0.64
0.58
0.57
0.24
0.24
0.18
0.13
0.13
0.07
0.04
0.02
0.01
0.02
0.01
0.01
0.01
0.00
0.00
0.00
0.01
0.00
0.01
0.03
0.01
0.03
0.00
0.00
0.00
0.00
0.01
0.01
0.07
0.13
0.13
0.07
0.04
0.02
0.01
0.02
0.00
0.00
0.00
0.01
0.01
0.01
0.00
0.03
0.01
0.01
0.01
0.01
0.01
0.01
0.01
0.01
0.00
0.00
0.00
0.00
0.01
0.00
0.01
0.00
0.00
0.00
0.00
0.00
0.00
0.00
0.00
0.00
0.01
0.00
0.00
0.03
0.01
0.07
0.10
0.21
0.15
0.06
0.01
0.07
0.09
0.07
0.02
0.01
0.04
0.01
0.01
0.02
0.29
0.63
0.73
0.73
0.84
0.64
0.60
0.54
0.01
0.00
0.00
0.01
0.03
0.07
0.06
0.08
0.12
0.15
0.15
0.19
0.19
0.21
0.26
0.32
0.29
0.38
0.38
0.41
0.43
0.46
0.41
0.38
0.26
0.25
0.19
0.12
0.01
0.00
0.00
0.01
0.00
0.01
0.03
0.06
0.06
0.07
0.08
0.07
0.08
0.07
0.07
0.07
0.08
0.08
0.10
0.08
0.08
0.14
0.12
0.12
0.10
0.12
0.10
0.12
0.10
0.10
0.10
0.10
0.08
0.08
0.07
0.08
0.08
0.06
0.06
0.03
0.07
0.03
0.06
0.06
0.08
0.14
0.08
0.15
0.21
0.26
0.15
0.08
0.00
0.00
0.01
0.01
0.00
0.00
0.00
0.00
0.00
0.08
0.59
0.78
0.57
0.77
0.68
0.63
0.57
0.13
0.01
0.01
0.01
0.03
0.03
0.06
0.06
0.07
0.12
0.12
0.12
0.15
0.15
0.15
0.19
0.21
0.21
0.21
0.25
0.26
0.26
0.26
0.21
0.19
0.15
0.12
0.08
0.03
0.00
0.01
0.00
0.01
0.00
0.03
0.03
0.07
0.08
0.07
0.08
0.08
0.06
0.08
0.06
0.08
0.08
0.08
0.08
0.12
0.10
0.10
0.10
0.10
0.08
0.08
0.08
0.07
0.08
0.07
0.07
0.07
0.07
0.07
0.08
0.08
0.06
0.07
0.06
0.06
0.07
0.07
0.06
0.08
0.06
0.06
0.07
0.15
0.10
0.19
0.15
0.38
0.25
0.15
0.07
0.01
0.01
0.01
0.00
0.00
0.01
0.00
0.00
0.04
0.38
0.63
0.76
0.68
0.77
0.61
0.59
0.50
0.01
0.01
0.00
0.01
0.03
0.08
0.08
0.12
0.14
0.14
0.14
0.15
0.19
0.21
0.25
0.21
0.25
0.29
0.32
0.32
0.29
0.29
0.25
0.21
0.19
0.15
0.10
0.07
0.00
0.00
0.02
0.01
0.01
0.00
0.00
0.01
0.01
0.06
0.06
0.01
0.06
0.03
0.01
0.01
0.03
0.03
0.07
0.06
0.07
0.03
0.08
0.07
0.07
0.03
0.06
0.03
0.01
0.03
0.03
0.01
0.03
0.01
0.03
0.01
0.01
0.01
0.01
0.01
0.00
0.00
0.00
0.01
0.01
0.00
0.06
0.07
0.03
0.14
0.15
0.25
0.14
0.07
0.00
0.07
0.04
0.04
0.04
0.02
0.07
0.07
0.16
0.09
0.35
0.71
0.38
0.68
0.65
0.61
0.58
0.43
0.13
0.04
0.07
0.01
0.00
0.01
0.01
0.01
0.00
0.01
0.00
0.03
0.03
0.01
0.01
0.03
0.03
0.06
0.06
0.03
0.01
0.03
0.01
0.01
0.01
0.01
0.01
0.02
0.04
0.07
0.07
0.07
0.01
0.01
0.00
0.01
0.03
0.00
0.03
0.03
0.03
0.07
0.01
0.06
0.06
0.07
0.07
0.07
0.03
0.06
0.06
0.01
0.03
0.06
0.03
0.01
0.01
0.00
0.00
0.00
0.00
0.00
0.00
0.01
0.00
0.00
0.01
0.01
0.01
0.01
0.06
0.01
0.12
0.10
0.21
0.15
0.08
0.06
0.00
0.02
0.01
0.01
0.00
0.01
0.01
0.00
0.13
0.26
0.68
0.69
0.64
0.66
0.61
0.58
0.55
0.02
0.02
0.00
0.01
0.00
0.00
0.01
0.03
0.07
0.07
0.08
0.08
0.10
0.15
0.15
0.21
0.25
0.26
0.32
0.43
0.43
0.46
0.46
0.41
0.38
0.32
0.25
0.15
0.08
0.01
0.00
0.01
0.01
0.06
0.07
0.07
0.10
0.08
0.12
0.12
0.14
0.12
0.14
0.14
0.15
0.14
0.15
0.15
0.14
0.15
0.12
0.12
0.10
0.08
0.08
0.10
0.12
0.08
0.08
0.07
0.08
0.07
0.08
0.07
0.06
0.03
0.01
0.03
0.06
0.03
0.01
0.07
0.10
0.07
0.15
0.12
0.29
0.15
0.06
0.01
0.04
0.09
0.07
0.02
0.02
0.02
0.02
0.01
0.01
0.35
0.63
0.74
0.75
0.86
0.64
0.61
0.52
0.00
0.01
0.01
0.03
0.07
0.08
0.07
0.10
0.14
0.12
0.15
0.15
0.15
0.21
0.21
0.25
0.26
0.32
0.29
0.41
0.38
0.43
0.41
0.35
0.29
0.26
0.21
0.14
0.08
0.00
0.00
0.00
0.00
0.01
0.03
0.06
0.07
0.07
0.08
0.07
0.06
0.08
0.07
0.08
0.08
0.08
0.07
0.10
0.08
0.08
0.07
0.10
0.08
0.08
0.07
0.03
0.08
0.06
0.07
0.06
0.03
0.01
0.06
0.06
0.01
0.01
0.01
0.01
0.01
0.01
0.03
0.03
0.07
0.12
0.07
0.19
0.21
0.32
0.19
0.08
0.01
0.01
0.02
0.00
0.00
0.00
0.01
0.02
0.04
0.13
0.43
0.65
0.12
0.77
0.80
0.64
0.57
0.45
0.02
0.02
0.00
0.00
0.01
0.03
0.03
0.06
0.06
0.07
0.10
0.12
0.12
0.10
0.15
0.15
0.15
0.15
0.15
0.19
0.15
0.14
0.10
0.07
0.06
0.01
0.00
0.01
0.09
0.09
0.13
0.07
0.04
0.00
0.00
0.00
0.00
0.01
0.00
0.01
0.00
0.01
0.01
0.00
0.00
0.01
0.01
0.00
0.01
0.01
0.01
0.01
0.00
0.01
0.00
0.01
0.01
0.01
0.01
0.00
0.02
0.02
0.07
0.04
0.04
0.09
0.09
0.09
0.13
0.07
0.13
0.04
0.01
0.04
0.00
0.03
0.08
0.00
0.02
0.18
0.28
0.24
0.21
0.24
0.21
0.32
0.32
0.35
0.09
0.29
0.72
0.58
0.77
0.67
0.64
0.58
0.44
0.38
0.35
0.24
0.21
0.13
0.16
0.09
0.07
0.07
0.04
0.04
0.02
0.01
0.02
0.01
0.00
0.04
0.02
0.02
0.07
0.04
0.09
0.18
0.18
0.21
0.28
0.28
0.35
0.35
0.38
0.35
0.35
0.32
0.24
0.21
0.21
0.18
0.16
0.13
0.16
0.09
0.13
0.13
0.13
0.09
0.09
0.13
0.16
0.09
0.13
0.16
0.16
0.13
0.13
0.21
0.18
0.21
0.16
0.13
0.16
0.21
0.21
0.21
0.21
0.21
0.24
0.24
0.21
0.28
0.24
0.13
0.13
0.09
0.09
0.01
0.00
0.00
0.09
0.28
0.38
0.38
0.35
0.35
0.38
0.35
0.38
0.43
0.09
0.10
0.63
0.58
0.69
0.64
0.62
0.60
0.50
0.38
0.35
0.32
0.24
0.24
0.18
0.16
0.16
0.13
0.16
0.09
0.07
0.04
0.02
0.01
0.02
0.01
0.00
0.01
0.00
0.00
0.00
0.00
0.02
0.01
0.07
0.13
0.21
0.28
0.32
0.28
0.24
0.21
0.18
0.16
0.13
0.04
0.04
0.07
0.02
0.02
0.01
0.01
0.01
0.00
0.01
0.01
0.00
0.01
0.00
0.01
0.01
0.00
0.00
0.01
0.02
0.04
0.02
0.07
0.02
0.04
0.04
0.07
0.04
0.04
0.04
0.04
0.02
0.04
0.04
0.07
0.01
0.00
0.00
0.06
0.06
0.14
0.01
0.00
0.07
0.24
0.18
0.24
0.16
0.16
0.16
0.13
0.13
0.01
0.49
0.73
0.59
0.84
0.77
0.68
0.58
0.38
0.04
0.07
0.01
0.00
0.00
0.01
0.06
0.03
0.07
0.10
0.10
0.14
0.14
0.15
0.19
0.21
0.25
0.26
0.32
0.32
0.32
0.32
0.29
0.25
0.21
0.15
0.08
0.01
0.00
0.01
0.02
0.01
0.01
0.00
0.00
0.03
0.03
0.03
0.01
0.01
0.01
0.01
0.01
0.01
0.01
0.01
0.00
0.01
0.01
0.01
0.01
0.03
0.01
0.01
0.06
0.03
0.03
0.03
0.01
0.01
0.01
0.01
0.03
0.01
0.00
0.01
0.00
0.00
0.00
0.01
0.00
0.00
0.00
0.03
0.08
0.01
0.12
0.10
0.26
0.15
0.08
0.01
0.04
0.04
0.04
0.00
0.00
0.02
0.01
0.09
0.07
0.46
0.70
0.44
0.77
0.77
0.64
0.58
0.41
0.13
0.07
0.02
0.01
0.00
0.00
0.01
0.01
0.03
0.03
0.06
0.07
0.07
0.08
0.12
0.14
0.15
0.21
0.21
0.25
0.19
0.21
0.21
0.15
0.12
0.07
0.03
0.00
0.00
0.02
0.04
0.01
0.01
0.01
0.01
0.03
0.03
0.01
0.03
0.01
0.03
0.03
0.06
0.01
0.03
0.03
0.03
0.07
0.06
0.07
0.03
0.06
0.03
0.03
0.03
0.01
0.01
0.01
0.01
0.01
0.01
0.01
0.01
0.01
0.00
0.01
0.00
0.00
0.00
0.00
0.01
0.00
0.03
0.08
0.03
0.10
0.08
0.26
0.15
0.06
0.01
0.09
0.16
0.09
0.07
0.07
0.13
0.09
0.09
0.28
0.21
0.60
0.70
0.69
0.77
0.61
0.58
0.55
0.13
0.21
0.07
0.07
0.01
0.01
0.00
0.00
0.00
0.01
0.01
0.00
0.00
0.00
0.01
0.03
0.06
0.01
0.06
0.01
0.03
0.01
0.01
0.00
0.00
0.00
0.02
0.07
0.09
0.09
0.07
0.07
0.04
0.01
0.00
0.00
0.00
0.00
0.00
0.00
0.00
0.00
0.01
0.00
0.00
0.00
0.00
0.01
0.00
0.00
0.00
0.00
0.01
0.00
0.00
0.02
0.00
0.01
0.01
0.01
0.01
0.02
0.02
0.01
0.00
0.00
0.00
0.00
0.01
0.00
0.01
0.03
0.00
0.10
0.10
0.21
0.12
0.00
0.00
0.09
0.13
0.07
0.16
0.09
0.16
0.18
0.32
0.24
0.14
0.63
0.02
0.68
0.64
0.61
0.58
0.50
0.24
0.16
0.16
0.04
0.02
0.00
0.00
0.01
0.01
0.00
0.00
0.01
0.01
0.01
0.03
0.01
0.06
0.07
0.07
0.07
0.08
0.07
0.08
0.07
0.06
0.01
0.01
0.00
0.01
0.02
0.01
0.01
0.01
0.01
0.00
0.01
0.01
0.06
0.03
0.03
0.03
0.07
0.07
0.07
0.07
0.06
0.08
0.07
0.07
0.06
0.07
0.06
0.07
0.07
0.07
0.07
0.03
0.01
0.06
0.03
0.06
0.03
0.06
0.01
0.03
0.06
0.03
0.07
0.14
0.15
0.14
0.21
0.26
0.35
0.15
0.10
0.01
0.00
0.01
0.01
0.00
0.01
0.00
0.00
0.00
0.21
0.63
0.80
0.64
0.84
0.68
0.64
0.57
0.02
0.00
0.01
0.07
0.08
0.12
0.12
0.12
0.15
0.21
0.19
0.21
0.26
0.26
0.32
0.35
0.43
0.46
0.49
0.49
0.52
0.50
0.50
0.47
0.38
0.29
0.21
0.15
0.03
0.01
0.00
0.00
0.01
0.01
0.03
0.06
0.06
0.07
0.07
0.06
0.06
0.06
0.03
0.06
0.07
0.06
0.08
0.08
0.08
0.10
0.08
0.12
0.10
0.08
0.08
0.08
0.07
0.07
0.07
0.07
0.06
0.06
0.06
0.06
0.06
0.06
0.03
0.01
0.06
0.06
0.07
0.10
0.15
0.07
0.15
0.15
0.38
0.21
0.08
0.01
0.01
0.02
0.00
0.01
0.01
0.01
0.01
0.00
0.01
0.56
0.72
0.24
0.77
0.78
0.64
0.58
0.41
0.01
0.01
0.00
0.01
0.03
0.06
0.07
0.07
0.08
0.10
0.12
0.12
0.14
0.15
0.15
0.15
0.25
0.21
0.25
0.25
0.26
0.25
0.25
0.19
0.15
0.12
0.08
0.01
0.00
0.01
0.00
0.01
0.00
0.01
0.01
0.03
0.03
0.03
0.03
0.06
0.06
0.03
0.06
0.03
0.06
0.06
0.07
0.06
0.07
0.03
0.06
0.07
0.06
0.03
0.01
0.03
0.01
0.01
0.03
0.01
0.01
0.01
0.00
0.01
0.00
0.00
0.00
0.00
0.00
0.00
0.01
0.06
0.03
0.08
0.08
0.25
0.21
0.10
0.03
0.07
0.09
0.07
0.02
0.02
0.04
0.02
0.04
0.04
0.15
0.60
0.79
0.63
0.77
0.64
0.61
0.57
0.04
0.07
0.04
0.01
0.00
0.00
0.01
0.01
0.01
0.03
0.06
0.06
0.07
0.07
0.08
0.08
0.12
0.10
0.08
0.08
0.08
0.06
0.06
0.01
0.00
0.01
0.07
0.13
0.21
0.24
0.21
0.18
0.16
0.07
0.02
0.00
0.01
0.00
0.00
0.00
0.00
0.00
0.00
0.00
0.00
0.00
0.00
0.00
0.00
0.00
0.01
0.00
0.01
0.00
0.00
0.00
0.00
0.01
0.00
0.01
0.01
0.01
0.00
0.02
0.00
0.01
0.01
0.02
0.04
0.07
0.04
0.04
0.02
0.01
0.01
0.01
0.01
0.10
0.10
0.01
0.01
0.18
0.24
0.21
0.24
0.18
0.28
0.28
0.28
0.28
0.07
0.25
0.70
0.58
0.72
0.64
0.61
0.57
0.44
0.35
0.21
0.18
0.09
0.09
0.02
0.02
0.02
0.00
0.00
0.02
0.01
0.01
0.01
0.00
0.00
0.00
0.00
0.00
0.01
0.00
0.00
0.00
0.04
0.04
0.04
0.09
0.16
0.16
0.16
0.21
0.18
0.09
0.04
0.09
0.07
0.02
0.00
0.00
0.00
0.02
0.00
0.01
0.01
0.00
0.00
0.00
0.01
0.00
0.01
0.01
0.01
0.01
0.01
0.02
0.02
0.02
0.01
0.02
0.02
0.04
0.04
0.07
0.04
0.04
0.04
0.02
0.09
0.01
0.00
0.01
0.03
0.03
0.15
0.08
0.00
0.00
0.18
0.21
0.18
0.13
0.07
0.13
0.13
0.16
0.21
0.21
0.67
0.63
0.73
0.78
0.65
0.60
0.57
0.02
0.09
0.01
0.00
0.01
0.03
0.07
0.08
0.12
0.14
0.15
0.15
0.21
0.21
0.26
0.26
0.32
0.38
0.43
0.43
0.46
0.47
0.41
0.46
0.35
0.26
0.19
0.10
0.01
0.00
0.00
0.00
0.01
0.01
0.03
0.06
0.07
0.10
0.10
0.07
0.08
0.08
0.10
0.10
0.08
0.08
0.08
0.08
0.08
0.07
0.08
0.07
0.06
0.06
0.06
0.06
0.03
0.01
0.01
0.01
0.01
0.01
0.01
0.01
0.01
0.00
0.01
0.01
0.01
0.01
0.10
0.08
0.14
0.15
0.35
0.26
0.14
0.10
0.01
0.01
0.01
0.01
0.00
0.00
0.01
0.00
0.00
0.03
0.60
0.75
0.58
0.84
0.79
0.66
0.58
0.38
0.01
0.00
0.00
0.01
0.01
0.03
0.06
0.10
0.10
0.10
0.10
0.12
0.15
0.15
0.19
0.21
0.21
0.25
0.26
0.29
0.26
0.29
0.25
0.19
0.15
0.12
0.07
0.01
0.00
0.01
0.02
0.00
0.00
0.01
0.03
0.07
0.03
0.07
0.06
0.08
0.06
0.06
0.01
0.03
0.06
0.07
0.08
0.07
0.08
0.10
0.08
0.12
0.10
0.12
0.10
0.12
0.10
0.10
0.07
0.12
0.08
0.06
0.06
0.07
0.03
0.07
0.03
0.01
0.03
0.06
0.10
0.14
0.08
0.15
0.19
0.38
0.15
0.12
0.03
0.07
0.09
0.02
0.00
0.00
0.02
0.01
0.02
0.09
0.47
0.69
0.32
0.77
0.77
0.63
0.58
0.49
0.04
0.09
0.00
0.00
0.00
0.00
0.00
0.00
0.00
0.01
0.01
0.01
0.00
0.01
0.01
0.06
0.03
0.01
0.01
0.01
0.03
0.01
0.01
0.00
0.02
0.00
0.02
0.02
0.07
0.09
0.07
0.09
0.00
0.01
0.01
0.00
0.00
0.00
0.01
0.00
0.01
0.00
0.01
0.01
0.01
0.01
0.01
0.03
0.01
0.01
0.01
0.01
0.03
0.03
0.01
0.01
0.00
0.00
0.01
0.00
0.00
0.01
0.01
0.01
0.01
0.01
0.01
0.01
0.01
0.03
0.06
0.01
0.08
0.19
0.19
0.14
0.07
0.00
0.13
0.07
0.07
0.04
0.09
0.09
0.13
0.18
0.07
0.25
0.70
0.41
0.72
0.65
0.64
0.58
0.48
0.09
0.07
0.04
0.00
0.00
0.00
0.03
0.01
0.01
0.01
0.01
0.01
0.07
0.03
0.08
0.08
0.10
0.14
0.15
0.21
0.21
0.19
0.21
0.15
0.14
0.12
0.03
0.00
0.00
0.01
0.01
0.02
0.00
0.00
0.01
0.01
0.01
0.01
0.01
0.01
0.00
0.01
0.03
0.01
0.03
0.01
0.01
0.01
0.03
0.01
0.01
0.01
0.00
0.01
0.01
0.00
0.00
0.00
0.00
0.01
0.00
0.00
0.00
0.00
0.00
0.00
0.00
0.00
0.00
0.03
0.08
0.01
0.12
0.19
0.19
0.14
0.07
0.01
0.13
0.09
0.09
0.07
0.07
0.16
0.13
0.09
0.13
0.46
0.65
0.00
0.86
0.89
0.67
0.58
0.48
0.07
0.04
0.00
0.00
0.00
0.01
0.01
0.03
0.06
0.07
0.10
0.10
0.12
0.15
0.19
0.25
0.25
0.26
0.32
0.35
0.35
0.38
0.26
0.29
0.21
0.15
0.10
0.03
0.00
0.01
0.04
0.04
0.02
0.00
0.01
0.00
0.00
0.01
0.00
0.00
0.00
0.00
0.00
0.00
0.01
0.00
0.01
0.01
0.01
0.01
0.01
0.01
0.01
0.01
0.01
0.01
0.01
0.00
0.00
0.00
0.01
0.00
0.00
0.00
0.01
0.01
0.01
0.01
0.01
0.06
0.01
0.08
0.19
0.21
0.12
0.03
0.00
0.13
0.13
0.09
0.13
0.04
0.09
0.07
0.13
0.13
0.46
0.70
0.21
0.81
0.83
0.65
0.58
0.44
0.04
0.02
0.01
0.01
0.00
0.01
0.01
0.06
0.06
0.07
0.06
0.08
0.08
0.15
0.15
0.15
0.19
0.21
0.21
0.26
0.21
0.19
0.15
0.12
0.08
0.06
0.01
0.00
0.02
0.04
0.02
0.01
0.01
0.01
0.01
0.00
0.00
0.00
0.01
0.00
0.00
0.01
0.01
0.00
0.00
0.01
0.00
0.01
0.01
0.01
0.01
0.01
0.01
0.01
0.01
0.01
0.00
0.00
0.00
0.00
0.00
0.00
0.00
0.01
0.01
0.01
0.01
0.00
0.06
0.00
0.06
0.07
0.25
0.15
0.06
0.00
0.16
0.09
0.16
0.09
0.04
0.07
0.09
0.07
0.16
0.26
0.63
0.74
0.75
0.84
0.64
0.62
0.55
0.07
0.07
0.02
0.01
0.00
0.00
0.01
0.01
0.01
0.01
0.06
0.08
0.08
0.08
0.10
0.08
0.12
0.12
0.15
0.14
0.10
0.08
0.07
0.03
0.00
0.00
0.00
0.09
0.16
0.16
0.18
0.07
0.02
0.01
0.01
0.00
0.00
0.00
0.00
0.00
0.00
0.00
0.01
0.01
0.01
0.01
0.01
0.03
0.03
0.06
0.03
0.03
0.01
0.06
0.03
0.01
0.01
0.01
0.01
0.01
0.01
0.00
0.01
0.00
0.00
0.00
0.01
0.08
0.06
0.10
0.12
0.35
0.21
0.12
0.01
0.04
0.02
0.04
0.01
0.00
0.04
0.04
0.04
0.09
0.19
0.61
0.79
0.68
0.81
0.65
0.61
0.55
0.02
0.07
0.02
0.00
0.00
0.01
0.01
0.03
0.03
0.03
0.07
0.08
0.10
0.10
0.12
0.10
0.14
0.14
0.15
0.15
0.12
0.10
0.07
0.06
0.01
0.00
0.01
0.02
0.13
0.13
0.09
0.04
0.04
0.00
0.00
0.00
0.01
0.01
0.01
0.01
0.01
0.01
0.03
0.03
0.03
0.03
0.03
0.07
0.06
0.06
0.06
0.03
0.03
0.03
0.01
0.01
0.01
0.01
0.00
0.01
0.00
0.00
0.00
0.00
0.00
0.01
0.00
0.03
0.08
0.03
0.10
0.15
0.26
0.14
0.03
0.01
0.16
0.09
0.07
0.07
0.04
0.09
0.09
0.13
0.21
0.41
0.70
0.38
0.79
0.77
0.64
0.58
0.43
0.13
0.09
0.04
0.01
0.01
0.00
0.00
0.00
0.01
0.01
0.03
0.08
0.07
0.07
0.07
0.10
0.12
0.10
0.10
0.10
0.08
0.06
0.03
0.01
0.00
0.01
0.07
0.09
0.16
0.16
0.07
0.02
0.02
0.00
0.00
0.01
0.01
0.01
0.00
0.00
0.01
0.03
0.01
0.01
0.00
0.01
0.01
0.01
0.00
0.01
0.01
0.00
0.00
0.00
0.00
0.01
0.00
0.01
0.00
0.00
0.00
0.00
0.00
0.00
0.00
0.01
0.01
0.00
0.07
0.14
0.21
0.10
0.01
0.04
0.18
0.21
0.13
0.13
0.13
0.16
0.18
0.21
0.01
0.35
0.71
0.48
0.69
0.65
0.62
0.58
0.38
0.18
0.13
0.07
0.04
0.01
0.00
0.00
0.01
0.01
0.00
0.00
0.00
0.00
0.01
0.01
0.01
0.01
0.01
0.01
0.00
0.00
0.00
0.00
0.00
0.01
0.04
0.04
0.04
0.16
0.04
0.02
0.02
0.00
0.00
0.00
0.00
0.01
0.00
0.01
0.01
0.01
0.03
0.03
0.00
0.00
0.00
0.01
0.00
0.00
0.01
0.00
0.00
0.01
0.01
0.00
0.00
0.00
0.00
0.00
0.00
0.00
0.00
0.00
0.01
0.08
0.07
0.12
0.08
0.29
0.15
0.10
0.07
0.01
0.09
0.09
0.09
0.02
0.07
0.07
0.09
0.13
0.21
0.65
0.74
0.65
0.77
0.65
0.60
0.58
0.04
0.02
0.00
0.00
0.01
0.03
0.06
0.08
0.08
0.10
0.12
0.15
0.15
0.25
0.25
0.26
0.29
0.35
0.38
0.47
0.47
0.49
0.49
0.47
0.41
0.38
0.21
0.14
0.07
0.01
0.01
0.00
0.00
0.00
0.01
0.01
0.01
0.03
0.06
0.06
0.06
0.03
0.07
0.03
0.06
0.07
0.06
0.06
0.06
0.06
0.03
0.01
0.03
0.01
0.01
0.01
0.00
0.00
0.00
0.00
0.00
0.00
0.00
0.01
0.00
0.01
0.07
0.06
0.08
0.08
0.32
0.19
0.10
0.07
0.04
0.09
0.09
0.04
0.02
0.02
0.04
0.07
0.09
0.01
0.59
0.81
0.65
0.88
0.78
0.68
0.58
0.28
0.07
0.07
0.02
0.00
0.00
0.00
0.00
0.01
0.00
0.01
0.01
0.06
0.08
0.10
0.14
0.15
0.15
0.21
0.21
0.26
0.26
0.26
0.19
0.19
0.15
0.12
0.03
0.00
0.00
0.02
0.00
0.00
0.00
0.00
0.01
0.01
0.01
0.01
0.01
0.01
0.01
0.01
0.01
0.01
0.01
0.03
0.03
0.07
0.06
0.07
0.07
0.06
0.03
0.08
0.06
0.07
0.03
0.03
0.01
0.01
0.01
0.01
0.01
0.01
0.01
0.08
0.06
0.12
0.10
0.32
0.15
0.10
0.01
0.07
0.13
0.09
0.07
0.02
0.07
0.04
0.02
0.07
0.25
0.61
0.79
0.77
0.88
0.64
0.63
0.54
0.02
0.01
0.00
0.01
0.00
0.01
0.01
0.06
0.07
0.07
0.07
0.07
0.10
0.10
0.14
0.14
0.14
0.15
0.15
0.15
0.15
0.15
0.12
0.08
0.06
0.06
0.00
0.00
0.04
0.09
0.04
0.02
0.02
0.01
0.00
0.00
0.01
0.01
0.01
0.01
0.00
0.00
0.00
0.01
0.01
0.01
0.01
0.03
0.03
0.06
0.06
0.03
0.01
0.03
0.00
0.01
0.01
0.00
0.00
0.01
0.01
0.01
0.00
0.00
0.00
0.00
0.00
0.00
0.00
0.07
0.01
0.08
0.07
0.21
0.08
0.01
0.01
0.21
0.18
0.13
0.07
0.07
0.09
0.09
0.16
0.21
0.41
0.70
0.09
0.79
0.80
0.65
0.58
0.44
0.09
0.09
0.04
0.00
0.00
0.00
0.01
0.01
0.01
0.03
0.03
0.07
0.06
0.08
0.08
0.10
0.10
0.14
0.14
0.12
0.12
0.10
0.08
0.06
0.01
0.00
0.00
0.04
0.09
0.09
0.13
0.07
0.02
0.02
0.00
0.01
0.00
0.00
0.01
0.00
0.01
0.03
0.01
0.01
0.01
0.03
0.03
0.06
0.03
0.03
0.01
0.01
0.01
0.01
0.01
0.00
0.00
0.00
0.00
0.00
0.00
0.00
0.00
0.01
0.00
0.01
0.01
0.07
0.00
0.07
0.03
0.29
0.10
0.03
0.00
0.24
0.24
0.16
0.09
0.09
0.13
0.09
0.16
0.24
0.21
0.60
0.73
0.73
0.81
0.64
0.60
0.55
0.07
0.16
0.13
0.04
0.01
0.00
0.00
0.00
0.00
0.00
0.01
0.03
0.01
0.03
0.03
0.01
0.06
0.01
0.01
0.01
0.00
0.01
0.00
0.02
0.07
0.09
0.13
0.18
0.18
0.24
0.18
0.09
0.09
0.04
0.01
0.01
0.02
0.00
0.00
0.01
0.01
0.02
0.01
0.00
0.01
0.00
0.00
0.01
0.01
0.00
0.01
0.01
0.01
0.00
0.00
0.00
0.00
0.02
0.00
0.00
0.00
0.00
0.01
0.02
0.01
0.00
0.03
0.00
0.06
0.03
0.15
0.12
0.01
0.00
0.18
0.24
0.24
0.13
0.21
0.21
0.28
0.28
0.43
0.10
0.63
0.70
0.64
0.66
0.64
0.58
0.57
0.21
0.28
0.24
0.16
0.02
0.09
0.01
0.02
0.01
0.01
0.04
0.01
0.01
0.01
0.00
0.01
0.00
0.00
0.01
0.00
0.01
0.01
0.02
0.02
0.02
0.02
0.07
0.13
0.09
0.09
0.04
0.07
0.01
0.01
0.01
0.00
0.01
0.01
0.01
0.01
0.01
0.01
0.03
0.03
0.03
0.03
0.01
0.01
0.01
0.03
0.00
0.01
0.00
0.00
0.01
0.01
0.00
0.00
0.01
0.00
0.00
0.01
0.00
0.01
0.00
0.01
0.07
0.03
0.14
0.12
0.29
0.15
0.10
0.06
0.02
0.07
0.02
0.02
0.00
0.00
0.01
0.00
0.04
0.46
0.70
0.53
0.77
0.83
0.65
0.58
0.49
0.01
0.01
0.00
0.01
0.00
0.03
0.06
0.07
0.07
0.12
0.12
0.14
0.15
0.19
0.21
0.25
0.32
0.35
0.41
0.41
0.43
0.41
0.38
0.29
0.25
0.21
0.15
0.06
0.00
0.00
0.00
0.00
0.00
0.01
0.03
0.03
0.07
0.07
0.06
0.08
0.07
0.06
0.08
0.07
0.08
0.08
0.08
0.07
0.10
0.07
0.08
0.06
0.06
0.06
0.06
0.03
0.01
0.03
0.01
0.01
0.01
0.01
0.00
0.00
0.00
0.01
0.03
0.01
0.12
0.12
0.26
0.12
0.01
0.01
0.09
0.07
0.09
0.04
0.02
0.02
0.01
0.02
0.09
0.43
0.65
0.69
0.78
0.86
0.64
0.60
0.52
0.00
0.00
0.00
0.00
0.01
0.01
0.06
0.06
0.07
0.07
0.08
0.10
0.08
0.12
0.15
0.15
0.19
0.19
0.21
0.21
0.21
0.21
0.19
0.15
0.14
0.12
0.06
0.01
0.00
0.01
0.01
0.00
0.00
0.03
0.03
0.06
0.07
0.07
0.07
0.10
0.08
0.08
0.10
0.08
0.06
0.02
0.35
0.39
0.57
0.58
0.02
0.81
0.94
0.99
0.99
0.98
0.94
0.94
0.98
0.98
0.94
0.81
0.65
0.19
0.38
0.43
0.48
0.49
0.54
0.55
0.56
0.54
0.59
0.58
0.58
0.61
0.61
0.63
0.65
0.65
0.68
0.72
0.75
0.77
0.74
0.70
0.66
0.61
0.60
0.57
0.54
0.44
0.32
0.09
0.07
0.01
0.02
0.04
0.02
0.00
0.00
0.00
0.00
0.01
0.00
0.01
0.00
0.00
0.01
0.00
0.00
0.02
0.00
0.01
0.00
0.00
0.01
0.01
0.00
0.01
0.00
0.00
0.01
0.02
0.01
0.02
0.02
0.02
0.02
0.02
0.02
0.01
0.02
0.02
0.02
0.02
0.02
0.01
0.00
0.01
0.02
0.01
0.00
0.00
0.01
0.01
0.01
0.01
0.00
0.01
0.01
0.00
0.01
0.00
0.00
0.01
0.01
0.01
0.01
0.00
0.00
0.01
0.00
0.03
0.00
0.07
0.03
0.29
0.12
0.07
0.03
0.13
0.13
0.16
0.07
0.07
0.09
0.18
0.16
0.38
0.15
0.63
0.63
0.66
0.69
0.60
0.58
0.52
0.16
0.21
0.16
0.09
0.04
0.01
0.00
0.00
0.01
0.01
0.00
0.01
0.00
0.00
0.01
0.00
0.00
0.01
0.01
0.01
0.01
0.01
0.03
0.07
0.07
0.07
0.08
0.06
0.01
0.04
0.07
0.24
0.24
0.28
0.18
0.09
0.09
0.04
0.02
0.07
0.01
0.02
0.01
0.02
0.01
0.01
0.01
0.00
0.01
0.01
0.01
0.01
0.02
0.00
0.01
0.01
0.01
0.01
0.02
0.07
0.02
0.04
0.04
0.07
0.04
0.00
0.02
0.01
0.00
0.12
0.07
0.00
0.00
0.21
0.18
0.18
0.21
0.16
0.21
0.24
0.18
0.41
0.01
0.47
0.70
0.61
0.66
0.64
0.59
0.58
0.38
0.38
0.24
0.24
0.21
0.16
0.09
0.07
0.09
0.07
0.02
0.04
0.01
0.01
0.00
0.01
0.00
0.01
0.03
0.07
0.08
0.08
0.10
0.07
0.07
0.07
0.01
0.00
0.00
0.04
0.02
0.01
0.00
0.00
0.01
0.00
0.01
0.01
0.03
0.03
0.01
0.03
0.03
0.07
0.06
0.06
0.07
0.06
0.06
0.07
0.06
0.06
0.06
0.06
0.03
0.03
0.03
0.03
0.01
0.01
0.03
0.03
0.03
0.01
0.03
0.03
0.12
0.08
0.14
0.15
0.29
0.21
0.08
0.07
0.04
0.09
0.07
0.07
0.04
0.02
0.07
0.07
0.07
0.00
0.59
0.78
0.61
0.86
0.78
0.68
0.58
0.35
0.09
0.07
0.01
0.01
0.00
0.00
0.00
0.00
0.01
0.01
0.03
0.06
0.07
0.10
0.14
0.14
0.19
0.19
0.21
0.29
0.32
0.26
0.25
0.21
0.21
0.15
0.12
0.03
0.00
0.01
0.01
0.00
0.01
0.01
0.01
0.01
0.01
0.01
0.03
0.01
0.00
0.01
0.00
0.01
0.01
0.00
0.01
0.01
0.01
0.01
0.03
0.03
0.07
0.01
0.06
0.01
0.03
0.01
0.01
0.01
0.03
0.01
0.01
0.01
0.06
0.14
0.03
0.14
0.14
0.35
0.15
0.10
0.00
0.04
0.07
0.04
0.02
0.01
0.01
0.01
0.01
0.09
0.43
0.70
0.63
0.77
0.86
0.65
0.57
0.48
0.01
0.02
0.00
0.00
0.00
0.00
0.01
0.01
0.03
0.07
0.06
0.07
0.08
0.10
0.14
0.14
0.14
0.15
0.15
0.19
0.21
0.19
0.14
0.12
0.07
0.07
0.01
0.00
0.00
0.02
0.02
0.00
0.00
0.01
0.03
0.03
0.03
0.03
0.01
0.01
0.01
0.01
0.00
0.00
0.01
0.01
0.00
0.01
0.01
0.01
0.03
0.01
0.01
0.03
0.03
0.01
0.03
0.01
0.01
0.01
0.01
0.01
0.01
0.00
0.01
0.00
0.01
0.10
0.08
0.06
0.12
0.25
0.19
0.08
0.03
0.07
0.09
0.09
0.09
0.04
0.07
0.07
0.09
0.09
0.01
0.53
0.80
0.64
0.82
0.68
0.64
0.58
0.16
0.13
0.09
0.02
0.02
0.00
0.00
0.00
0.00
0.00
0.01
0.01
0.03
0.06
0.08
0.08
0.12
0.08
0.12
0.12
0.10
0.08
0.08
0.01
0.01
0.00
0.00
0.04
0.09
0.18
0.16
0.07
0.04
0.02
0.01
0.01
0.00
0.00
0.00
0.00
0.00
0.00
0.00
0.01
0.03
0.01
0.06
0.01
0.06
0.03
0.03
0.06
0.07
0.03
0.07
0.06
0.06
0.01
0.01
0.00
0.01
0.00
0.00
0.01
0.00
0.00
0.00
0.00
0.06
0.03
0.01
0.08
0.21
0.14
0.08
0.01
0.01
0.13
0.13
0.04
0.02
0.04
0.07
0.13
0.13
0.06
0.60
0.80
0.60
0.75
0.65
0.61
0.58
0.09
0.16
0.07
0.07
0.00
0.01
0.00
0.00
0.00
0.00
0.01
0.00
0.01
0.03
0.01
0.01
0.06
0.03
0.01
0.01
0.03
0.01
0.01
0.00
0.01
0.00
0.00
0.02
0.04
0.07
0.02
0.02
0.00
0.01
0.01
0.00
0.00
0.00
0.01
0.01
0.01
0.00
0.00
0.00
0.00
0.01
0.01
0.01
0.01
0.01
0.00
0.00
0.01
0.01
0.01
0.01
0.00
0.00
0.00
0.00
0.00
0.01
0.01
0.01
0.02
0.01
0.01
0.00
0.00
0.01
0.19
0.15
0.03
0.03
0.02
0.18
0.16
0.13
0.13
0.21
0.21
0.18
0.35
0.00
0.43
0.70
0.60
0.68
0.65
0.60
0.58
0.35
0.32
0.13
0.13
0.04
0.01
0.01
0.01
0.00
0.01
0.00
0.00
0.03
0.03
0.03
0.03
0.07
0.10
0.12
0.10
0.12
0.12
0.12
0.10
0.08
0.03
0.01
0.00
0.01
0.04
0.02
0.02
0.01
0.00
0.01
0.00
0.00
0.00
0.01
0.01
0.03
0.06
0.06
0.06
0.03
0.06
0.08
0.07
0.10
0.07
0.06
0.03
0.06
0.03
0.03
0.03
0.01
0.01
0.01
0.01
0.01
0.00
0.01
0.00
0.00
0.03
0.06
0.01
0.10
0.15
0.15
0.07
0.03
0.07
0.16
0.18
0.13
0.09
0.09
0.09
0.09
0.13
0.01
0.60
0.79
0.66
0.88
0.75
0.66
0.59
0.13
0.02
0.01
0.01
0.01
0.03
0.06
0.06
0.08
0.08
0.12
0.14
0.15
0.15
0.15
0.21
0.21
0.26
0.32
0.29
0.35
0.38
0.32
0.29
0.26
0.21
0.15
0.06
0.01
0.00
0.00
0.01
0.00
0.00
0.00
0.01
0.06
0.01
0.03
0.01
0.00
0.00
0.01
0.01
0.01
0.01
0.01
0.01
0.03
0.06
0.06
0.03
0.03
0.03
0.01
0.03
0.01
0.00
0.00
0.01
0.01
0.01
0.01
0.02
0.02
0.04
0.00
0.00
0.01
0.00
0.01
0.15
0.07
0.01
0.01
0.16
0.28
0.18
0.13
0.09
0.09
0.13
0.07
0.13
0.06
0.56
0.80
0.64
0.85
0.70
0.64
0.57
0.13
0.04
0.02
0.01
0.00
0.00
0.01
0.00
0.00
0.00
0.03
0.03
0.06
0.07
0.08
0.10
0.14
0.15
0.15
0.15
0.15
0.15
0.15
0.10
0.07
0.03
0.01
0.01
0.01
0.02
0.02
0.01
0.01
0.00
0.00
0.01
0.03
0.03
0.01
0.00
0.01
0.01
0.01
0.01
0.01
0.00
0.01
0.01
0.03
0.03
0.03
0.03
0.01
0.03
0.03
0.03
0.03
0.03
0.01
0.01
0.01
0.01
0.01
0.00
0.00
0.00
0.00
0.00
0.00
0.00
0.01
0.06
0.03
0.06
0.07
0.25
0.14
0.07
0.01
0.07
0.09
0.16
0.07
0.07
0.07
0.07
0.04
0.13
0.08
0.56
0.80
0.65
0.83
0.65
0.61
0.56
0.09
0.07
0.04
0.00
0.01
0.00
0.00
0.01
0.01
0.01
0.01
0.07
0.08
0.10
0.10
0.12
0.12
0.14
0.14
0.15
0.14
0.08
0.08
0.06
0.06
0.01
0.00
0.00
0.04
0.09
0.07
0.02
0.00
0.00
0.00
0.00
0.01
0.01
0.01
0.01
0.01
0.01
0.01
0.03
0.03
0.03
0.07
0.03
0.06
0.06
0.06
0.01
0.01
0.01
0.01
0.00
0.01
0.00
0.01
0.00
0.01
0.00
0.00
0.01
0.00
0.01
0.01
0.01
0.01
0.00
0.01
0.01
0.01
0.00
0.06
0.07
0.14
0.06
0.00
0.07
0.24
0.24
0.21
0.21
0.21
0.21
0.16
0.21
0.21
0.26
0.68
0.01
0.73
0.70
0.64
0.58
0.48
0.16
0.16
0.09
0.04
0.02
0.02
0.00
0.01
0.00
0.01
0.00
0.01
0.00
0.00
0.01
0.00
0.00
0.00
0.00
0.00
0.01
0.00
0.04
0.02
0.07
0.07
0.13
0.16
0.18
0.21
0.18
0.07
0.04
0.04
0.01
0.01
0.00
0.00
0.00
0.00
0.00
0.01
0.00
0.00
0.01
0.01
0.01
0.00
0.00
0.01
0.00
0.00
0.00
0.00
0.01
0.01
0.01
0.01
0.00
0.00
0.00
0.01
0.01
0.00
0.01
0.01
0.00
0.00
0.01
0.00
0.06
0.01
0.08
0.12
0.19
0.14
0.06
0.01
0.09
0.07
0.09
0.09
0.09
0.16
0.09
0.13
0.13
0.21
0.69
0.07
0.68
0.66
0.64
0.57
0.51
0.09
0.13
0.02
0.00
0.00
0.00
0.01
0.01
0.03
0.07
0.08
0.10
0.12
0.12
0.15
0.19
0.21
0.26
0.29
0.32
0.35
0.35
0.32
0.26
0.21
0.14
0.10
0.06
0.00
0.00
0.01
0.01
0.00
0.00
0.01
0.01
0.06
0.01
0.03
0.06
0.03
0.06
0.06
0.03
0.03
0.06
0.06
0.03
0.03
0.01
0.01
0.01
0.01
0.01
0.01
0.00
0.00
0.00
0.00
0.01
0.00
0.00
0.01
0.00
0.00
0.00
0.00
0.00
0.00
0.00
0.01
0.07
0.07
0.10
0.08
0.29
0.19
0.08
0.06
0.02
0.13
0.04
0.02
0.01
0.02
0.04
0.02
0.01
0.21
0.63
0.80
0.70
0.86
0.68
0.63
0.55
0.02
0.02
0.01
0.01
0.00
0.01
0.03
0.01
0.06
0.06
0.08
0.10
0.10
0.14
0.12
0.15
0.15
0.15
0.19
0.19
0.19
0.15
0.15
0.15
0.12
0.06
0.01
0.01
0.01
0.09
0.13
0.13
0.07
0.04
0.02
0.00
0.01
0.00
0.01
0.01
0.00
0.01
0.01
0.00
0.00
0.00
0.01
0.01
0.01
0.03
0.06
0.03
0.07
0.06
0.06
0.06
0.03
0.01
0.01
0.01
0.03
0.00
0.01
0.00
0.00
0.00
0.00
0.00
0.00
0.00
0.01
0.00
0.06
0.03
0.01
0.10
0.21
0.15
0.07
0.01
0.07
0.16
0.13
0.04
0.04
0.07
0.09
0.09
0.09
0.08
0.56
0.80
0.65
0.84
0.66
0.63
0.57
0.09
0.09
0.07
0.01
0.01
0.00
0.00
0.00
0.01
0.01
0.03
0.03
0.08
0.07
0.08
0.10
0.10
0.14
0.15
0.15
0.14
0.15
0.12
0.10
0.08
0.07
0.01
0.00
0.00
0.04
0.01
0.01
0.00
0.00
0.01
0.01
0.06
0.06
0.01
0.03
0.06
0.01
0.01
0.03
0.01
0.03
0.06
0.06
0.03
0.06
0.03
0.06
0.06
0.06
0.06
0.06
0.01
0.03
0.03
0.01
0.01
0.01
0.01
0.01
0.00
0.00
0.01
0.00
0.00
0.00
0.00
0.00
0.01
0.03
0.06
0.01
0.08
0.15
0.15
0.12
0.01
0.02
0.18
0.09
0.04
0.04
0.01
0.09
0.09
0.07
0.04
0.47
0.73
0.49
0.73
0.70
0.64
0.58
0.38
0.09
0.07
0.02
0.00
0.01
0.00
0.01
0.00
0.01
0.01
0.01
0.03
0.01
0.03
0.01
0.01
0.06
0.06
0.03
0.03
0.01
0.01
0.01
0.00
0.00
0.00
0.02
0.04
0.04
0.07
0.04
0.02
0.00
0.01
0.00
0.00
0.00
0.00
0.00
0.00
0.00
0.00
0.01
0.00
0.00
0.01
0.00
0.01
0.00
0.00
0.00
0.01
0.00
0.00
0.00
0.00
0.00
0.01
0.00
0.01
0.00
0.01
0.00
0.01
0.00
0.01
0.00
0.01
0.00
0.00
0.00
0.07
0.01
0.10
0.10
0.21
0.15
0.08
0.03
0.04
0.09
0.09
0.04
0.04
0.09
0.07
0.09
0.35
0.15
0.63
0.72
0.61
0.66
0.64
0.58
0.58
0.13
0.18
0.07
0.04
0.02
0.00
0.01
0.01
0.01
0.01
0.01
0.03
0.07
0.08
0.12
0.12
0.15
0.15
0.19
0.21
0.25
0.25
0.21
0.21
0.21
0.15
0.14
0.06
0.01
0.00
0.01
0.01
0.00
0.00
0.00
0.00
0.00
0.01
0.01
0.01
0.01
0.01
0.01
0.01
0.01
0.00
0.00
0.00
0.00
0.01
0.00
0.00
0.01
0.02
0.02
0.01
0.04
0.04
0.02
0.04
0.07
0.02
0.02
0.04
0.04
0.04
0.04
0.02
0.02
0.02
0.04
0.02
0.02
0.01
0.03
0.03
0.08
0.15
0.15
0.08
0.01
0.04
0.16
0.16
0.16
0.13
0.09
0.13
0.13
0.07
0.06
0.59
0.80
0.66
0.85
0.68
0.64
0.56
0.02
0.00
0.00
0.01
0.01
0.06
0.10
0.10
0.12
0.12
0.15
0.14
0.21
0.15
0.19
0.21
0.21
0.25
0.29
0.32
0.29
0.29
0.26
0.21
0.19
0.15
0.10
0.03
0.00
0.02
0.04
0.04
0.01
0.00
0.00
0.00
0.03
0.03
0.01
0.01
0.06
0.03
0.07
0.06
0.06
0.06
0.06
0.06
0.07
0.08
0.08
0.07
0.08
0.06
0.07
0.08
0.07
0.06
0.03
0.01
0.01
0.01
0.01
0.00
0.01
0.00
0.00
0.00
0.00
0.00
0.00
0.01
0.08
0.03
0.12
0.10
0.29
0.15
0.06
0.01
0.09
0.13
0.13
0.09
0.07
0.09
0.09
0.09
0.18
0.25
0.63
0.73
0.75
0.84
0.64
0.61
0.55
0.07
0.09
0.04
0.01
0.00
0.01
0.00
0.00
0.01
0.01
0.01
0.01
0.06
0.07
0.07
0.08
0.12
0.12
0.12
0.14
0.14
0.10
0.10
0.08
0.03
0.00
0.01
0.02
0.13
0.16
0.18
0.16
0.09
0.04
0.02
0.01
0.00
0.00
0.01
0.00
0.00
0.01
0.00
0.00
0.00
0.01
0.00
0.01
0.01
0.01
0.01
0.01
0.00
0.01
0.00
0.01
0.00
0.01
0.01
0.00
0.00
0.00
0.00
0.00
0.00
0.01
0.01
0.01
0.01
0.01
0.01
0.00
0.00
0.03
0.00
0.07
0.07
0.21
0.12
0.03
0.00
0.13
0.18
0.13
0.13
0.09
0.09
0.09
0.09
0.28
0.19
0.60
0.73
0.72
0.79
0.63
0.60
0.57
0.21
0.18
0.13
0.13
0.04
0.07
0.04
0.01
0.00
0.00
0.00
0.01
0.00
0.00
0.00
0.01
0.01
0.03
0.00
0.00
0.01
0.01
0.00
0.02
0.07
0.13
0.16
0.18
0.28
0.24
0.24
0.16
0.07
0.07
0.04
0.01
0.00
0.01
0.00
0.00
0.00
0.01
0.01
0.00
0.00
0.00
0.01
0.01
0.00
0.00
0.00
0.00
0.00
0.00
0.00
0.01
0.00
0.00
0.01
0.00
0.01
0.00
0.01
0.01
0.01
0.02
0.07
0.04
0.04
0.01
0.01
0.01
0.00
0.01
0.01
0.21
0.12
0.01
0.00
0.16
0.21
0.13
0.09
0.09
0.16
0.18
0.09
0.32
0.14
0.63
0.69
0.64
0.64
0.63
0.58
0.55
0.07
0.13
0.04
0.01
0.01
0.01
0.00
0.00
0.01
0.01
0.01
0.03
0.03
0.03
0.07
0.07
0.08
0.10
0.07
0.08
0.08
0.08
0.08
0.03
0.01
0.00
0.00
0.02
0.02
0.02
0.04
0.04
0.00
0.00
0.00
0.00
0.00
0.01
0.01
0.03
0.01
0.06
0.03
0.03
0.06
0.07
0.06
0.07
0.07
0.03
0.06
0.06
0.06
0.07
0.06
0.03
0.06
0.01
0.03
0.01
0.01
0.00
0.01
0.00
0.01
0.00
0.01
0.00
0.00
0.03
0.14
0.07
0.15
0.15
0.29
0.15
0.08
0.01
0.04
0.02
0.01
0.01
0.01
0.00
0.01
0.00
0.00
0.56
0.73
0.43
0.77
0.77
0.65
0.58
0.32
0.00
0.00
0.01
0.06
0.08
0.12
0.14
0.14
0.15
0.15
0.21
0.21
0.25
0.25
0.26
0.29
0.35
0.35
0.41
0.38
0.38
0.35
0.32
0.29
0.21
0.15
0.10
0.01
0.00
0.00
0.01
0.00
0.01
0.03
0.07
0.08
0.10
0.10
0.08
0.08
0.08
0.10
0.12
0.12
0.12
0.10
0.14
0.14
0.14
0.14
0.14
0.14
0.12
0.14
0.14
0.14
0.12
0.10
0.08
0.10
0.07
0.08
0.08
0.07
0.07
0.07
0.07
0.07
0.07
0.07
0.12
0.15
0.10
0.21
0.26
0.35
0.21
0.12
0.00
0.01
0.00
0.01
0.00
0.00
0.00
0.00
0.00
0.00
0.56
0.75
0.56
0.77
0.69
0.64
0.57
0.07
0.00
0.01
0.03
0.06
0.07
0.10
0.12
0.12
0.14
0.12
0.15
0.15
0.21
0.21
0.21
0.21
0.21
0.26
0.29
0.26
0.29
0.25
0.21
0.15
0.14
0.12
0.06
0.01
0.00
0.00
0.00
0.01
0.06
0.08
0.12
0.12
0.15
0.15
0.19
0.15
0.15
0.14
0.14
0.15
0.15
0.15
0.15
0.14
0.14
0.15
0.14
0.14
0.12
0.10
0.10
0.12
0.10
0.10
0.08
0.07
0.10
0.08
0.07
0.07
0.10
0.07
0.08
0.08
0.08
0.08
0.08
0.07
0.14
0.15
0.12
0.19
0.21
0.35
0.21
0.12
0.00
0.02
0.02
0.01
0.00
0.00
0.00
0.01
0.01
0.01
0.50
0.73
0.55
0.73
0.67
0.63
0.57
0.18
0.02
0.01
0.00
0.01
0.00
0.01
0.01
0.03
0.06
0.01
0.06
0.08
0.08
0.08
0.08
0.08
0.10
0.08
0.08
0.07
0.01
0.06
0.01
0.01
0.01
0.01
0.01
0.09
0.13
0.13
0.07
0.04
0.00
0.00
0.00
0.00
0.01
0.00
0.00
0.00
0.00
0.00
0.01
0.01
0.00
0.00
0.00
0.00
0.00
0.00
0.00
0.01
0.00
0.00
0.00
0.00
0.01
0.00
0.01
0.01
0.00
0.02
0.01
0.04
0.02
0.02
0.04
0.04
0.04
0.01
0.02
0.01
0.01
0.15
0.06
0.01
0.01
0.24
0.32
0.24
0.28
0.21
0.35
0.28
0.32
0.44
0.07
0.56
0.63
0.64
0.65
0.64
0.58
0.58
0.28
0.38
0.18
0.16
0.07
0.13
0.09
0.04
0.02
0.01
0.01
0.01
0.01
0.00
0.00
0.01
0.00
0.01
0.00
0.00
0.01
0.00
0.02
0.02
0.09
0.09
0.13
0.21
0.21
0.28
0.24
0.24
0.21
0.16
0.13
0.09
0.07
0.09
0.07
0.02
0.02
0.04
0.02
0.02
0.01
0.01
0.01
0.00
0.01
0.02
0.01
0.02
0.01
0.02
0.02
0.02
0.02
0.01
0.02
0.02
0.02
0.04
0.02
0.04
0.02
0.04
0.07
0.04
0.02
0.00
0.01
0.01
0.01
0.08
0.08
0.00
0.01
0.21
0.35
0.35
0.32
0.28
0.24
0.32
0.24
0.28
0.13
0.38
0.72
0.60
0.81
0.77
0.67
0.58
0.41
0.18
0.16
0.09
0.09
0.01
0.01
0.00
0.00
0.00
0.00
0.01
0.01
0.06
0.07
0.08
0.10
0.14
0.15
0.19
0.21
0.19
0.19
0.14
0.15
0.08
0.06
0.01
0.01
0.07
0.09
0.09
0.07
0.04
0.02
0.01
0.00
0.01
0.00
0.01
0.00
0.00
0.00
0.00
0.00
0.00
0.01
0.00
0.00
0.01
0.00
0.01
0.00
0.01
0.01
0.01
0.01
0.01
0.02
0.04
0.02
0.04
0.07
0.04
0.09
0.09
0.07
0.07
0.07
0.07
0.09
0.13
0.02
0.01
0.02
0.01
0.01
0.08
0.01
0.01
0.13
0.32
0.28
0.24
0.21
0.21
0.18
0.18
0.21
0.16
0.38
0.71
0.58
0.78
0.77
0.65
0.58
0.43
0.13
0.13
0.04
0.02
0.01
0.01
0.00
0.01
0.00
0.01
0.03
0.01
0.07
0.07
0.10
0.12
0.14
0.15
0.15
0.14
0.14
0.12
0.08
0.06
0.03
0.01
0.01
0.02
0.09
0.09
0.07
0.04
0.01
0.01
0.00
0.00
0.01
0.00
0.01
0.00
0.00
0.01
0.01
0.01
0.01
0.01
0.03
0.01
0.06
0.06
0.06
0.01
0.01
0.01
0.01
0.03
0.01
0.01
0.01
0.01
0.01
