0.01
0.00
0.00
0.00
0.00
0.04
0.04
0.04
0.04
0.04
0.00
0.01
0.00
0.00
0.00
0.00
0.00
0.00
0.00
0.00
0.01
0.00
0.00
0.01
0.00
0.00
0.01
0.01
0.01
0.00
0.00
0.01
0.00
0.00
0.00
0.00
0.01
0.00
0.00
0.04
0.12
0.12
0.09
0.30
0.12
0.06
0.00
0.07
0.03
0.03
0.03
0.03
0.04
0.03
0.03
0.20
0.04
0.49
0.73
0.58
0.62
0.63
0.57
0.54
0.03
0.07
0.06
0.03
0.02
0.02
0.01
0.01
0.03
0.01
0.02
0.01
0.02
0.02
0.03
0.04
0.03
0.04
0.07
0.07
0.08
0.12
0.12
0.12
0.14
0.16
0.20
0.20
0.20
0.23
0.25
0.25
0.23
0.16
0.12
0.07
0.03
0.03
0.02
0.01
0.01
0.01
0.01
0.00
0.00
0.00
0.00
0.01
0.00
0.01
0.00
0.00
0.00
0.00
0.01
0.00
0.00
0.00
0.00
0.00
0.00
0.00
0.00
0.00
0.00
0.00
0.00
0.00
0.00
0.00
0.01
0.00
0.00
0.00
0.01
0.02
0.01
0.01
0.02
0.02
0.02
0.02
0.00
0.01
0.00
0.04
0.00
0.22
0.00
0.01
0.04
0.12
0.08
0.08
0.06
0.03
0.06
0.06
0.06
0.04
0.12
0.79
0.06
0.63
0.68
0.77
0.58
0.23
0.12
0.07
0.04
0.03
0.03
0.02
0.01
0.00
0.00
0.00
0.01
0.00
0.01
0.00
0.00
0.00
0.01
0.00
0.00
0.01
0.00
0.01
0.01
0.03
0.06
0.12
0.08
0.14
0.16
0.23
0.30
0.28
0.23
0.20
0.12
0.06
0.03
0.03
0.01
0.00
0.00
0.01
0.01
0.00
0.01
0.00
0.01
0.00
0.00
0.00
0.00
0.00
0.00
0.00
0.01
0.00
0.01
0.01
0.04
0.01
0.01
0.01
0.00
0.00
0.00
0.01
0.01
0.00
0.01
0.00
0.02
0.02
0.02
0.02
0.02
0.03
0.03
0.03
0.02
0.02
0.01
0.02
0.01
0.00
0.00
0.00
0.00
0.15
0.01
0.01
0.03
0.12
0.08
0.07
0.06
0.04
0.04
0.02
0.03
0.06
0.20
0.55
0.81
0.58
0.70
0.66
0.56
0.43
0.06
0.08
0.04
0.03
0.03
0.03
0.03
0.03
0.02
0.02
0.02
0.02
0.01
0.00
0.00
0.00
0.00
0.01
0.01
0.02
0.03
0.03
0.07
0.07
0.12
0.15
0.16
0.14
0.20
0.23
0.23
0.20
0.16
0.15
0.07
0.03
0.01
0.00
0.00
0.00
0.01
0.01
0.04
0.01
0.00
0.04
0.01
0.04
0.01
0.01
0.01
0.04
0.00
0.01
0.04
0.00
0.01
0.01
0.01
0.01
0.01
0.06
0.04
0.04
0.01
0.01
0.01
0.01
0.04
0.01
0.00
0.00
0.01
0.00
0.00
0.00
0.01
0.00
0.00
0.00
0.01
0.06
0.09
0.20
0.16
0.22
0.28
0.22
0.15
0.09
0.01
0.00
0.00
0.00
0.00
0.00
0.00
0.00
0.03
0.16
0.50
0.85
0.55
0.61
0.62
0.58
0.53
0.01
0.03
0.02
0.01
0.00
0.00
0.00
0.00
0.00
0.00
0.00
0.00
0.00
0.00
0.01
0.00
0.00
0.00
0.02
0.02
0.03
0.04
0.06
0.12
0.12
0.12
0.15
0.15
0.14
0.14
0.15
0.15
0.12
0.07
0.06
0.03
0.00
0.01
0.01
0.00
0.00
0.00
0.00
0.00
0.00
0.00
0.00
0.01
0.00
0.04
0.01
0.01
0.00
0.01
0.00
0.04
0.00
0.01
0.06
0.01
0.06
0.01
0.06
0.09
0.09
0.04
0.04
0.00
0.04
0.00
0.01
0.01
0.00
0.00
0.01
0.00
0.01
0.01
0.00
0.06
0.16
0.12
0.20
0.22
0.26
0.09
0.04
0.02
0.03
0.02
0.02
0.02
0.00
0.02
0.01
0.03
0.16
0.38
0.85
0.55
0.60
0.61
0.62
0.55
0.07
0.12
0.04
0.03
0.03
0.03
0.01
0.01
0.00
0.00
0.01
0.01
0.01
0.01
0.01
0.00
0.00
0.00
0.01
0.01
0.00
0.00
0.01
0.02
0.02
0.03
0.07
0.07
0.12
0.16
0.20
0.23
0.23
0.20
0.15
0.08
0.03
0.03
0.01
0.00
0.00
0.00
0.00
0.00
0.00
0.00
0.00
0.01
0.01
0.04
0.01
0.04
0.01
0.01
0.01
0.06
0.04
0.06
0.06
0.06
0.06
0.04
0.06
0.04
0.06
0.04
0.04
0.00
0.01
0.01
0.00
0.00
0.00
0.00
0.00
0.00
0.01
0.00
0.00
0.00
0.09
0.12
0.06
0.15
0.12
0.22
0.04
0.00
0.03
0.07
0.03
0.03
0.02
0.01
0.01
0.01
0.00
0.09
0.39
0.93
0.55
0.68
0.63
0.70
0.54
0.04
0.04
0.02
0.01
0.00
0.01
0.00
0.00
0.00
0.00
0.00
0.00
0.00
0.00
0.01
0.00
0.00
0.00
0.00
0.00
0.01
0.01
0.02
0.02
0.04
0.06
0.08
0.12
0.15
0.16
0.20
0.23
0.16
0.16
0.08
0.03
0.02
0.00
0.00
0.01
0.00
0.00
0.00
0.00
0.00
0.00
0.00
0.00
0.01
0.00
0.00
0.00
0.00
0.00
0.00
0.04
0.04
0.06
0.04
0.01
0.01
0.01
0.04
0.01
0.01
0.00
0.01
0.04
0.00
0.00
0.00
0.00
0.00
0.00
0.00
0.00
0.00
0.00
0.00
0.00
0.04
0.15
0.04
0.16
0.15
0.22
0.01
0.00
0.03
0.07
0.03
0.03
0.02
0.02
0.01
0.01
0.02
0.04
0.32
0.92
0.50
0.63
0.62
0.62
0.56
0.03
0.07
0.03
0.03
0.02
0.02
0.01
0.01
0.01
0.00
0.00
0.00
0.01
0.01
0.00
0.01
0.02
0.03
0.06
0.06
0.08
0.12
0.15
0.14
0.14
0.23
0.25
0.23
0.16
0.25
0.28
0.28
0.23
0.20
0.15
0.08
0.04
0.03
0.02
0.01
0.01
0.01
0.01
0.00
0.01
0.00
0.01
0.01
0.01
0.00
0.00
0.00
0.00
0.00
0.04
0.04
0.01
0.01
0.04
0.01
0.06
0.01
0.04
0.00
0.00
0.00
0.00
0.00
0.00
0.00
0.00
0.00
0.00
0.00
0.00
0.01
0.00
0.00
0.00
0.01
0.01
0.09
0.04
0.12
0.09
0.30
0.09
0.09
0.00
0.04
0.02
0.03
0.02
0.00
0.03
0.03
0.04
0.15
0.06
0.57
0.60
0.60
0.62
0.67
0.58
0.50
0.08
0.12
0.07
0.07
0.04
0.04
0.03
0.03
0.03
0.04
0.03
0.03
0.03
0.03
0.03
0.04
0.06
0.07
0.08
0.12
0.08
0.12
0.15
0.14
0.16
0.16
0.14
0.14
0.20
0.23
0.23
0.23
0.12
0.12
0.06
0.03
0.01
0.00
0.00
0.00
0.00
0.00
0.00
0.01
0.00
0.01
0.00
0.04
0.00
0.04
0.01
0.01
0.00
0.01
0.01
0.00
0.00
0.00
0.00
0.00
0.00
0.01
0.01
0.00
0.01
0.01
0.01
0.01
0.00
0.01
0.02
0.01
0.02
0.02
0.01
0.01
0.02
0.00
0.00
0.00
0.01
0.06
0.00
0.22
0.01
0.00
0.00
0.08
0.07
0.04
0.03
0.02
0.03
0.02
0.03
0.04
0.30
0.60
0.74
0.61
0.83
0.73
0.58
0.45
0.04
0.04
0.03
0.02
0.01
0.01
0.01
0.01
0.01
0.01
0.00
0.01
0.00
0.00
0.00
0.00
0.00
0.00
0.00
0.00
0.01
0.00
0.02
0.03
0.04
0.06
0.08
0.12
0.14
0.20
0.20
0.16
0.15
0.08
0.03
0.01
0.00
0.00
0.01
0.00
0.01
0.01
0.04
0.04
0.00
0.04
0.09
0.06
0.09
0.01
0.06
0.06
0.09
0.06
0.06
0.09
0.09
0.09
0.12
0.06
0.09
0.06
0.04
0.04
0.00
0.00
0.00
0.00
0.01
0.00
0.00
0.01
0.00
0.00
0.01
0.00
0.00
0.00
0.00
0.00
0.00
0.00
0.01
0.06
0.06
0.15
0.20
0.15
0.04
0.01
0.06
0.06
0.04
0.04
0.03
0.03
0.04
0.03
0.07
0.12
0.47
0.89
0.59
0.70
0.63
0.60
0.54
0.03
0.06
0.04
0.03
0.01
0.01
0.01
0.00
0.00
0.00
0.00
0.00
0.00
0.00
0.00
0.00
0.00
0.00
0.00
0.02
0.03
0.04
0.07
0.15
0.14
0.16
0.16
0.23
0.25
0.28
0.30
0.23
0.23
0.15
0.12
0.03
0.01
0.00
0.00
0.00
0.00
0.00
0.00
0.01
0.00
0.00
0.04
0.01
0.01
0.01
0.01
0.01
0.01
0.01
0.04
0.01
0.00
0.06
0.01
0.04
0.01
0.01
0.01
0.04
0.06
0.04
0.01
0.04
0.01
0.06
0.01
0.00
0.00
0.00
0.00
0.01
0.00
0.00
0.01
0.00
0.01
0.01
0.00
0.01
0.00
0.00
0.01
0.06
0.04
0.06
0.22
0.16
0.06
0.00
0.07
0.06
0.03
0.03
0.02
0.01
0.03
0.01
0.04
0.06
0.30
0.87
0.56
0.60
0.61
0.58
0.54
0.06
0.12
0.04
0.03
0.03
0.03
0.03
0.00
0.01
0.01
0.02
0.00
0.01
0.02
0.02
0.02
0.03
0.04
0.04
0.08
0.08
0.16
0.12
0.14
0.20
0.23
0.20
0.23
0.23
0.23
0.30
0.23
0.25
0.12
0.07
0.04
0.03
0.01
0.00
0.00
0.00
0.00
0.00
0.00
0.00
0.00
0.00
0.00
0.01
0.00
0.00
0.01
0.00
0.00
0.00
0.00
0.00
0.00
0.00
0.00
0.00
0.00
0.00
0.00
0.00
0.00
0.00
0.01
0.01
0.00
0.01
0.01
0.00
0.02
0.00
0.01
0.00
0.00
0.00
0.02
0.01
0.02
0.01
0.00
0.04
0.04
0.04
0.25
0.16
0.04
0.00
0.06
0.06
0.03
0.06
0.03
0.04
0.04
0.03
0.14
0.09
0.48
0.81
0.58
0.62
0.67
0.58
0.55
0.12
0.14
0.12
0.12
0.12
0.08
0.08
0.08
0.06
0.06
0.04
0.06
0.03
0.03
0.03
0.01
0.03
0.01
0.01
0.01
0.01
0.02
0.01
0.02
0.03
0.07
0.07
0.08
0.12
0.16
0.16
0.20
0.20
0.12
0.07
0.04
0.02
0.02
0.01
0.01
0.00
0.00
0.00
0.00
0.00
0.00
0.00
0.00
0.01
0.00
0.00
0.00
0.00
0.00
0.00
0.00
0.00
0.00
0.00
0.00
0.00
0.00
0.00
0.00
0.00
0.00
0.00
0.00
0.00
0.01
0.00
0.01
0.00
0.01
0.02
0.02
0.02
0.02
0.02
0.03
0.02
0.03
0.02
0.02
0.02
0.01
0.04
0.01
0.06
0.15
0.15
0.00
0.00
0.07
0.08
0.04
0.04
0.04
0.02
0.03
0.03
0.06
0.15
0.44
0.90
0.59
0.80
0.63
0.63
0.56
0.04
0.08
0.04
0.04
0.03
0.03
0.03
0.03
0.03
0.03
0.02
0.03
0.03
0.03
0.03
0.03
0.02
0.04
0.03
0.07
0.07
0.08
0.08
0.12
0.14
0.16
0.20
0.20
0.23
0.25
0.30
0.32
0.23
0.16
0.12
0.07
0.03
0.00
0.01
0.00
0.00
0.00
0.00
0.01
0.00
0.01
0.01
0.01
0.06
0.06
0.09
0.09
0.09
0.09
0.12
0.15
0.12
0.06
0.09
0.06
0.04
0.06
0.01
0.01
0.00
0.04
0.01
0.01
0.01
0.00
0.01
0.00
0.00
0.00
0.00
0.00
0.00
0.00
0.00
0.00
0.00
0.00
0.00
0.00
0.00
0.00
0.01
0.06
0.20
0.15
0.15
0.26
0.16
0.04
0.00
0.07
0.03
0.03
0.03
0.02
0.02
0.01
0.01
0.03
0.16
0.47
0.92
0.55
0.63
0.62
0.60
0.56
0.03
0.08
0.04
0.03
0.02
0.02
0.00
0.01
0.00
0.00
0.01
0.01
0.00
0.00
0.01
0.00
0.02
0.03
0.03
0.07
0.12
0.12
0.14
0.20
0.23
0.30
0.30
0.30
0.30
0.32
0.32
0.32
0.28
0.20
0.12
0.04
0.03
0.01
0.01
0.00
0.00
0.00
0.01
0.00
0.00
0.00
0.04
0.04
0.01
0.04
0.06
0.04
0.04
0.00
0.04
0.04
0.04
0.00
0.00
0.00
0.00
0.00
0.01
0.01
0.00
0.00
0.00
0.00
0.00
0.00
0.00
0.00
0.01
0.00
0.00
0.00
0.00
0.00
0.01
0.01
0.01
0.00
0.01
0.00
0.01
0.01
0.01
0.01
0.06
0.12
0.04
0.30
0.04
0.01
0.01
0.12
0.07
0.03
0.04
0.04
0.07
0.04
0.07
0.08
0.00
0.68
0.01
0.60
0.62
0.63
0.58
0.30
0.08
0.07
0.06
0.03
0.03
0.03
0.03
0.02
0.00
0.02
0.00
0.01
0.00
0.00
0.00
0.00
0.02
0.02
0.03
0.03
0.04
0.04
0.07
0.07
0.08
0.12
0.12
0.12
0.15
0.16
0.20
0.14
0.14
0.08
0.04
0.02
0.00
0.01
0.01
0.00
0.00
0.00
0.00
0.00
0.00
0.00
0.00
0.00
0.00
0.00
0.01
0.00
0.01
0.00
0.00
0.00
0.00
0.01
0.01
0.02
0.03
0.02
0.03
0.03
0.03
0.03
0.02
0.02
0.02
0.02
0.02
0.02
0.01
0.02
0.01
0.01
0.03
0.02
0.02
0.02
0.03
0.02
0.00
0.00
0.00
0.06
0.01
0.26
0.00
0.00
0.03
0.12
0.07
0.07
0.04
0.04
0.04
0.04
0.04
0.03
0.22
0.85
0.12
0.63
0.73
0.82
0.56
0.14
0.12
0.08
0.06
0.03
0.03
0.03
0.03
0.02
0.01
0.01
0.01
0.00
0.01
0.00
0.01
0.00
0.00
0.00
0.01
0.00
0.00
0.01
0.03
0.03
0.04
0.06
0.08
0.12
0.14
0.20
0.20
0.20
0.14
0.12
0.04
0.02
0.00
0.00
0.00
0.00
0.00
0.00
0.00
0.00
0.00
0.00
0.00
0.00
0.00
0.00
0.00
0.01
0.01
0.01
0.04
0.01
0.01
0.04
0.04
0.04
0.04
0.04
0.06
0.06
0.09
0.04
0.04
0.04
0.09
0.04
0.06
0.01
0.04
0.04
0.06
0.01
0.04
0.04
0.06
0.06
0.04
0.01
0.04
0.12
0.16
0.16
0.20
0.28
0.15
0.09
0.01
0.03
0.03
0.02
0.00
0.00
0.00
0.01
0.00
0.01
0.26
0.47
0.92
0.54
0.65
0.62
0.62
0.55
0.02
0.07
0.03
0.02
0.02
0.02
0.01
0.01
0.00
0.01
0.01
0.01
0.01
0.00
0.00
0.00
0.01
0.03
0.03
0.04
0.06
0.07
0.08
0.15
0.16
0.20
0.25
0.25
0.28
0.30
0.35
0.28
0.25
0.16
0.15
0.06
0.03
0.01
0.00
0.00
0.00
0.00
0.00
0.00
0.00
0.00
0.00
0.00
0.00
0.00
0.00
0.00
0.00
0.00
0.00
0.00
0.00
0.00
0.00
0.00
0.00
0.00
0.00
0.01
0.01
0.01
0.01
0.01
0.01
0.04
0.01
0.04
0.01
0.04
0.06
0.00
0.01
0.01
0.01
0.00
0.01
0.00
0.00
0.06
0.12
0.12
0.12
0.32
0.06
0.04
0.00
0.04
0.02
0.02
0.01
0.01
0.00
0.00
0.00
0.08
0.22
0.55
0.81
0.58
0.60
0.62
0.55
0.50
0.03
0.07
0.04
0.02
0.01
0.02
0.00
0.01
0.00
0.00
0.00
0.01
0.01
0.03
0.03
0.03
0.03
0.04
0.07
0.08
0.12
0.12
0.16
0.16
0.20
0.28
0.23
0.28
0.28
0.32
0.25
0.20
0.16
0.14
0.06
0.03
0.01
0.00
0.00
0.00
0.00
0.00
0.01
0.01
0.01
0.00
0.01
0.00
0.00
0.01
0.01
0.01
0.00
0.00
0.00
0.02
0.01
0.01
0.00
0.00
0.00
0.01
0.01
0.00
0.00
0.00
0.01
0.00
0.00
0.00
0.00
0.01
0.00
0.00
0.00
0.01
0.00
0.00
0.00
0.06
0.15
0.12
0.20
0.15
0.38
0.04
0.06
0.00
0.04
0.03
0.03
0.02
0.02
0.03
0.03
0.06
0.00
0.15
0.78
0.16
0.61
0.63
0.62
0.57
0.23
0.08
0.03
0.03
0.02
0.02
0.01
0.01
0.00
0.00
0.00
0.01
0.01
0.01
0.00
0.00
0.00
0.01
0.01
0.02
0.03
0.03
0.03
0.04
0.04
0.06
0.08
0.12
0.12
0.15
0.16
0.16
0.16
0.14
0.12
0.06
0.03
0.02
0.01
0.01
0.00
0.00
0.00
0.00
0.01
0.00
0.01
0.01
0.01
0.01
0.00
0.01
0.00
0.00
0.00
0.00
0.00
0.00
0.00
0.00
0.00
0.00
0.00
0.00
0.00
0.00
0.00
0.00
0.00
0.00
0.00
0.00
0.00
0.00
0.01
0.01
0.01
0.01
0.00
0.01
0.01
0.01
0.01
0.00
0.00
0.09
0.04
0.15
0.00
0.00
0.03
0.07
0.04
0.04
0.03
0.00
0.01
0.00
0.01
0.15
0.30
0.93
0.56
0.70
0.65
0.79
0.54
0.04
0.04
0.02
0.02
0.01
0.01
0.01
0.00
0.00
0.00
0.00
0.00
0.00
0.00
0.00
0.00
0.00
0.00
0.00
0.01
0.00
0.01
0.01
0.02
0.04
0.08
0.12
0.12
0.15
0.16
0.25
0.28
0.20
0.15
0.08
0.04
0.03
0.01
0.00
0.00
0.00
0.00
0.00
0.01
0.00
0.01
0.00
0.00
0.00
0.04
0.00
0.01
0.00
0.01
0.04
0.04
0.00
0.01
0.04
0.06
0.04
0.06
0.06
0.04
0.06
0.04
0.01
0.01
0.00
0.01
0.00
0.01
0.00
0.00
0.00
0.00
0.00
0.00
0.00
0.00
0.00
0.00
0.00
0.00
0.00
0.04
0.00
0.09
0.01
0.15
0.01
0.01
0.12
0.12
0.07
0.08
0.06
0.03
0.04
0.03
0.04
0.06
0.34
0.92
0.55
0.66
0.63
0.63
0.55
0.04
0.12
0.07
0.04
0.03
0.03
0.02
0.03
0.03
0.02
0.02
0.02
0.03
0.03
0.03
0.03
0.03
0.03
0.04
0.06
0.06
0.12
0.15
0.16
0.23
0.28
0.30
0.35
0.35
0.41
0.45
0.41
0.35
0.30
0.23
0.14
0.07
0.04
0.03
0.02
0.03
0.01
0.01
0.01
0.00
0.00
0.00
0.00
0.01
0.00
0.00
0.00
0.00
0.00
0.00
0.00
0.01
0.00
0.00
0.01
0.01
0.01
0.00
0.00
0.00
0.00
0.00
0.01
0.01
0.01
0.01
0.01
0.02
0.02
0.03
0.03
0.02
0.03
0.03
0.01
0.02
0.03
0.02
0.02
0.03
0.01
0.00
0.01
0.01
0.01
0.00
0.20
0.00
0.00
0.02
0.12
0.07
0.06
0.06
0.06
0.07
0.06
0.06
0.16
0.00
0.49
0.68
0.58
0.62
0.65
0.58
0.53
0.12
0.14
0.12
0.12
0.12
0.06
0.04
0.04
0.06
0.06
0.04
0.06
0.04
0.06
0.07
0.07
0.07
0.07
0.08
0.15
0.15
0.14
0.14
0.20
0.28
0.28
0.25
0.28
0.25
0.25
0.28
0.25
0.16
0.14
0.08
0.06
0.03
0.00
0.00
0.01
0.00
0.00
0.01
0.00
0.01
0.00
0.01
0.01
0.00
0.00
0.01
0.00
0.02
0.01
0.00
0.01
0.00
0.02
0.02
0.01
0.02
0.00
0.00
0.02
0.00
0.00
0.01
0.01
0.00
0.00
0.00
0.01
0.01
0.02
0.00
0.00
0.00
0.00
0.02
0.02
0.03
0.03
0.03
0.01
0.00
0.01
0.04
0.01
0.26
0.04
0.00
0.00
0.06
0.03
0.03
0.03
0.03
0.04
0.03
0.04
0.12
0.06
0.66
0.30
0.61
0.62
0.67
0.59
0.43
0.07
0.06
0.04
0.04
0.02
0.02
0.02
0.02
0.02
0.01
0.00
0.01
0.00
0.01
0.00
0.00
0.00
0.00
0.00
0.00
0.00
0.00
0.00
0.00
0.01
0.03
0.03
0.03
0.08
0.15
0.23
0.20
0.14
0.12
0.08
0.06
0.03
0.03
0.01
0.00
0.01
0.02
0.02
0.01
0.01
0.01
0.02
0.01
0.01
0.01
0.01
0.00
0.00
0.00
0.01
0.00
0.00
0.00
0.01
0.01
0.01
0.00
0.00
0.01
0.00
0.00
0.00
0.01
0.01
0.00
0.00
0.01
0.00
0.01
0.00
0.00
0.00
0.01
0.01
0.01
0.01
0.01
0.00
0.00
0.00
0.04
0.06
0.01
0.26
0.01
0.01
0.01
0.12
0.08
0.08
0.08
0.07
0.07
0.07
0.07
0.15
0.15
0.74
0.16
0.63
0.83
0.84
0.59
0.38
0.15
0.14
0.12
0.04
0.04
0.03
0.03
0.03
0.02
0.01
0.00
0.00
0.01
0.00
0.00
0.00
0.01
0.01
0.00
0.01
0.01
0.02
0.04
0.08
0.12
0.15
0.15
0.20
0.23
0.30
0.28
0.30
0.23
0.14
0.12
0.04
0.02
0.02
0.01
0.00
0.00
0.01
0.00
0.01
0.01
0.00
0.01
0.00
0.00
0.01
0.01
0.01
0.00
0.00
0.00
0.00
0.00
0.00
0.01
0.00
0.00
0.00
0.00
0.00
0.00
0.00
0.01
0.00
0.01
0.01
0.01
0.01
0.00
0.00
0.01
0.01
0.00
0.00
0.01
0.01
0.00
0.01
0.01
0.00
0.00
0.06
0.01
0.12
0.12
0.15
0.00
0.00
0.07
0.08
0.04
0.07
0.04
0.03
0.04
0.03
0.03
0.00
0.30
0.92
0.56
0.63
0.63
0.63
0.55
0.04
0.12
0.04
0.03
0.02
0.02
0.01
0.02
0.00
0.01
0.01
0.00
0.01
0.01
0.00
0.01
0.03
0.03
0.06
0.07
0.07
0.12
0.14
0.20
0.23
0.30
0.30
0.32
0.41
0.41
0.32
0.35
0.32
0.25
0.16
0.08
0.04
0.03
0.02
0.02
0.01
0.00
0.01
0.00
0.01
0.01
0.00
0.00
0.00
0.01
0.01
0.01
0.00
0.00
0.01
0.00
0.00
0.00
0.01
0.00
0.00
0.01
0.01
0.01
0.00
0.01
0.00
0.00
0.01
0.00
0.00
0.00
0.00
0.00
0.00
0.00
0.00
0.00
0.00
0.00
0.00
0.00
0.01
0.00
0.00
0.04
0.12
0.06
0.16
0.15
0.30
0.06
0.04
0.01
0.03
0.01
0.01
0.00
0.01
0.01
0.00
0.01
0.01
0.22
0.81
0.23
0.59
0.58
0.61
0.54
0.06
0.04
0.02
0.01
0.00
0.01
0.00
0.01
0.01
0.01
0.00
0.01
0.00
0.01
0.02
0.04
0.03
0.07
0.04
0.08
0.12
0.12
0.14
0.16
0.20
0.25
0.28
0.28
0.28
0.28
0.30
0.25
0.14
0.15
0.08
0.04
0.03
0.01
0.00
0.01
0.01
0.01
0.01
0.00
0.01
0.00
0.00
0.00
0.01
0.00
0.00
0.00
0.00
0.00
0.01
0.01
0.00
0.00
0.01
0.00
0.01
0.00
0.01
0.00
0.00
0.00
0.00
0.00
0.00
0.01
0.01
0.01
0.00
0.00
0.02
0.01
0.01
0.01
0.01
0.01
0.01
0.00
0.01
0.04
0.01
0.22
0.06
0.00
0.00
0.07
0.03
0.03
0.03
0.02
0.03
0.03
0.03
0.12
0.16
0.57
0.70
0.60
0.62
0.66
0.59
0.48
0.03
0.06
0.03
0.01
0.01
0.00
0.00
0.01
0.00
0.00
0.00
0.00
0.01
0.01
0.00
0.00
0.01
0.00
0.00
0.00
0.01
0.01
0.03
0.03
0.07
0.07
0.12
0.12
0.23
0.23
0.25
0.25
0.20
0.14
0.08
0.03
0.03
0.01
0.01
0.01
0.00
0.00
0.00
0.01
0.00
0.01
0.04
0.04
0.06
0.04
0.06
0.06
0.04
0.04
0.04
0.00
0.06
0.06
0.06
0.04
0.04
0.04
0.04
0.06
0.06
0.04
0.01
0.04
0.04
0.01
0.01
0.00
0.01
0.01
0.01
0.00
0.00
0.00
0.00
0.00
0.00
0.00
0.00
0.12
0.04
0.15
0.09
0.26
0.00
0.00
0.03
0.07
0.06
0.04
0.03
0.01
0.02
0.01
0.02
0.00
0.38
0.92
0.48
0.63
0.65
0.73
0.55
0.06
0.03
0.03
0.01
0.01
0.00
0.00
0.00
0.00
0.00
0.00
0.00
0.00
0.00
0.00
0.00
0.00
0.00
0.00
0.01
0.02
0.02
0.03
0.06
0.12
0.12
0.15
0.15
0.14
0.23
0.25
0.25
0.23
0.14
0.08
0.04
0.01
0.01
0.00
0.00
0.00
0.00
0.00
0.00
0.00
0.00
0.00
0.00
0.00
0.00
0.00
0.01
0.00
0.00
0.00
0.01
0.00
0.00
0.00
0.01
0.00
0.00
0.00
0.00
0.00
0.00
0.00
0.00
0.00
0.00
0.00
0.00
0.00
0.00
0.00
0.00
0.00
0.00
0.01
0.00
0.00
0.00
0.00
0.00
0.00
0.00
0.00
0.06
0.01
0.16
0.00
0.26
0.00
0.01
0.03
0.12
0.07
0.07
0.03
0.04
0.04
0.03
0.03
0.04
0.26
0.81
0.00
0.63
0.65
0.75
0.54
0.14
0.07
0.04
0.03
0.02
0.03
0.01
0.00
0.00
0.01
0.01
0.00
0.01
0.00
0.01
0.00
0.01
0.00
0.03
0.03
0.07
0.12
0.15
0.16
0.25
0.28
0.32
0.32
0.32
0.35
0.38
0.38
0.35
0.25
0.15
0.12
0.04
0.03
0.02
0.01
0.01
0.00
0.00
0.00
0.00
0.00
0.00
0.00
0.01
0.00
0.01
0.00
0.01
0.04
0.04
0.00
0.06
0.04
0.00
0.01
0.00
0.01
0.00
0.00
0.00
0.00
0.00
0.00
0.00
0.00
0.00
0.00
0.00
0.00
0.00
0.00
0.00
0.00
0.00
0.00
0.00
0.00
0.00
0.09
0.12
0.06
0.15
0.16
0.22
0.15
0.01
0.02
0.06
0.02
0.02
0.01
0.01
0.03
0.02
0.03
0.01
0.26
0.83
0.53
0.61
0.63
0.63
0.58
0.20
0.16
0.15
0.08
0.12
0.07
0.07
0.06
0.04
0.04
0.04
0.04
0.04
0.04
0.04
0.04
0.07
0.07
0.07
0.12
0.12
0.12
0.14
0.14
0.20
0.16
0.23
0.23
0.25
0.25
0.28
0.25
0.23
0.14
0.12
0.08
0.03
0.03
0.01
0.01
0.00
0.01
0.01
0.01
0.01
0.00
0.01
0.00
0.01
0.00
0.01
0.00
0.01
0.01
0.00
0.00
0.01
0.01
0.00
0.01
0.00
0.00
0.01
0.00
0.00
0.00
0.01
0.00
0.00
0.00
0.01
0.01
0.00
0.01
0.01
0.01
0.03
0.02
0.03
0.03
0.02
0.01
0.01
0.00
0.01
0.16
0.00
0.00
0.04
0.12
0.12
0.08
0.07
0.04
0.06
0.06
0.04
0.07
0.20
0.51
0.83
0.62
0.83
0.68
0.60
0.55
0.03
0.07
0.04
0.03
0.02
0.00
0.01
0.00
0.02
0.00
0.01
0.01
0.00
0.01
0.00
0.01
0.00
0.00
0.00
0.00
0.01
0.00
0.02
0.03
0.04
0.08
0.12
0.12
0.14
0.20
0.25
0.28
0.23
0.14
0.12
0.04
0.03
0.01
0.01
0.01
0.00
0.01
0.00
0.01
0.00
0.00
0.01
0.01
0.00
0.00
0.00
0.00
0.00
0.00
0.00
0.00
0.00
0.00
0.00
0.00
0.01
0.01
0.00
0.01
0.00
0.00
0.00
0.00
0.00
0.00
0.00
0.00
0.00
0.00
0.01
0.00
0.00
0.00
0.00
0.00
0.00
0.00
0.00
0.00
0.01
0.01
0.00
0.00
0.00
0.04
0.00
0.16
0.00
0.01
0.03
0.14
0.12
0.07
0.03
0.03
0.03
0.03
0.03
0.08
0.26
0.70
0.66
0.60
0.75
0.70
0.55
0.38
0.03
0.06
0.02
0.00
0.01
0.01
0.01
0.01
0.01
0.00
0.00
0.01
0.01
0.01
0.01
0.02
0.03
0.03
0.03
0.07
0.07
0.12
0.14
0.20
0.23
0.30
0.28
0.32
0.38
0.38
0.38
0.32
0.28
0.23
0.14
0.07
0.04
0.03
0.02
0.01
0.01
0.00
0.00
0.00
0.00
0.00
0.00
0.00
0.00
0.00
0.01
0.04
0.01
0.06
0.04
0.01
0.12
0.12
0.09
0.09
0.06
0.06
0.06
0.09
0.04
0.04
0.01
0.01
0.06
0.04
0.00
0.00
0.00
0.00
0.00
0.00
0.00
0.00
0.01
0.00
0.01
0.00
0.01
0.00
0.00
0.01
0.00
0.00
0.00
0.01
0.00
0.16
0.04
0.01
0.01
0.06
0.07
0.03
0.02
0.01
0.00
0.01
0.01
0.01
0.01
0.38
0.89
0.41
0.58
0.60
0.63
0.55
0.03
0.04
0.02
0.02
0.00
0.01
0.01
0.00
0.00
0.00
0.00
0.00
0.00
0.00
0.01
0.01
0.00
0.01
0.03
0.03
0.06
0.08
0.12
0.15
0.16
0.23
0.23
0.23
0.23
0.25
0.25
0.25
0.20
0.16
0.12
0.03
0.03
0.01
0.01
0.00
0.00
0.00
0.00
0.00
0.00
0.00
0.00
0.00
0.00
0.04
0.01
0.01
0.00
0.04
0.04
0.00
0.01
0.00
0.00
0.01
0.00
0.01
0.00
0.00
0.00
0.00
0.00
0.00
0.00
0.00
0.00
0.00
0.00
0.00
0.01
0.01
0.00
0.01
0.01
0.01
0.00
0.00
0.00
0.00
0.00
0.00
0.04
0.01
0.26
0.06
0.04
0.04
0.03
0.03
0.01
0.01
0.01
0.01
0.00
0.01
0.08
0.12
0.47
0.80
0.58
0.58
0.63
0.59
0.56
0.03
0.06
0.02
0.02
0.01
0.01
0.01
0.00
0.01
0.00
0.00
0.00
0.00
0.00
0.01
0.01
0.01
0.01
0.01
0.03
0.04
0.03
0.06
0.07
0.12
0.14
0.14
0.16
0.23
0.25
0.28
0.28
0.16
0.14
0.12
0.06
0.03
0.01
0.00
0.01
0.01
0.00
0.00
0.01
0.00
0.00
0.00
0.01
0.00
0.00
0.00
0.00
0.01
0.00
0.00
0.01
0.01
0.01
0.00
0.01
0.01
0.01
0.01
0.01
0.01
0.00
0.01
0.00
0.00
0.01
0.01
0.01
0.00
0.00
0.01
0.00
0.00
0.00
0.00
0.02
0.01
0.01
0.01
0.00
0.00
0.04
0.01
0.22
0.00
0.00
0.02
0.12
0.12
0.07
0.07
0.06
0.06
0.06
0.06
0.15
0.15
0.64
0.55
0.62
0.77
0.77
0.59
0.50
0.08
0.12
0.08
0.07
0.04
0.03
0.02
0.01
0.01
0.01
0.00
0.01
0.01
0.00
0.01
0.01
0.00
0.01
0.00
0.01
0.03
0.03
0.04
0.08
0.12
0.14
0.14
0.20
0.25
0.30
0.32
0.35
0.28
0.25
0.14
0.12
0.06
0.04
0.02
0.01
0.02
0.00
0.00
0.01
0.00
0.01
0.00
0.00
0.00
0.01
0.01
0.00
0.01
0.00
0.00
0.01
0.01
0.00
0.01
0.00
0.00
0.00
0.00
0.01
0.00
0.00
0.00
0.00
0.00
0.00
0.00
0.01
0.01
0.01
0.02
0.02
0.02
0.02
0.03
0.02
0.02
0.03
0.01
0.03
0.02
0.03
0.01
0.00
0.00
0.00
0.02
0.12
0.00
0.01
0.03
0.12
0.12
0.12
0.07
0.06
0.08
0.08
0.08
0.16
0.09
0.62
0.61
0.62
0.68
0.75
0.56
0.43
0.08
0.12
0.07
0.03
0.03
0.03
0.03
0.02
0.02
0.02
0.01
0.02
0.01
0.01
0.02
0.03
0.03
0.06
0.07
0.07
0.12
0.15
0.14
0.23
0.28
0.28
0.28
0.30
0.32
0.35
0.38
0.38
0.30
0.20
0.12
0.07
0.03
0.03
0.01
0.00
0.00
0.01
0.00
0.01
0.00
0.00
0.01
0.00
0.01
0.01
0.01
0.01
0.00
0.01
0.00
0.00
0.00
0.01
0.00
0.01
0.01
0.01
0.00
0.01
0.00
0.00
0.00
0.00
0.00
0.01
0.00
0.00
0.01
0.00
0.00
0.00
0.00
0.00
0.00
0.00
0.00
0.00
0.01
0.00
0.01
0.00
0.09
0.09
0.09
0.12
0.01
0.01
0.06
0.03
0.03
0.03
0.04
0.06
0.06
0.08
0.01
0.16
0.80
0.56
0.61
0.63
0.61
0.56
0.16
0.16
0.08
0.06
0.04
0.03
0.03
0.03
0.02
0.02
0.02
0.03
0.02
0.03
0.02
0.02
0.03
0.03
0.03
0.06
0.06
0.06
0.08
0.12
0.12
0.15
0.14
0.14
0.20
0.20
0.16
0.16
0.16
0.14
0.07
0.03
0.02
0.00
0.01
0.00
0.00
0.01
0.00
0.01
0.01
0.01
0.01
0.01
0.01
0.01
0.00
0.00
0.00
0.01
0.01
0.01
0.01
0.01
0.01
0.01
0.02
0.02
0.02
0.02
0.03
0.03
0.03
0.03
0.03
0.03
0.03
0.03
0.03
0.03
0.03
0.03
0.04
0.03
0.03
0.03
0.01
0.01
0.00
0.01
0.16
0.00
0.01
0.01
0.08
0.12
0.06
0.07
0.06
0.06
0.06
0.03
0.07
0.15
0.44
0.87
0.60
0.82
0.70
0.61
0.55
0.07
0.08
0.03
0.03
0.03
0.02
0.01
0.01
0.00
0.01
0.01
0.00
0.01
0.01
0.00
0.00
0.00
0.00
0.01
0.01
0.02
0.02
0.03
0.04
0.07
0.12
0.12
0.14
0.20
0.23
0.30
0.30
0.23
0.16
0.12
0.08
0.04
0.02
0.01
0.02
0.01
0.00
0.01
0.01
0.01
0.00
0.00
0.01
0.01
0.00
0.00
0.00
0.00
0.00
0.00
0.00
0.00
0.00
0.00
0.00
0.00
0.00
0.01
0.00
0.01
0.01
0.01
0.02
0.00
0.02
0.02
0.02
0.02
0.03
0.02
0.02
0.01
0.03
0.02
0.03
0.03
0.02
0.03
0.03
0.03
0.03
0.00
0.00
0.00
0.01
0.12
0.00
0.00
0.03
0.14
0.15
0.12
0.08
0.07
0.07
0.06
0.06
0.12
0.16
0.66
0.67
0.61
0.71
0.71
0.57
0.43
0.04
0.08
0.04
0.02
0.02
0.00
0.00
0.00
0.00
0.01
0.01
0.00
0.00
0.02
0.00
0.01
0.02
0.03
0.04
0.06
0.08
0.08
0.12
0.14
0.23
0.30
0.30
0.32
0.38
0.43
0.41
0.38
0.32
0.25
0.16
0.12
0.04
0.03
0.01
0.00
0.01
0.00
0.01
0.01
0.01
0.00
0.00
0.00
0.00
0.00
0.00
0.00
0.00
0.00
0.01
0.01
0.01
0.01
0.00
0.00
0.00
0.00
0.01
0.00
0.00
0.01
0.01
0.01
0.00
0.00
0.00
0.00
0.00
0.01
0.01
0.00
0.00
0.01
0.00
0.01
0.00
0.00
0.00
0.00
0.00
0.00
0.01
0.01
0.12
0.01
0.28
0.16
0.09
0.00
0.04
0.02
0.01
0.00
0.01
0.03
0.01
0.01
0.08
0.12
0.62
0.56
0.58
0.61
0.65
0.55
0.45
0.07
0.06
0.07
0.03
0.03
0.03
0.02
0.01
0.01
0.01
0.01
0.03
0.01
0.02
0.02
0.03
0.03
0.07
0.07
0.08
0.12
0.15
0.16
0.20
0.23
0.25
0.30
0.28
0.32
0.28
0.28
0.25
0.23
0.14
0.12
0.04
0.03
0.04
0.01
0.00
0.00
0.01
0.01
0.00
0.01
0.00
0.01
0.01
0.01
0.00
0.00
0.01
0.01
0.01
0.01
0.00
0.01
0.00
0.01
0.01
0.00
0.00
0.00
0.01
0.00
0.00
0.01
0.01
0.01
0.01
0.01
0.02
0.01
0.02
0.02
0.02
0.01
0.02
0.01
0.02
0.03
0.01
0.01
0.01
0.00
0.01
0.04
0.01
0.25
0.06
0.00
0.01
0.06
0.06
0.04
0.03
0.04
0.04
0.04
0.06
0.12
0.06
0.60
0.47
0.63
0.63
0.73
0.58
0.53
0.07
0.08
0.07
0.06
0.04
0.03
0.02
0.02
0.01
0.01
0.01
0.02
0.01
0.00
0.00
0.01
0.00
0.00
0.00
0.00
0.01
0.01
0.00
0.01
0.03
0.04
0.12
0.12
0.15
0.23
0.30
0.30
0.25
0.20
0.12
0.12
0.04
0.04
0.02
0.01
0.01
0.01
0.00
0.01
0.00
0.00
0.00
0.00
0.00
0.00
0.00
0.00
0.00
0.01
0.00
0.00
0.00
0.00
0.00
0.00
0.00
0.00
0.01
0.00
0.01
0.01
0.01
0.00
0.01
0.00
0.00
0.00
0.01
0.01
0.01
0.01
0.01
0.01
0.00
0.00
0.00
0.01
0.01
0.00
0.01
0.01
0.00
0.00
0.09
0.01
0.20
0.04
0.00
0.01
0.07
0.08
0.04
0.04
0.03
0.04
0.04
0.07
0.12
0.22
0.71
0.55
0.62
0.80
0.80
0.58
0.43
0.06
0.07
0.04
0.03
0.02
0.00
0.01
0.00
0.00
0.01
0.01
0.01
0.00
0.01
0.01
0.01
0.01
0.01
0.01
0.00
0.02
0.02
0.03
0.06
0.12
0.12
0.12
0.14
0.20
0.30
0.30
0.28
0.23
0.14
0.12
0.07
0.03
0.01
0.01
0.00
0.00
0.00
0.01
0.01
0.01
0.01
0.01
0.04
0.04
0.01
0.01
0.00
0.00
0.00
0.00
0.00
0.00
0.00
0.00
0.01
0.01
0.00
0.02
0.01
0.01
0.02
0.03
0.03
0.03
0.03
0.02
0.02
0.02
0.03
0.02
0.02
0.02
0.00
0.01
0.01
0.00
0.00
0.00
0.00
0.00
0.00
0.06
0.06
0.09
0.15
0.12
0.09
0.01
0.03
0.04
0.03
0.02
0.01
0.00
0.01
0.01
0.00
0.01
0.38
0.92
0.55
0.62
0.63
0.62
0.56
0.03
0.06
0.02
0.01
0.01
0.00
0.00
0.00
0.00
0.00
0.00
0.00
0.00
0.00
0.00
0.00
0.01
0.01
0.01
0.01
0.03
0.03
0.08
0.12
0.15
0.20
0.25
0.30
0.32
0.32
0.32
0.30
0.28
0.20
0.15
0.06
0.03
0.01
0.01
0.00
0.00
0.00
0.00
0.00
0.00
0.04
0.06
0.04
0.06
0.09
0.06
0.09
0.06
0.12
0.09
0.04
0.06
0.09
0.06
0.06
0.09
0.06
0.09
0.09
0.06
0.04
0.06
0.06
0.06
0.09
0.06
0.04
0.01
0.06
0.09
0.06
0.06
0.04
0.04
0.09
0.04
0.04
0.00
0.06
0.12
0.12
0.12
0.28
0.15
0.15
0.04
0.00
0.02
0.00
0.01
0.01
0.00
0.02
0.02
0.04
0.04
0.25
0.81
0.54
0.60
0.61
0.61
0.55
0.12
0.12
0.03
0.03
0.02
0.02
0.01
0.01
0.01
0.00
0.00
0.01
0.01
0.00
0.00
0.01
0.01
0.00
0.03
0.02
0.03
0.03
0.04
0.08
0.12
0.12
0.15
0.12
0.15
0.16
0.23
0.16
0.15
0.12
0.12
0.04
0.03
0.01
0.00
0.01
0.01
0.00
0.00
0.00
0.01
0.00
0.00
0.00
0.00
0.00
0.01
0.01
0.01
0.00
0.00
0.00
0.01
0.00
0.01
0.00
0.01
0.00
0.00
0.00
0.00
0.01
0.00
0.01
0.00
0.01
0.00
0.01
0.01
0.00
0.01
0.00
0.01
0.01
0.01
0.01
0.00
0.01
0.00
0.00
0.00
0.22
0.01
0.00
0.00
0.06
0.07
0.04
0.04
0.06
0.07
0.06
0.06
0.08
0.01
0.25
0.85
0.57
0.70
0.67
0.70
0.59
0.14
0.15
0.07
0.06
0.03
0.03
0.03
0.00
0.02
0.00
0.00
0.01
0.00
0.00
0.00
0.00
0.00
0.00
0.00
0.00
0.00
0.00
0.01
0.00
0.02
0.04
0.07
0.12
0.12
0.16
0.23
0.25
0.30
0.20
0.15
0.08
0.04
0.03
0.01
0.01
0.01
0.00
0.00
0.00
0.00
0.00
0.00
0.00
0.00
0.01
0.00
0.00
0.01
0.01
0.00
0.01
0.00
0.00
0.00
0.00
0.00
0.00
0.00
0.00
0.00
0.01
0.00
0.00
0.01
0.01
0.00
0.00
0.01
0.00
0.01
0.01
0.00
0.00
0.01
0.01
0.01
0.00
0.00
0.01
0.02
0.01
0.00
0.01
0.00
0.01
0.06
0.00
0.00
0.02
0.12
0.14
0.08
0.08
0.07
0.04
0.04
0.04
0.06
0.06
0.43
0.90
0.58
0.75
0.64
0.60
0.55
0.04
0.07
0.03
0.03
0.02
0.00
0.00
0.01
0.00
0.00
0.00
0.00
0.00
0.00
0.00
0.00
0.00
0.00
0.01
0.03
0.03
0.03
0.06
0.08
0.14
0.16
0.20
0.28
0.25
0.35
0.38
0.38
0.32
0.28
0.16
0.15
0.06
0.04
0.03
0.02
0.01
0.00
0.00
0.00
0.01
0.00
0.00
0.00
0.00
0.00
0.00
0.00
0.00
0.00
0.00
0.00
0.00
0.00
0.00
0.00
0.00
0.00
0.00
0.00
0.00
0.00
0.00
0.00
0.00
0.00
0.01
0.00
0.01
0.00
0.01
0.00
0.00
0.00
0.00
0.00
0.01
0.01
0.00
0.00
0.00
0.01
0.00
0.00
0.00
0.01
0.15
0.01
0.00
0.01
0.08
0.12
0.07
0.04
0.06
0.07
0.07
0.04
0.06
0.00
0.28
0.89
0.54
0.62
0.63
0.63
0.55
0.12
0.12
0.06
0.04
0.03
0.03
0.02
0.02
0.00
0.01
0.01
0.00
0.00
0.00
0.01
0.02
0.03
0.02
0.06
0.08
0.12
0.14
0.16
0.23
0.28
0.30
0.32
0.41
0.35
0.35
0.41
0.38
0.38
0.25
0.20
0.12
0.08
0.07
0.03
0.03
0.03
0.01
0.00
0.02
0.00
0.00
0.01
0.01
0.00
0.00
0.00
0.00
0.00
0.00
0.00
0.00
0.00
0.00
0.00
0.00
0.00
0.00
0.00
0.01
0.00
0.00
0.00
0.00
0.00
0.00
0.00
0.00
0.00
0.00
0.00
0.00
0.01
0.00
0.00
0.01
0.01
0.00
0.00
0.00
0.00
0.00
0.04
0.01
0.22
0.04
0.00
0.01
0.12
0.07
0.07
0.03
0.03
0.07
0.04
0.04
0.15
0.01
0.60
0.49
0.60
0.60
0.65
0.58
0.48
0.07
0.07
0.06
0.03
0.03
0.01
0.01
0.01
0.00
0.01
0.01
0.00
0.00
0.01
0.01
0.03
0.03
0.03
0.03
0.06
0.06
0.08
0.07
0.08
0.12
0.12
0.12
0.12
0.14
0.14
0.16
0.15
0.15
0.07
0.04
0.03
0.01
0.01
0.00
0.00
0.00
0.00
0.00
0.00
0.00
0.00
0.00
0.00
0.00
0.00
0.00
0.00
0.00
0.00
0.00
0.00
0.00
0.00
0.00
0.00
0.00
0.00
0.01
0.00
0.01
0.01
0.01
0.00
0.00
0.01
0.01
0.01
0.01
0.00
0.01
0.01
0.01
0.00
0.01
0.00
0.00
0.04
0.01
0.16
0.01
0.00
0.01
0.06
0.12
0.03
0.04
0.04
0.04
0.03
0.03
0.06
0.12
0.47
0.87
0.60
0.82
0.67
0.61
0.53
0.03
0.06
0.03
0.01
0.00
0.01
0.00
0.00
0.00
0.00
0.00
0.00
0.01
0.00
0.00
0.01
0.01
0.00
0.00
0.00
0.00
0.00
0.00
0.02
0.03
0.06
0.07
0.07
0.12
0.14
0.20
0.20
0.12
0.12
0.04
0.03
0.00
0.00
0.00
0.01
0.01
0.01
0.04
0.06
0.06
0.09
0.09
0.09
0.12
0.12
0.12
0.12
0.12
0.15
0.15
0.15
0.15
0.12
0.15
0.12
0.12
0.06
0.06
0.04
0.04
0.04
0.04
0.00
0.00
0.00
0.00
0.00
0.00
0.00
0.00
0.00
0.00
0.00
0.00
0.00
0.00
0.00
0.01
0.00
0.00
0.01
0.06
0.09
0.09
0.00
0.26
0.09
0.09
0.00
0.06
0.03
0.02
0.01
0.01
0.00
0.00
0.01
0.04
0.28
0.67
0.74
0.58
0.70
0.68
0.56
0.38
0.03
0.04
0.03
0.01
0.01
0.01
0.01
0.01
0.01
0.01
0.01
0.00
0.00
0.00
0.01
0.01
0.01
0.00
0.01
0.02
0.04
0.04
0.08
0.12
0.14
0.16
0.23
0.25
0.25
0.28
0.35
0.30
0.28
0.16
0.12
0.08
0.03
0.03
0.01
0.01
0.00
0.00
0.00
0.00
0.00
0.00
0.01
0.06
0.06
0.09
0.09
0.09
0.12
0.12
0.12
0.15
0.12
0.09
0.15
0.09
0.09
0.09
0.06
0.06
0.12
0.06
0.06
0.06
0.06
0.04
0.01
0.04
0.04
0.04
0.00
0.01
0.00
0.01
0.04
0.01
0.00
0.00
0.01
0.04
0.01
0.01
0.04
0.06
0.06
0.12
0.16
0.06
0.30
0.09
0.12
0.01
0.07
0.03
0.01
0.01
0.01
0.01
0.01
0.00
0.04
0.16
0.68
0.42
0.59
0.58
0.63
0.54
0.20
0.03
0.02
0.01
0.00
0.00
0.00
0.00
0.00
0.00
0.00
0.00
0.00
0.00
0.00
0.00
0.01
0.00
0.00
0.02
0.02
0.02
0.03
0.06
0.06
0.07
0.07
0.08
0.12
0.12
0.12
0.14
0.12
0.12
0.07
0.03
0.01
0.00
0.00
0.00
0.01
0.04
0.04
0.01
0.06
0.04
0.06
0.09
0.04
0.06
0.06
0.04
0.04
0.06
0.06
0.04
0.06
0.12
0.06
0.09
0.04
0.06
0.04
0.06
0.01
0.06
0.04
0.01
0.04
0.04
0.01
0.01
0.04
0.01
0.01
0.00
0.00
0.00
0.00
0.00
0.00
0.00
0.04
0.06
0.12
0.16
0.04
0.25
0.01
0.04
0.01
0.08
0.03
0.03
0.03
0.01
0.03
0.02
0.03
0.00
0.26
0.83
0.25
0.63
0.68
0.70
0.56
0.12
0.03
0.02
0.01
0.00
0.00
0.00
0.00
0.00
0.01
0.01
0.01
0.01
0.01
0.06
0.04
0.06
0.01
0.06
0.04
0.04
0.06
0.04
0.00
0.00
0.01
0.01
0.03
0.06
0.08
0.12
0.15
0.14
0.12
0.08
0.03
0.01
0.01
0.01
0.00
0.06
0.06
0.04
0.09
0.06
0.09
0.09
0.06
0.09
0.09
0.06
0.09
0.09
0.09
0.09
0.06
0.09
0.09
0.09
0.09
0.06
0.09
0.09
0.12
0.12
0.09
0.06
0.09
0.06
0.06
0.04
0.04
0.06
0.06
0.06
0.06
0.06
0.00
0.04
0.04
0.01
0.04
0.06
0.12
0.16
0.04
0.30
0.06
0.06
0.00
0.06
0.02
0.02
0.01
0.01
0.01
0.00
0.00
0.02
0.38
0.65
0.84
0.59
0.77
0.65
0.59
0.48
0.01
0.03
0.01
0.01
0.01
0.00
0.00
0.00
0.00
0.00
0.00
0.00
0.00
0.00
0.01
0.00
0.00
0.01
0.00
0.01
0.00
0.02
0.04
0.06
0.12
0.12
0.14
0.14
0.20
0.25
0.30
0.30
0.20
0.14
0.08
0.06
0.02
0.00
0.01
0.00
0.01
0.00
0.00
0.00
0.00
0.00
0.00
0.00
0.01
0.01
0.01
0.01
0.04
0.04
0.09
0.06
0.09
0.06
0.09
0.12
0.12
0.12
0.09
0.06
0.06
0.06
0.01
0.04
0.04
0.01
0.01
0.00
0.00
0.00
0.00
0.00
0.00
0.01
0.00
0.01
0.01
0.01
0.01
0.04
0.06
0.12
0.20
0.20
0.25
0.09
0.04
0.01
0.03
0.00
0.01
0.01
0.01
0.01
0.01
0.01
0.00
0.38
0.90
0.41
0.63
0.63
0.67
0.56
0.03
0.07
0.03
0.02
0.00
0.01
0.01
0.01
0.00
0.00
0.00
0.01
0.00
0.00
0.00
0.00
0.01
0.00
0.01
0.03
0.04
0.06
0.12
0.14
0.23
0.23
0.28
0.28
0.32
0.32
0.30
0.30
0.25
0.14
0.12
0.07
0.02
0.00
0.00
0.00
0.00
0.04
0.01
0.01
0.04
0.04
0.04
0.09
0.06
0.09
0.12
0.09
0.15
0.15
0.12
0.15
0.09
0.09
0.12
0.09
0.09
0.04
0.04
0.06
0.04
0.00
0.00
0.00
0.00
0.00
0.00
0.00
0.00
0.00
0.01
0.01
0.00
0.01
0.01
0.00
0.00
0.00
0.00
0.00
0.00
0.01
0.01
0.01
0.12
0.00
0.00
0.00
0.12
0.08
0.06
0.04
0.03
0.04
0.03
0.07
0.14
0.04
0.49
0.74
0.58
0.61
0.63
0.59
0.56
0.04
0.12
0.04
0.03
0.01
0.00
0.01
0.00
0.00
0.00
0.00
0.01
0.00
0.00
0.01
0.01
0.02
0.03
0.03
0.04
0.08
0.08
0.08
0.15
0.12
0.14
0.14
0.14
0.16
0.16
0.14
0.14
0.12
0.12
0.04
0.02
0.01
0.00
0.00
0.01
0.04
0.06
0.06
0.09
0.04
0.06
0.09
0.09
0.06
0.04
0.06
0.04
0.09
0.06
0.06
0.04
0.06
0.06
0.06
0.04
0.06
0.01
0.04
0.04
0.00
0.04
0.00
0.00
0.00
0.00
0.00
0.00
0.00
0.00
0.01
0.01
0.00
0.00
0.00
0.00
0.00
0.06
0.06
0.00
0.28
0.04
0.04
0.01
0.06
0.04
0.03
0.02
0.01
0.02
0.01
0.02
0.06
0.22
0.56
0.79
0.62
0.73
0.70
0.58
0.54
0.02
0.03
0.02
0.00
0.00
0.00
0.00
0.00
0.00
0.00
0.00
0.01
0.06
0.06
0.04
0.04
0.06
0.09
0.06
0.06
0.04
0.04
0.01
0.00
0.00
0.01
0.02
0.03
0.04
0.12
0.12
0.14
0.12
0.07
0.03
0.02
0.01
0.01
0.01
0.06
0.04
0.06
0.04
0.06
0.06
0.06
0.04
0.04
0.04
0.01
0.04
0.01
0.04
0.01
0.04
0.04
0.01
0.01
0.01
0.04
0.04
0.04
0.04
0.06
0.01
0.06
0.04
0.06
0.01
0.01
0.04
0.06
0.04
0.04
0.00
0.00
0.01
0.00
0.00
0.00
0.00
0.00
0.00
0.01
0.04
0.06
0.00
0.25
0.04
0.00
0.01
0.08
0.06
0.03
0.03
0.03
0.03
0.02
0.01
0.06
0.26
0.60
0.81
0.60
0.80
0.65
0.59
0.50
0.02
0.04
0.03
0.01
0.02
0.00
0.00
0.01
0.01
0.00
0.01
0.00
0.00
0.00
0.00
0.01
0.00
0.01
0.00
0.00
0.02
0.02
0.04
0.06
0.08
0.12
0.14
0.15
0.15
0.20
0.23
0.23
0.14
0.12
0.04
0.02
0.01
0.01
0.00
0.01
0.01
0.01
0.01
0.01
0.01
0.01
0.06
0.04
0.06
0.09
0.09
0.09
0.09
0.09
0.12
0.09
0.12
0.09
0.01
0.06
0.06
0.09
0.04
0.04
0.04
0.01
0.04
0.01
0.01
0.01
0.06
0.01
0.01
0.01
0.01
0.06
0.04
0.04
0.00
0.01
0.00
0.04
0.00
0.00
0.00
0.00
0.01
0.04
0.09
0.06
0.04
0.25
0.09
0.09
0.00
0.04
0.06
0.03
0.02
0.01
0.00
0.01
0.00
0.03
0.12
0.48
0.92
0.55
0.63
0.62
0.58
0.53
0.03
0.04
0.03
0.02
0.01
0.01
0.00
0.01
0.01
0.01
0.00
0.00
0.00
0.00
0.00
0.01
0.01
0.02
0.01
0.03
0.04
0.07
0.12
0.12
0.15
0.14
0.23
0.16
0.16
0.20
0.20
0.20
0.16
0.12
0.07
0.03
0.01
0.01
0.00
0.04
0.01
0.01
0.04
0.01
0.01
0.01
0.01
0.04
0.01
0.04
0.04
0.01
0.06
0.06
0.06
0.06
0.09
0.06
0.06
0.01
0.04
0.01
0.00
0.00
0.00
0.00
0.00
0.00
0.00
0.00
0.00
0.00
0.01
0.00
0.00
0.00
0.01
0.00
0.00
0.00
0.00
0.00
0.00
0.00
0.00
0.00
0.00
0.00
0.01
0.04
0.04
0.09
0.12
0.12
0.25
0.12
0.06
0.01
0.07
0.01
0.01
0.02
0.02
0.03
0.03
0.03
0.03
0.09
0.74
0.15
0.61
0.63
0.64
0.58
0.41
0.15
0.07
0.08
0.03
0.04
0.02
0.03
0.02
0.02
0.02
0.02
0.01
0.01
0.01
0.03
0.02
0.03
0.03
0.03
0.04
0.04
0.06
0.07
0.08
0.12
0.12
0.14
0.14
0.15
0.20
0.20
0.23
0.20
0.15
0.12
0.06
0.03
0.02
0.01
0.00
0.00
0.01
0.00
0.00
0.00
0.01
0.00
0.00
0.00
0.00
0.00
0.01
0.00
0.01
0.00
0.00
0.00
0.00
0.01
0.01
0.01
0.01
0.00
0.00
0.01
0.00
0.00
0.00
0.00
0.01
0.00
0.00
0.00
0.00
0.01
0.01
0.00
0.01
0.00
0.01
0.02
0.02
0.01
0.01
0.02
0.01
0.01
0.00
0.04
0.01
0.12
0.00
0.01
0.03
0.12
0.06
0.06
0.03
0.02
0.03
0.02
0.03
0.01
0.32
0.87
0.12
0.63
0.77
0.81
0.55
0.15
0.07
0.06
0.03
0.01
0.00
0.00
0.00
0.00
0.01
0.00
0.00
0.01
0.00
0.00
0.00
0.00
0.00
0.00
0.00
0.00
0.00
0.01
0.03
0.04
0.04
0.04
0.12
0.12
0.16
0.20
0.20
0.20
0.20
0.15
0.07
0.03
0.00
0.00
0.00
0.00
0.00
0.00
0.00
0.00
0.00
0.00
0.00
0.00
0.00
0.00
0.01
0.04
0.04
0.06
0.01
0.04
0.04
0.06
0.01
0.00
0.00
0.04
0.01
0.01
0.04
0.00
0.00
0.01
0.01
0.01
0.00
0.00
0.00
0.00
0.00
0.00
0.00
0.00
0.00
0.00
0.00
0.00
0.00
0.00
0.00
0.00
0.00
0.00
0.00
0.01
0.00
0.15
0.06
0.00
0.01
0.08
0.12
0.06
0.04
0.03
0.02
0.03
0.01
0.02
0.01
0.38
0.92
0.55
0.62
0.63
0.62
0.56
0.03
0.07
0.03
0.02
0.00
0.01
0.00
0.00
0.00
0.01
0.00
0.00
0.00
0.01
0.01
0.00
0.00
0.00
0.00
0.03
0.03
0.04
0.07
0.12
0.14
0.16
0.23
0.25
0.25
0.32
0.32
0.32
0.28
0.20
0.14
0.12
0.06
0.03
0.01
0.00
0.01
0.01
0.01
0.01
0.00
0.01
0.00
0.00
0.00
0.00
0.00
0.00
0.01
0.01
0.00
0.01
0.00
0.04
0.04
0.06
0.01
0.04
0.01
0.06
0.04
0.00
0.00
0.00
0.00
0.01
0.00
0.01
0.00
0.00
0.00
0.00
0.00
0.00
0.00
0.00
0.00
0.00
0.00
0.01
0.00
0.00
0.00
0.00
0.09
0.01
0.22
0.04
0.00
0.03
0.08
0.03
0.02
0.02
0.00
0.02
0.02
0.02
0.01
0.28
0.80
0.16
0.59
0.61
0.65
0.56
0.15
0.06
0.03
0.03
0.03
0.02
0.03
0.02
0.03
0.02
0.03
0.02
0.02
0.02
0.03
0.03
0.03
0.06
0.07
0.12
0.12
0.16
0.23
0.25
0.28
0.30
0.35
0.35
0.35
0.35
0.35
0.32
0.30
0.28
0.16
0.08
0.06
0.02
0.01
0.00
0.00
0.00
0.00
0.00
0.00
0.01
0.00
0.00
0.00
0.01
0.00
0.00
0.00
0.01
0.00
0.00
0.00
0.00
0.00
0.00
0.00
0.00
0.00
0.01
0.00
0.00
0.00
0.00
0.00
0.01
0.01
0.00
0.00
0.01
0.01
0.01
0.03
0.02
0.01
0.02
0.02
0.00
0.00
0.00
0.01
0.15
0.01
0.00
0.01
0.12
0.12
0.07
0.08
0.08
0.08
0.08
0.07
0.25
0.00
0.54
0.44
0.60
0.62
0.68
0.59
0.50
0.15
0.12
0.15
0.12
0.06
0.04
0.04
0.03
0.03
0.03
0.03
0.03
0.04
0.06
0.04
0.03
0.04
0.06
0.08
0.07
0.12
0.12
0.14
0.14
0.23
0.25
0.25
0.28
0.30
0.30
0.32
0.23
0.20
0.14
0.12
0.07
0.04
0.02
0.01
0.01
0.01
0.01
0.00
0.01
0.00
0.01
0.00
0.01
0.01
0.01
0.00
0.01
0.00
0.02
0.01
0.00
0.00
0.00
0.00
0.01
0.00
0.00
0.00
0.01
0.00
0.00
0.01
0.00
0.00
0.00
0.01
0.00
0.01
0.00
0.00
0.00
0.01
0.00
0.00
0.00
0.01
0.22
0.06
0.01
0.00
0.03
0.04
0.03
0.03
0.01
0.02
0.01
0.02
0.03
0.25
0.51
0.87
0.58
0.82
0.67
0.62
0.55
0.03
0.04
0.03
0.02
0.01
0.00
0.00
0.00
0.00
0.00
0.00
0.00
0.01
0.01
0.00
0.00
0.00
0.00
0.00
0.00
0.00
0.00
0.03
0.03
0.07
0.08
0.12
0.15
0.14
0.23
0.28
0.25
0.16
0.14
0.08
0.06
0.02
0.01
0.01
0.00
0.00
0.00
0.00
0.00
0.00
0.00
0.00
0.00
0.00
0.01
0.01
0.04
0.06
0.09
0.06
0.06
0.01
0.04
0.06
0.06
0.04
0.01
0.01
0.00
0.01
0.00
0.00
0.00
0.00
0.00
0.00
0.00
0.00
0.00
0.00
0.00
0.01
0.01
0.00
0.04
0.04
0.06
0.09
0.12
0.09
0.34
0.15
0.12
0.01
0.03
0.04
0.03
0.03
0.03
0.03
0.03
0.03
0.03
0.12
0.42
0.92
0.58
0.72
0.63
0.63
0.56
0.04
0.08
0.04
0.02
0.01
0.00
0.01
0.00
0.00
0.00
0.00
0.00
0.01
0.00
0.01
0.00
0.00
0.00
0.00
0.01
0.00
0.03
0.03
0.07
0.12
0.12
0.14
0.14
0.16
0.20
0.25
0.23
0.14
0.12
0.06
0.02
0.01
0.00
0.00
0.00
0.04
0.01
0.00
0.00
0.04
0.01
0.06
0.01
0.01
0.06
0.06
0.06
0.06
0.06
0.06
0.09
0.09
0.09
0.06
0.06
0.06
0.09
0.06
0.04
0.04
0.04
0.01
0.01
0.00
0.00
0.00
0.00
0.01
0.00
0.00
0.00
0.00
0.01
0.00
0.00
0.00
0.04
0.12
0.04
0.22
0.28
0.25
0.09
0.06
0.00
0.02
0.03
0.00
0.00
0.01
0.00
0.01
0.02
0.12
0.42
0.90
0.53
0.60
0.61
0.60
0.56
0.02
0.08
0.02
0.03
0.01
0.01
0.01
0.01
0.01
0.00
0.01
0.01
0.02
0.02
0.02
0.03
0.03
0.04
0.06
0.06
0.12
0.15
0.16
0.23
0.23
0.25
0.32
0.32
0.30
0.30
0.25
0.25
0.16
0.14
0.08
0.04
0.01
0.00
0.01
0.00
0.00
0.01
0.01
0.04
0.01
0.01
0.01
0.01
0.00
0.01
0.04
0.06
0.04
0.04
0.01
0.01
0.06
0.09
0.04
0.04
0.04
0.01
0.06
0.06
0.06
0.01
0.01
0.04
0.04
0.04
0.00
0.00
0.00
0.00
0.00
0.00
0.00
0.01
0.12
0.09
0.06
0.32
0.22
0.09
0.12
0.01
0.03
0.02
0.02
0.02
0.02
0.02
0.02
0.06
0.06
0.32
0.85
0.56
0.62
0.63
0.61
0.54
0.06
0.08
0.03
0.03
0.02
0.01
0.01
0.01
0.00
0.01
0.00
0.01
0.00
0.01
0.01
0.00
0.00
0.00
0.02
0.02
0.02
0.03
0.03
0.06
0.07
0.12
0.12
0.15
0.14
0.20
0.20
0.16
0.14
0.12
0.07
0.03
0.02
0.01
0.01
0.00
0.00
0.01
0.00
0.01
0.01
0.01
0.00
0.04
0.01
0.00
0.00
0.00
0.00
0.00
0.00
0.00
0.01
0.00
0.00
0.00
0.01
0.00
0.00
0.00
0.00
0.00
0.00
0.00
0.00
0.00
0.00
0.00
0.00
0.00
0.00
0.01
0.00
0.00
0.00
0.04
0.12
0.09
0.15
0.28
0.26
0.12
0.01
0.03
0.03
0.02
0.03
0.02
0.02
0.03
0.02
0.01
0.00
0.38
0.92
0.45
0.70
0.77
0.82
0.55
0.08
0.07
0.04
0.03
0.02
0.02
0.01
0.01
0.01
0.01
0.00
0.00
0.00
0.00
0.00
0.00
0.00
0.00
0.00
0.01
0.01
0.00
0.02
0.03
0.07
0.12
0.12
0.14
0.20
0.23
0.28
0.28
0.28
0.16
0.16
0.07
0.03
0.03
0.01
0.00
0.00
0.00
0.00
0.00
0.00
0.00
0.01
0.01
0.04
0.04
0.01
0.06
0.09
0.09
0.09
0.09
0.06
0.12
0.06
0.06
0.09
0.04
0.09
0.06
0.06
0.04
0.06
0.06
0.04
0.04
0.01
0.01
0.01
0.01
0.01
0.04
0.00
0.01
0.00
0.01
0.01
0.00
0.01
0.12
0.09
0.25
0.16
0.43
0.15
0.16
0.01
0.03
0.00
0.01
0.01
0.00
0.01
0.01
0.00
0.03
0.30
0.56
0.87
0.59
0.77
0.63
0.59
0.48
0.03
0.07
0.04
0.03
0.02
0.00
0.01
0.01
0.00
0.01
0.01
0.00
0.01
0.00
0.00
0.00
0.02
0.01
0.03
0.03
0.04
0.07
0.08
0.12
0.14
0.20
0.20
0.25
0.28
0.30
0.28
0.25
0.16
0.15
0.07
0.03
0.02
0.01
0.00
0.00
0.00
0.00
0.00
0.00
0.00
0.00
0.00
0.00
0.00
0.00
0.01
0.00
0.04
0.00
0.01
0.04
0.00
0.04
0.01
0.04
0.01
0.00
0.00
0.04
0.04
0.04
0.00
0.00
0.01
0.01
0.00
0.00
0.00
0.01
0.00
0.01
0.01
0.01
0.00
0.04
0.01
0.01
0.01
0.01
0.01
0.04
0.01
0.12
0.12
0.20
0.12
0.43
0.22
0.20
0.04
0.03
0.02
0.01
0.00
0.01
0.00
0.00
0.01
0.06
0.15
0.32
0.88
0.55
0.61
0.61
0.60
0.55
0.03
0.07
0.03
0.02
0.02
0.01
0.01
0.00
0.00
0.01
0.00
0.01
0.01
0.01
0.01
0.02
0.01
0.01
0.03
0.04
0.07
0.12
0.15
0.12
0.16
0.20
0.28
0.23
0.20
0.23
0.23
0.23
0.14
0.12
0.08
0.04
0.01
0.00
0.00
0.01
0.04
0.01
0.00
0.04
0.01
0.01
0.01
0.01
0.00
0.01
0.04
0.04
0.04
0.01
0.01
0.04
0.06
0.01
0.01
0.00
0.01
0.01
0.00
0.00
0.00
0.01
0.00
0.00
0.00
0.00
0.00
0.00
0.00
0.00
0.00
0.00
0.00
0.01
0.00
0.00
0.00
0.00
0.09
0.20
0.12
0.20
0.28
0.32
0.20
0.12
0.01
0.01
0.01
0.01
0.00
0.02
0.02
0.03
0.03
0.00
0.28
0.83
0.41
0.63
0.62
0.66
0.58
0.23
0.15
0.07
0.06
0.04
0.03
0.03
0.02
0.00
0.01
0.00
0.01
0.01
0.00
0.00
0.00
0.00
0.00
0.00
0.00
0.01
0.00
0.00
0.01
0.00
0.01
0.01
0.03
0.06
0.07
0.12
0.15
0.12
0.12
0.06
0.03
0.01
0.01
0.00
0.00
0.00
0.01
0.00
0.00
0.00
0.00
0.00
0.01
0.00
0.00
0.00
0.01
0.01
0.01
0.04
0.01
0.01
0.01
0.01
0.01
0.00
0.00
0.00
0.00
0.00
0.00
0.00
0.00
0.01
0.00
0.00
0.01
0.01
0.01
0.01
0.01
0.00
0.00
0.00
0.00
0.00
0.00
0.01
0.01
0.00
0.00
0.00
0.06
0.04
0.16
0.06
0.34
0.06
0.01
0.00
0.07
0.06
0.06
0.03
0.03
0.03
0.04
0.04
0.12
0.16
0.56
0.79
0.61
0.85
0.70
0.60
0.54
0.07
0.12
0.06
0.06
0.03
0.01
0.01
0.01
0.02
0.00
0.01
0.00
0.01
0.00
0.01
0.01
0.00
0.01
0.02
0.02
0.03
0.03
0.04
0.07
0.15
0.14
0.14
0.14
0.16
0.25
0.28
0.28
0.20
0.14
0.08
0.04
0.01
0.00
0.00
0.00
0.00
0.00
0.00
0.00
0.00
0.00
0.00
0.00
0.00
0.00
0.01
0.00
0.04
0.04
0.06
0.01
0.09
0.04
0.12
0.09
0.12
0.06
0.04
0.09
0.06
0.06
0.06
0.04
0.01
0.04
0.06
0.04
0.04
0.01
0.00
0.00
0.00
0.00
0.01
0.00
0.01
0.01
0.00
0.00
0.00
0.15
0.09
0.16
0.09
0.34
0.15
0.06
0.00
0.06
0.03
0.06
0.03
0.02
0.03
0.03
0.03
0.04
0.15
0.42
0.92
0.57
0.70
0.62
0.63
0.56
0.06
0.12
0.06
0.03
0.03
0.03
0.03
0.02
0.01
0.02
0.02
0.02
0.02
0.01
0.01
0.03
0.02
0.03
0.04
0.04
0.06
0.07
0.12
0.14
0.20
0.20
0.28
0.30
0.28
0.30
0.30
0.30
0.23
0.16
0.12
0.06
0.02
0.01
0.00
0.01
0.00
0.00
0.00
0.00
0.00
0.00
0.00
0.00
0.00
0.00
0.00
0.00
0.01
0.01
0.00
0.00
0.01
0.00
0.01
0.00
0.00
0.00
0.01
0.00
0.00
0.00
0.01
0.00
0.00
0.00
0.00
0.00
0.00
0.01
0.00
0.00
0.01
0.00
0.00
0.00
0.01
0.00
0.09
0.15
0.12
0.16
0.38
0.30
0.09
0.01
0.02
0.03
0.02
0.04
0.04
0.03
0.06
0.06
0.07
0.00
0.20
0.83
0.55
0.62
0.62
0.63
0.56
0.12
0.16
0.07
0.08
0.04
0.03
0.03
0.04
0.04
0.03
0.03
0.03
0.04
0.04
0.04
0.03
0.03
0.06
0.07
0.12
0.08
0.12
0.12
0.16
0.16
0.20
0.16
0.20
0.16
0.28
0.23
0.23
0.14
0.12
0.08
0.07
0.03
0.01
0.01
0.01
0.01
0.01
0.00
0.00
0.01
0.00
0.01
0.00
0.00
0.00
0.01
0.01
0.00
0.00
0.00
0.00
0.00
0.00
0.00
0.00
0.01
0.01
0.00
0.00
0.01
0.00
0.00
0.02
0.01
0.01
0.01
0.01
0.03
0.02
0.02
0.00
0.00
0.01
0.00
0.12
0.12
0.30
0.16
0.09
0.00
0.03
0.03
0.07
0.06
0.04
0.06
0.04
0.06
0.15
0.12
0.56
0.61
0.63
0.83
0.80
0.60
0.53
0.12
0.15
0.12
0.12
0.07
0.06
0.04
0.04
0.03
0.03
0.02
0.02
0.02
0.01
0.01
0.01
0.00
0.01
0.01
0.00
0.00
0.00
0.02
0.03
0.06
0.08
0.12
0.12
0.14
0.20
0.28
0.23
0.16
0.12
0.07
0.03
0.01
0.00
0.01
0.00
0.00
0.00
0.00
0.00
0.00
0.00
0.00
0.01
0.01
0.01
0.01
0.00
0.01
0.00
0.01
0.01
0.01
0.00
0.00
0.00
0.00
0.00
0.00
0.00
0.00
0.00
0.00
0.00
0.00
0.01
0.00
0.00
0.00
0.01
0.00
0.00
0.00
0.00
0.00
0.00
0.00
0.01
0.09
0.12
0.12
0.22
0.39
0.28
0.15
0.09
0.01
0.01
0.00
0.01
0.01
0.00
0.01
0.00
0.01
0.22
0.44
0.93
0.57
0.67
0.63
0.62
0.56
0.03
0.07
0.04
0.03
0.03
0.01
0.01
0.01
0.01
0.00
0.00
0.01
0.00
0.00
0.00
0.00
0.01
0.01
0.02
0.03
0.04
0.04
0.07
0.12
0.15
0.16
0.23
0.23
0.28
0.28
0.30
0.35
0.28
0.16
0.12
0.06
0.03
0.00
0.01
0.00
0.00
0.00
0.00
0.00
0.00
0.00
0.00
0.00
0.04
0.01
0.04
0.04
0.04
0.06
0.09
0.06
0.06
0.09
0.06
0.09
0.09
0.06
0.06
0.06
0.09
0.09
0.09
0.06
0.01
0.01
0.01
0.01
0.01
0.00
0.00
0.00
0.00
0.01
0.00
0.00
0.00
0.00
0.00
0.00
0.00
0.00
0.06
0.09
0.16
0.15
0.39
0.25
0.15
0.01
0.03
0.02
0.03
0.00
0.01
0.01
0.01
0.03
0.06
0.16
0.55
0.81
0.59
0.63
0.63
0.54
0.35
0.03
0.03
0.03
0.00
0.00
0.01
0.01
0.01
0.00
0.00
0.00
0.00
0.01
0.00
0.01
0.00
0.02
0.04
0.03
0.07
0.08
0.12
0.14
0.16
0.14
0.16
0.23
0.23
0.23
0.23
0.20
0.14
0.15
0.07
0.03
0.02
0.00
0.00
0.01
0.01
0.01
0.00
0.00
0.00
0.00
0.00
0.01
0.01
0.00
0.00
0.00
0.01
0.00
0.00
0.00
0.00
0.00
0.00
0.00
0.00
0.00
0.00
0.00
0.00
0.00
0.01
0.00
0.01
0.00
0.00
0.00
0.01
0.00
0.00
0.00
0.00
0.00
0.01
0.00
0.01
0.01
0.01
0.06
0.06
0.16
0.09
0.38
0.25
0.12
0.04
0.02
0.02
0.03
0.01
0.02
0.03
0.03
0.04
0.15
0.06
0.54
0.67
0.62
0.62
0.70
0.58
0.53
0.04
0.08
0.04
0.03
0.02
0.01
0.00
0.00
0.00
0.01
0.01
0.01
0.00
0.01
0.01
0.01
0.00
0.00
0.00
0.00
0.02
0.02
0.02
0.04
0.03
0.06
0.07
0.12
0.14
0.16
0.23
0.23
0.20
0.16
0.12
0.06
0.03
0.00
0.00
0.01
0.00
0.00
0.00
0.00
0.00
0.00
0.00
0.00
0.00
0.00
0.01
0.00
0.00
0.01
0.00
0.00
0.01
0.01
0.04
0.00
0.00
0.00
0.00
0.00
0.00
0.00
0.00
0.00
0.00
0.00
0.00
0.01
0.01
0.00
0.00
0.01
0.00
0.01
0.01
0.00
0.01
0.01
0.01
0.09
0.20
0.12
0.34
0.16
0.12
0.00
0.03
0.03
0.03
0.03
0.03
0.03
0.04
0.04
0.12
0.20
0.43
0.85
0.60
0.85
0.71
0.63
0.55
0.12
0.15
0.08
0.07
0.06
0.03
0.03
0.03
0.03
0.01
0.02
0.01
0.01
0.01
0.00
0.01
0.01
0.00
0.00
0.01
0.01
0.00
0.02
0.03
0.06
0.07
0.08
0.12
0.12
0.16
0.16
0.20
0.14
0.15
0.08
0.03
0.01
0.01
0.00
0.00
0.00
0.00
0.00
0.00
0.00
0.00
0.01
0.01
0.04
0.04
0.06
0.04
0.06
0.12
0.09
0.15
0.09
0.12
0.12
0.09
0.12
0.09
0.06
0.06
0.06
0.12
0.06
0.06
0.06
0.09
0.06
0.06
0.04
0.09
0.06
0.06
0.06
0.06
0.01
0.04
0.06
0.09
0.04
0.12
0.20
0.16
0.22
0.42
0.28
0.20
0.09
0.02
0.02
0.02
0.01
0.01
0.01
0.01
0.01
0.03
0.15
0.43
0.92
0.56
0.70
0.63
0.61
0.54
0.03
0.12
0.07
0.06
0.03
0.03
0.03
0.03
0.03
0.03
0.03
0.03
0.03
0.04
0.03
0.03
0.03
0.03
0.04
0.07
0.08
0.08
0.15
0.14
0.23
0.23
0.25
0.28
0.30
0.30
0.30
0.28
0.20
0.15
0.08
0.03
0.02
0.01
0.00
0.00
0.00
0.00
0.00
0.00
0.01
0.00
0.00
0.00
0.00
0.01
0.04
0.06
0.04
0.04
0.06
0.04
0.04
0.09
0.06
0.04
0.04
0.04
0.04
0.04
0.01
0.04
0.04
0.00
0.00
0.01
0.04
0.01
0.00
0.00
0.00
0.00
0.00
0.00
0.01
0.04
0.09
0.15
0.42
0.25
0.26
0.12
0.00
0.00
0.04
0.03
0.00
0.04
0.03
0.04
0.20
0.00
0.32
0.81
0.58
0.62
0.63
0.58
0.54
0.08
0.15
0.08
0.08
0.04
0.03
0.04
0.04
0.03
0.03
0.02
0.03
0.03
0.03
0.03
0.03
0.03
0.03
0.06
0.06
0.07
0.08
0.14
0.12
0.16
0.20
0.14
0.20
0.20
0.28
0.20
0.16
0.12
0.08
0.06
0.03
0.01
0.00
0.00
0.00
0.00
0.00
0.01
0.01
0.00
0.00
0.01
0.01
0.01
0.01
0.00
0.01
0.00
0.00
0.01
0.00
0.00
0.00
0.01
0.01
0.01
0.00
0.00
0.01
0.01
0.00
0.00
0.00
0.00
0.00
0.00
0.00
0.00
0.00
0.00
0.12
0.09
0.20
0.32
0.38
0.32
0.26
0.09
0.00
0.01
0.01
0.01
0.00
0.00
0.03
0.03
0.01
0.25
0.79
0.20
0.62
0.63
0.70
0.58
0.20
0.12
0.04
0.03
0.03
0.02
0.01
0.00
0.00
0.00
0.01
0.01
0.01
0.00
0.00
0.00
0.00
0.00
0.00
0.00
0.00
0.00
0.00
0.01
0.01
0.02
0.04
0.06
0.08
0.12
0.15
0.14
0.12
0.12
0.06
0.02
0.00
0.00
0.00
0.00
0.04
0.04
0.01
0.06
0.04
0.06
0.06
0.06
0.06
0.06
0.06
0.06
0.06
0.06
0.04
0.04
0.04
0.09
0.06
0.06
0.04
0.04
0.01
0.04
0.04
0.01
0.00
0.00
0.00
0.00
0.00
0.00
0.01
0.01
0.00
0.01
0.00
0.01
0.01
0.04
0.06
0.20
0.34
0.20
0.20
0.01
0.02
0.02
0.03
0.03
0.03
0.03
0.03
0.06
0.12
0.20
0.69
0.49
0.63
0.82
0.82
0.58
0.35
0.12
0.12
0.06
0.08
0.04
0.04
0.04
0.03
0.01
0.01
0.02
0.03
0.01
0.01
0.01
0.01
0.02
0.01
0.03
0.03
0.06
0.04
0.12
0.12
0.14
0.20
0.25
0.25
0.28
0.32
0.32
0.30
0.20
0.14
0.07
0.03
0.01
0.01
0.01
0.00
0.00
0.00
0.00
0.00
0.01
0.00
0.00
0.01
0.04
0.04
0.04
0.04
0.04
0.04
0.01
0.04
0.04
0.04
0.01
0.01
0.01
0.01
0.04
0.00
0.00
0.00
0.00
0.00
0.01
0.00
0.00
0.00
0.00
0.00
0.00
0.00
0.00
0.00
0.01
0.12
0.06
0.15
0.43
0.25
0.30
0.12
0.01
0.00
0.03
0.00
0.00
0.00
0.01
0.02
0.03
0.15
0.42
0.90
0.59
0.71
0.62
0.62
0.56
0.04
0.08
0.04
0.03
0.03
0.02
0.03
0.02
0.00
0.01
0.01
0.00
0.00
0.01
0.00
0.01
0.01
0.02
0.02
0.03
0.07
0.07
0.12
0.15
0.20
0.25
0.25
0.28
0.28
0.28
0.28
0.23
0.16
0.12
0.06
0.01
0.00
0.00
0.00
0.01
0.00
0.01
0.01
0.01
0.01
0.01
0.04
0.01
0.04
0.04
0.06
0.06
0.06
0.04
0.06
0.06
0.09
0.06
0.09
0.09
0.09
0.09
0.12
0.12
0.06
0.09
0.09
0.09
0.12
0.09
0.06
0.09
0.06
0.09
0.06
0.06
0.06
0.15
0.20
0.22
0.25
0.49
0.34
0.39
0.25
0.04
0.06
0.00
0.00
0.00
0.01
0.00
0.00
0.07
0.15
0.39
0.85
0.55
0.60
0.62
0.58
0.54
0.04
0.12
0.06
0.03
0.03
0.03
0.03
0.02
0.03
0.01
0.02
0.00
0.02
0.00
0.01
0.01
0.02
0.04
0.03
0.06
0.06
0.07
0.12
0.12
0.15
0.15
0.16
0.16
0.23
0.23
0.23
0.16
0.14
0.12
0.08
0.06
0.03
0.03
0.00
0.01
0.00
0.02
0.00
0.01
0.00
0.01
0.01
0.01
0.01
0.00
0.01
0.00
0.00
0.00
0.01
0.01
0.00
0.00
0.00
0.00
0.00
0.00
0.00
0.00
0.00
0.00
0.00
0.00
0.00
0.00
0.00
0.00
0.00
0.00
0.00
0.00
0.00
0.00
0.06
0.16
0.15
0.16
0.44
0.28
0.30
0.16
0.00
0.00
0.02
0.00
0.01
0.01
0.03
0.02
0.08
0.20
0.47
0.80
0.62
0.77
0.73
0.60
0.56
0.08
0.12
0.08
0.07
0.06
0.06
0.03
0.03
0.03
0.03
0.01
0.01
0.01
0.01
0.00
0.01
0.00
0.00
0.00
0.00
0.00
0.00
0.00
0.02
0.02
0.03
0.04
0.06
0.08
0.12
0.15
0.15
0.12
0.06
0.03
0.00
0.00
0.00
0.00
0.06
0.04
0.06
0.04
0.06
0.06
0.09
0.09
0.09
0.06
0.04
0.09
0.06
0.06
0.06
0.04
0.04
0.06
0.06
0.06
0.06
0.06
0.06
0.04
0.04
0.04
0.01
0.01
0.04
0.04
0.01
0.00
0.04
0.04
0.04
0.01
0.00
0.01
0.01
0.04
0.00
0.00
0.00
0.00
0.00
0.00
0.00
0.06
0.12
0.09
0.16
0.42
0.25
0.20
0.15
0.00
0.01
0.01
0.01
0.01
0.00
0.02
0.01
0.02
0.04
0.30
0.93
0.55
0.70
0.63
0.68
0.55
0.04
0.07
0.06
0.03
0.03
0.01
0.01
0.01
0.01
0.01
0.01
0.01
0.00
0.00
0.00
0.00
0.00
0.01
0.00
0.00
0.02
0.02
0.03
0.07
0.12
0.15
0.14
0.14
0.23
0.25
0.30
0.25
0.23
0.14
0.12
0.07
0.03
0.01
0.00
0.01
0.00
0.01
0.00
0.01
0.00
0.00
0.01
0.01
0.00
0.00
0.00
0.00
0.00
0.00
0.00
0.01
0.00
0.00
0.00
0.01
0.04
0.00
0.00
0.00
0.00
0.00
0.00
0.00
0.01
0.00
0.00
0.01
0.00
0.00
0.00
0.00
0.00
0.00
0.01
0.01
0.01
0.00
0.00
0.00
0.00
0.09
0.12
0.15
0.39
0.22
0.16
0.09
0.01
0.01
0.03
0.01
0.01
0.02
0.02
0.01
0.03
0.06
0.34
0.91
0.58
0.70
0.63
0.62
0.56
0.04
0.15
0.08
0.06
0.06
0.03
0.03
0.04
0.03
0.03
0.03
0.03
0.03
0.06
0.03
0.03
0.03
0.04
0.07
0.07
0.12
0.12
0.14
0.16
0.25
0.25
0.25
0.25
0.25
0.32
0.30
0.25
0.16
0.14
0.07
0.04
0.01
0.01
0.00
0.01
0.01
0.00
0.00
0.00
0.00
0.00
0.01
0.00
0.00
0.00
0.00
0.00
0.00
0.00
0.00
0.01
0.01
0.01
0.01
0.00
0.01
0.00
0.00
0.00
0.00
0.00
0.00
0.01
0.00
0.00
0.00
0.00
0.01
0.01
0.00
0.01
0.01
0.00
0.00
0.01
0.01
0.01
0.01
0.01
0.01
0.01
0.12
0.06
0.16
0.26
0.30
0.16
0.15
0.00
0.03
0.00
0.00
0.02
0.02
0.03
0.03
0.04
0.01
0.26
0.85
0.54
0.61
0.63
0.60
0.54
0.12
0.12
0.07
0.04
0.03
0.03
0.02
0.01
0.03
0.01
0.03
0.03
0.03
0.03
0.03
0.03
0.04
0.07
0.04
0.04
0.06
0.07
0.07
0.08
0.07
0.12
0.12
0.12
0.12
0.12
0.12
0.12
0.12
0.07
0.04
0.02
0.01
0.01
0.01
0.00
0.00
0.00
0.00
0.00
0.01
0.00
0.04
0.00
0.00
0.04
0.00
0.01
0.00
0.00
0.00
0.00
0.01
0.00
0.00
0.00
0.00
0.00
0.00
0.00
0.00
0.00
0.00
0.00
0.00
0.00
0.01
0.00
0.01
0.01
0.01
0.00
0.00
0.01
0.00
0.06
0.01
0.09
0.39
0.20
0.16
0.06
0.03
0.04
0.03
0.03
0.03
0.06
0.04
0.03
0.04
0.12
0.30
0.90
0.60
0.83
0.70
0.66
0.56
0.07
0.08
0.06
0.03
0.03
0.02
0.01
0.00
0.00
0.01
0.01
0.00
0.00
0.00
0.00
0.00
0.00
0.01
0.00
0.00
0.00
0.00
0.00
0.00
0.02
0.03
0.06
0.07
0.12
0.14
0.16
0.23
0.20
0.15
0.12
0.06
0.03
0.01
0.01
0.00
0.00
0.00
0.00
0.00
0.00
0.01
0.01
0.04
0.00
0.04
0.06
0.06
0.06
0.06
0.09
0.06
0.09
0.09
0.09
0.06
0.09
0.06
0.06
0.04
0.04
0.04
0.04
0.04
0.04
0.04
0.00
0.01
0.01
0.01
0.00
0.00
0.00
0.00
0.00
0.00
0.00
0.00
0.00
0.00
0.00
0.01
0.01
0.00
0.06
0.04
0.15
0.20
0.25
0.04
0.00
0.03
0.07
0.06
0.06
0.03
0.02
0.03
0.03
0.03
0.00
0.32
0.89
0.16
0.63
0.63
0.70
0.56
0.03
0.06
0.03
0.00
0.01
0.00
0.01
0.01
0.00
0.00
0.01
0.00
0.01
0.00
0.00
0.01
0.00
0.01
0.01
0.01
0.02
0.04
0.06
0.08
0.14
0.15
0.20
0.23
0.25
0.25
0.28
0.28
0.25
0.16
0.12
0.07
0.02
0.00
0.00
0.00
0.00
0.04
0.04
0.01
0.04
0.06
0.06
0.06
0.04
0.06
0.09
0.09
0.09
0.12
0.15
0.09
0.12
0.15
0.15
0.06
0.12
0.12
0.15
0.12
0.12
0.09
0.09
0.12
0.09
0.12
0.09
0.06
0.12
0.04
0.09
0.09
0.09
0.09
0.09
0.09
0.06
0.04
0.06
0.12
0.20
0.20
0.26
0.22
0.47
0.38
0.20
0.12
0.01
0.01
0.01
0.00
0.00
0.00
0.00
0.00
0.04
0.16
0.51
0.85
0.56
0.61
0.63
0.57
0.53
0.01
0.06
0.02
0.02
0.01
0.00
0.02
0.02
0.00
0.02
0.03
0.03
0.03
0.04
0.04
0.07
0.06
0.06
0.12
0.12
0.15
0.14
0.16
0.20
0.23
0.20
0.25
0.16
0.23
0.20
0.20
0.14
0.12
0.04
0.02
0.00
0.00
0.00
0.06
0.04
0.09
0.01
0.01
0.06
0.01
0.01
0.00
0.01
0.00
0.01
0.01
0.00
0.00
0.00
0.00
0.01
0.00
0.00
0.00
0.00
0.00
0.00
0.00
0.00
0.01
0.00
0.00
0.00
0.00
0.00
0.00
0.00
0.00
0.00
0.01
0.06
0.06
0.12
0.15
0.39
0.28
0.26
0.15
0.00
0.01
0.02
0.00
0.00
0.01
0.01
0.03
0.08
0.20
0.65
0.47
0.63
0.64
0.73
0.58
0.48
0.07
0.08
0.07
0.03
0.03
0.03
0.03
0.03
0.02
0.00
0.02
0.02
0.01
0.01
0.00
0.01
0.00
0.00
0.00
0.00
0.00
0.00
0.01
0.03
0.03
0.06
0.06
0.12
0.14
0.20
0.20
0.23
0.16
0.15
0.08
0.08
0.03
0.02
0.02
0.01
0.01
0.00
0.00
0.00
0.00
0.00
0.01
0.01
0.00
0.00
0.00
0.00
0.00
0.00
0.00
0.00
0.00
0.00
0.00
0.00
0.01
0.00
0.04
0.01
0.01
0.01
0.00
0.00
0.00
0.00
0.00
0.00
0.00
0.01
0.01
0.00
0.01
0.06
0.00
0.16
0.30
0.25
0.22
0.09
0.01
0.02
0.03
0.03
0.03
0.03
0.03
0.04
0.04
0.01
0.15
0.91
0.54
0.80
0.73
0.77
0.56
0.15
0.14
0.12
0.12
0.08
0.06
0.06
0.06
0.06
0.04
0.03
0.02
0.03
0.02
0.02
0.01
0.01
0.00
0.02
0.03
0.02
0.03
0.03
0.04
0.08
0.12
0.15
0.15
0.16
0.23
0.25
0.23
0.16
0.12
0.08
0.03
0.01
0.01
0.01
0.01
0.00
0.00
0.01
0.00
0.01
0.01
0.01
0.00
0.00
0.00
0.00
0.00
0.00
0.00
0.00
0.01
0.01
0.01
0.00
0.00
0.00
0.01
0.00
0.01
0.01
0.01
0.00
0.00
0.00
0.00
0.00
0.00
0.00
0.00
0.01
0.00
0.00
0.00
0.00
0.09
0.09
0.16
0.43
0.25
0.22
0.06
0.02
0.02
0.03
0.03
0.02
0.03
0.03
0.03
0.07
0.12
0.38
0.87
0.58
0.80
0.65
0.61
0.56
0.08
0.15
0.12
0.06
0.04
0.03
0.03
0.04
0.03
0.03
0.03
0.02
0.03
0.03
0.01
0.02
0.01
0.02
0.03
0.04
0.04
0.07
0.12
0.14
0.16
0.20
0.25
0.25
0.28
0.30
0.30
0.23
0.20
0.12
0.07
0.03
0.01
0.00
0.00
0.00
0.00
0.00
0.01
0.00
0.01
0.00
0.04
0.04
0.01
0.01
0.04
0.06
0.06
0.04
0.04
0.01
0.00
0.01
0.00
0.04
0.00
0.01
0.00
0.00
0.00
0.00
0.01
0.00
0.01
0.00
0.00
0.00
0.00
0.00
0.00
0.00
0.00
0.00
0.04
0.09
0.12
0.16
0.43
0.30
0.28
0.16
0.00
0.00
0.03
0.00
0.00
0.01
0.00
0.01
0.12
0.06
0.38
0.81
0.58
0.63
0.63
0.58
0.54
0.08
0.14
0.12
0.08
0.04
0.06
0.06
0.07
0.06
0.04
0.06
0.03
0.04
0.06
0.04
0.04
0.07
0.06
0.12
0.08
0.12
0.12
0.14
0.16
0.25
0.23
0.25
0.25
0.23
0.25
0.25
0.20
0.14
0.12
0.07
0.03
0.00
0.01
0.00
0.00
0.00
0.00
0.00
0.00
0.00
0.00
0.00
0.00
0.01
0.01
0.00
0.00
0.00
0.06
0.01
0.01
0.00
0.01
0.01
0.01
0.01
0.01
0.00
0.00
0.01
0.00
0.01
0.01
0.00
0.00
0.01
0.01
0.00
0.00
0.00
0.00
0.06
0.16
0.32
0.22
0.16
0.01
0.02
0.01
0.03
0.03
0.03
0.07
0.07
0.12
0.23
0.00
0.55
0.54
0.62
0.68
0.80
0.60
0.53
0.23
0.16
0.16
0.15
0.15
0.12
0.12
0.12
0.08
0.07
0.07
0.07
0.04
0.06
0.03
0.03
0.04
0.03
0.03
0.02
0.03
0.03
0.03
0.04
0.06
0.07
0.08
0.12
0.15
0.20
0.20
0.23
0.20
0.14
0.08
0.06
0.03
0.03
0.02
0.01
0.00
0.00
0.01
0.01
0.01
0.01
0.01
0.01
0.00
0.01
0.00
0.00
0.01
0.00
0.01
0.01
0.00
0.00
0.00
0.01
0.00
0.00
0.00
0.00
0.00
0.00
0.01
0.00
0.01
0.00
0.01
0.00
0.01
0.01
0.00
0.00
0.01
0.00
0.00
0.00
0.00
0.00
0.04
0.12
0.12
0.20
0.43
0.22
0.25
0.12
0.01
0.01
0.02
0.00
0.01
0.01
0.00
0.02
0.04
0.26
0.51
0.81
0.60
0.82
0.70
0.60
0.53
0.08
0.12
0.07
0.06
0.03
0.03
0.03
0.03
0.02
0.00
0.00
0.00
0.00
0.01
0.01
0.00
0.00
0.00
0.02
0.01
0.03
0.03
0.04
0.08
0.12
0.15
0.16
0.20
0.20
0.28
0.28
0.28
0.20
0.14
0.12
0.06
0.03
0.01
0.01
0.00
0.00
0.00
0.01
0.00
0.00
0.00
0.00
0.01
0.01
0.00
0.00
0.04
0.01
0.09
0.04
0.06
0.06
0.06
0.06
0.06
0.04
0.01
0.04
0.04
0.01
0.01
0.00
0.00
0.01
0.00
0.00
0.00
0.00
0.00
0.00
0.00
0.00
0.00
0.00
0.00
0.06
0.16
0.09
0.16
0.47
0.30
0.28
0.15
0.00
0.00
0.02
0.01
0.01
0.01
0.01
0.01
0.02
0.06
0.28
0.92
0.54
0.63
0.63
0.65
0.54
0.08
0.15
0.07
0.07
0.06
0.06
0.03
0.03
0.04
0.03
0.03
0.02
0.01
0.02
0.01
0.01
0.01
0.01
0.00
0.02
0.03
0.06
0.08
0.12
0.15
0.23
0.25
0.30
0.30
0.28
0.28
0.30
0.25
0.14
0.12
0.04
0.01
0.00
0.01
0.00
0.00
0.00
0.01
0.00
0.01
0.01
0.04
0.01
0.01
0.00
0.04
0.06
0.09
0.04
0.01
0.04
0.04
0.01
0.00
0.00
0.00
0.00
0.00
0.00
0.00
0.00
0.00
0.00
0.00
0.01
0.00
0.01
0.00
0.00
0.01
0.01
0.00
0.01
0.01
0.00
0.01
0.00
0.01
0.00
0.00
0.00
0.00
0.00
0.00
0.15
0.00
0.15
0.28
0.32
0.25
0.12
0.00
0.02
0.02
0.01
0.01
0.02
0.01
0.03
0.03
0.07
0.09
0.71
0.12
0.58
0.60
0.63
0.54
0.23
0.12
0.07
0.06
0.04
0.03
0.03
0.02
0.03
0.02
0.02
0.03
0.03
0.03
0.04
0.04
0.12
0.12
0.12
0.12
0.14
0.15
0.16
0.20
0.25
0.28
0.30
0.23
0.25
0.25
0.30
0.28
0.25
0.23
0.15
0.08
0.04
0.03
0.00
0.01
0.01
0.00
0.00
0.00
0.00
0.00
0.01
0.00
0.00
0.01
0.02
0.01
0.03
0.03
0.03
0.03
0.02
0.03
0.03
0.02
0.03
0.01
0.01
0.01
0.02
0.02
0.01
0.01
0.00
0.01
0.00
0.01
0.01
0.00
0.01
0.00
0.00
0.00
0.04
0.04
0.06
0.38
0.25
0.26
0.12
0.00
0.00
0.03
0.03
0.01
0.03
0.06
0.04
0.15
0.06
0.32
0.81
0.58
0.63
0.67
0.58
0.54
0.07
0.16
0.08
0.06
0.06
0.03
0.04
0.03
0.03
0.03
0.03
0.02
0.03
0.01
0.01
0.00
0.01
0.01
0.00
0.01
0.00
0.01
0.00
0.01
0.02
0.03
0.03
0.06
0.12
0.15
0.14
0.14
0.15
0.12
0.08
0.03
0.03
0.01
0.00
0.00
0.01
0.00
0.00
0.01
0.00
0.01
0.01
0.00
0.01
0.01
0.00
0.00
0.00
0.01
0.02
0.01
0.01
0.00
0.00
0.00
0.00
0.01
0.01
0.00
0.01
0.00
0.00
0.01
0.01
0.01
0.01
0.00
0.01
0.01
0.01
0.01
0.01
0.01
0.01
0.00
0.01
0.01
0.00
0.01
0.00
0.09
0.00
0.16
0.12
0.32
0.20
0.12
0.00
0.04
0.04
0.04
0.03
0.03
0.06
0.04
0.07
0.12
0.22
0.68
0.64
0.62
0.83
0.77
0.58
0.50
0.12
0.12
0.07
0.04
0.04
0.03
0.02
0.02
0.02
0.02
0.01
0.00
0.00
0.00
0.00
0.01
0.01
0.00
0.00
0.01
0.02
0.03
0.04
0.06
0.07
0.12
0.12
0.15
0.12
0.20
0.20
0.20
0.14
0.12
0.06
0.02
0.01
0.00
0.00
0.04
0.06
0.04
0.06
0.09
0.12
0.12
0.15
0.15
0.15
0.16
0.16
0.20
0.20
0.16
0.16
0.20
0.20
0.16
0.16
0.16
0.16
0.12
0.09
0.12
0.06
0.09
0.09
0.06
0.01
0.00
0.04
0.04
0.01
0.06
0.04
0.01
0.01
0.04
0.04
0.01
0.01
0.04
0.04
0.01
0.00
0.00
0.00
0.01
0.00
0.01
0.00
0.06
0.16
0.09
0.22
0.30
0.38
0.20
0.12
0.00
0.03
0.01
0.02
0.00
0.01
0.02
0.02
0.03
0.02
0.30
0.85
0.06
0.62
0.62
0.71
0.55
0.12
0.07
0.04
0.03
0.03
0.03
0.02
0.02
0.02
0.00
0.01
0.01
0.03
0.03
0.03
0.03
0.04
0.04
0.07
0.08
0.07
0.12
0.15
0.16
0.23
0.28
0.25
0.28
0.28
0.30
0.28
0.25
0.20
0.14
0.08
0.04
0.02
0.01
0.00
0.00
0.00
0.00
0.00
0.00
0.00
0.00
0.00
0.01
0.00
0.01
0.00
0.00
0.00
0.01
0.00
0.00
0.00
0.00
0.00
0.01
0.01
0.00
0.01
0.00
0.01
0.00
0.00
0.00
0.01
0.01
0.00
0.01
0.04
0.06
0.04
0.04
0.04
0.06
0.04
0.06
0.06
0.04
0.01
0.00
0.01
0.04
0.01
0.09
0.16
0.06
0.25
0.20
0.38
0.09
0.04
0.00
0.03
0.02
0.02
0.01
0.01
0.01
0.01
0.01
0.01
0.34
0.84
0.00
0.60
0.63
0.68
0.56
0.07
0.06
0.03
0.03
0.02
0.01
0.01
0.00
0.01
0.00
0.01
0.01
0.00
0.00
0.01
0.01
0.02
0.02
0.03
0.06
0.06
0.08
0.12
0.14
0.25
0.25
0.28
0.30
0.32
0.32
0.38
0.32
0.28
0.23
0.15
0.08
0.04
0.02
0.00
0.01
0.00
0.00
0.00
0.00
0.01
0.00
0.00
0.00
0.00
0.00
0.00
0.00
0.00
0.00
0.00
0.01
0.00
0.01
0.01
0.01
0.00
0.01
0.00
0.00
0.00
0.01
0.00
0.00
0.01
0.00
0.00
0.01
0.00
0.00
0.01
0.00
0.01
0.01
0.01
0.01
0.00
0.00
0.00
0.00
0.00
0.01
0.01
0.00
0.06
0.00
0.12
0.09
0.38
0.09
0.04
0.01
0.06
0.02
0.02
0.01
0.00
0.02
0.01
0.02
0.06
0.25
0.67
0.71
0.59
0.62
0.63
0.55
0.43
0.02
0.04
0.02
0.02
0.01
0.01
0.00
0.00
0.01
0.01
0.01
0.00
0.00
0.01
0.00
0.00
0.00
0.00
0.02
0.03
0.04
0.06
0.07
0.12
0.15
0.20
0.23
0.25
0.25
0.30
0.28
0.30
0.20
0.15
0.07
0.04
0.01
0.01
0.00
0.01
0.01
0.01
0.01
0.01
0.06
0.06
0.04
0.04
0.06
0.06
0.06
0.09
0.06
0.06
0.09
0.06
0.06
0.06
0.12
0.06
0.09
0.06
0.04
0.01
0.01
0.01
0.01
0.01
0.00
0.00
0.00
0.00
0.00
0.00
0.00
0.00
0.00
0.00
0.00
0.00
0.00
0.00
0.09
0.06
0.20
0.09
0.38
0.12
0.06
0.01
0.07
0.06
0.06
0.03
0.03
0.04
0.03
0.03
0.12
0.15
0.54
0.80
0.59
0.65
0.65
0.56
0.43
0.07
0.08
0.07
0.06
0.04
0.04
0.04
0.03
0.03
0.04
0.03
0.03
0.03
0.02
0.03
0.03
0.06
0.06
0.07
0.08
0.12
0.16
0.20
0.25
0.35
0.38
0.43
0.43
0.45
0.45
0.43
0.41
0.35
0.25
0.15
0.07
0.04
0.03
0.02
0.01
0.01
0.01
0.00
0.00
0.00
0.00
0.00
0.00
0.00
0.00
0.00
0.00
0.00
0.00
0.00
0.01
0.00
0.00
0.00
0.00
0.00
0.00
0.00
0.00
0.00
0.00
0.00
0.00
0.00
0.00
0.00
0.00
0.00
0.00
0.00
0.00
0.00
0.00
0.01
0.01
0.00
0.00
0.00
0.04
0.04
0.06
0.25
0.16
0.01
0.00
0.07
0.07
0.06
0.04
0.03
0.03
0.03
0.03
0.06
0.00
0.26
0.90
0.53
0.62
0.62
0.63
0.54
0.07
0.15
0.08
0.06
0.06
0.04
0.04
0.03
0.03
0.02
0.03
0.03
0.03
0.03
0.02
0.03
0.04
0.04
0.04
0.08
0.12
0.14
0.20
0.23
0.30
0.38
0.41
0.41
0.41
0.43
0.43
0.43
0.32
0.28
0.16
0.07
0.03
0.03
0.01
0.00
0.00
0.00
0.00
0.00
0.00
0.00
0.01
0.01
0.01
0.04
0.04
0.09
0.04
0.06
0.09
0.09
0.09
0.09
0.09
0.12
0.09
0.09
0.09
0.06
0.09
0.06
0.06
0.04
0.06
0.01
0.00
0.00
0.00
0.00
0.01
0.00
0.00
0.00
0.01
0.01
0.00
0.00
0.01
0.00
0.12
0.12
0.30
0.16
0.06
0.01
0.03
0.03
0.06
0.03
0.03
0.04
0.03
0.04
0.15
0.12
0.54
0.71
0.58
0.67
0.66
0.58
0.50
0.06
0.12
0.08
0.08
0.06
0.04
0.03
0.03
0.03
0.03
0.03
0.02
0.03
0.03
0.03
0.03
0.03
0.03
0.06
0.08
0.12
0.15
0.14
0.20
0.28
0.35
0.35
0.38
0.41
0.41
0.41
0.35
0.28
0.20
0.12
0.07
0.03
0.00
0.01
0.00
0.00
0.00
0.00
0.00
0.00
0.00
0.00
0.00
0.00
0.00
0.01
0.01
0.01
0.04
0.01
0.06
0.06
0.04
0.06
0.04
0.04
0.06
0.04
0.01
0.01
0.06
0.01
0.04
0.01
0.00
0.01
0.01
0.00
0.00
0.00
0.00
0.00
0.01
0.00
0.00
0.01
0.00
0.00
0.01
0.04
0.12
0.12
0.38
0.20
0.09
0.01
0.04
0.03
0.07
0.03
0.03
0.03
0.03
0.04
0.12
0.16
0.65
0.65
0.58
0.63
0.70
0.54
0.35
0.08
0.12
0.06
0.07
0.08
0.04
0.03
0.03
0.03
0.03
0.03
0.02
0.02
0.02
0.02
0.03
0.03
0.03
0.04
0.07
0.08
0.12
0.15
0.20
0.25
0.28
0.32
0.30
0.30
0.32
0.35
0.28
0.20
0.12
0.06
0.02
0.01
0.00
0.01
0.04
0.01
0.06
0.04
0.06
0.06
0.04
0.04
0.06
0.04
0.06
0.06
0.06
0.04
0.04
0.06
0.06
0.04
0.04
0.04
0.00
0.00
0.00
0.00
0.00
0.01
0.00
0.01
0.00
0.01
0.00
0.01
0.01
0.00
0.00
0.01
0.01
0.01
0.00
0.00
0.06
0.06
0.20
0.22
0.38
0.28
0.22
0.04
0.01
0.00
0.02
0.03
0.00
0.03
0.01
0.03
0.12
0.09
0.57
0.57
0.59
0.61
0.65
0.55
0.41
0.07
0.08
0.06
0.04
0.06
0.04
0.02
0.03
0.03
0.03
0.03
0.04
0.04
0.06
0.06
0.07
0.08
0.08
0.12
0.20
0.23
0.25
0.25
0.32
0.35
0.41
0.41
0.41
0.41
0.35
0.38
0.32
0.28
0.15
0.07
0.03
0.02
0.01
0.00
0.00
0.00
0.00
0.01
0.00
0.00
0.00
0.00
0.01
0.00
0.00
0.00
0.00
0.00
0.00
0.01
0.01
0.01
0.01
0.00
0.04
0.01
0.06
0.04
0.01
0.01
0.06
0.00
0.00
0.00
0.00
0.00
0.00
0.00
0.00
0.06
0.06
0.15
0.22
0.34
0.30
0.28
0.12
0.00
0.00
0.02
0.00
0.02
0.02
0.02
0.03
0.15
0.01
0.54
0.61
0.58
0.58
0.64
0.58
0.53
0.07
0.08
0.07
0.04
0.04
0.02
0.02
0.01
0.02
0.02
0.01
0.01
0.00
0.00
0.01
0.01
0.00
0.00
0.01
0.02
0.02
0.03
0.03
0.08
0.08
0.15
0.12
0.14
0.14
0.20
0.23
0.14
0.12
0.06
0.03
0.01
0.00
0.00
0.01
0.01
0.04
0.04
0.01
0.01
0.06
0.01
0.01
0.01
0.04
0.01
0.04
0.01
0.01
0.04
0.04
0.04
0.04
0.04
0.04
0.06
0.06
0.06
0.06
0.01
0.06
0.01
0.00
0.01
0.00
0.00
0.00
0.00
0.00
0.01
0.01
0.15
0.12
0.16
0.43
0.28
0.32
0.20
0.01
0.01
0.01
0.00
0.01
0.00
0.01
0.00
0.02
0.12
0.43
0.92
0.56
0.66
0.63
0.65
0.54
0.03
0.06
0.03
0.03
0.02
0.01
0.01
0.02
0.00
0.01
0.01
0.00
0.00
0.01
0.00
0.00
0.01
0.01
0.01
0.00
0.00
0.02
0.03
0.06
0.07
0.08
0.12
0.12
0.14
0.20
0.23
0.23
0.14
0.12
0.08
0.03
0.01
0.00
0.00
0.00
0.00
0.00
0.01
0.00
0.04
0.01
0.06
0.06
0.06
0.06
0.09
0.09
0.15
0.15
0.12
0.15
0.15
0.15
0.15
0.15
0.15
0.09
0.12
0.15
0.12
0.15
0.09
0.12
0.09
0.15
0.12
0.09
0.09
0.09
0.09
0.06
0.06
0.06
0.01
0.06
0.04
0.06
0.15
0.15
0.22
0.25
0.47
0.30
0.26
0.15
0.00
0.00
0.02
0.01
0.00
0.02
0.00
0.00
0.04
0.09
0.38
0.90
0.57
0.65
0.63
0.61
0.56
0.03
0.12
0.06
0.04
0.02
0.01
0.00
0.01
0.01
0.00
0.00
0.01
0.00
0.01
0.00
0.00
0.00
0.00
0.00
0.00
0.01
0.02
0.03
0.04
0.07
0.12
0.12
0.15
0.12
0.14
0.16
0.16
0.12
0.07
0.03
0.00
0.00
0.00
0.06
0.09
0.09
0.06
0.09
0.12
0.12
0.12
0.12
0.09
0.12
0.12
0.12
0.09
0.12
0.06
0.12
0.12
0.15
0.15
0.16
0.16
0.16
0.16
0.15
0.15
0.15
0.16
0.16
0.12
0.12
0.12
0.16
0.15
0.09
0.12
0.12
0.12
0.09
0.12
0.06
0.09
0.06
0.06
0.09
0.09
0.06
0.15
0.22
0.20
0.28
0.42
0.39
0.26
0.25
0.04
0.01
0.00
0.00
0.00
0.01
0.00
0.00
0.01
0.00
0.32
0.81
0.01
0.58
0.60
0.63
0.56
0.12
0.04
0.03
0.02
0.00
0.00
0.01
0.00
0.00
0.00
0.00
0.00
0.00
0.01
0.01
0.01
0.00
0.02
0.03
0.03
0.04
0.08
0.07
0.15
0.15
0.15
0.14
0.14
0.16
0.20
0.20
0.14
0.16
0.12
0.06
0.04
0.00
0.01
0.00
0.01
0.01
0.01
0.00
0.01
0.00
0.01
0.01
0.04
0.04
0.00
0.00
0.00
0.01
0.00
0.01
0.00
0.01
0.01
0.04
0.04
0.01
0.00
0.00
0.04
0.01
0.04
0.04
0.00
0.00
0.00
0.00
0.00
0.00
0.00
0.00
0.00
0.01
0.15
0.12
0.16
0.43
0.30
0.30
0.22
0.01
0.00
0.01
0.01
0.01
0.03
0.02
0.03
0.07
0.00
0.25
0.81
0.54
0.62
0.63
0.62
0.57
0.12
0.12
0.07
0.03
0.03
0.02
0.02
0.01
0.02
0.01
0.01
0.00
0.02
0.00
0.01
0.01
0.02
0.00
0.02
0.03
0.03
0.03
0.04
0.04
0.07
0.12
0.12
0.15
0.15
0.20
0.23
0.23
0.16
0.15
0.07
0.06
0.03
0.03
0.00
0.01
0.01
0.01
0.01
0.00
0.00
0.01
0.00
0.01
0.01
0.00
0.00
0.01
0.00
0.00
0.00
0.00
0.00
0.01
0.01
0.01
0.01
0.00
0.01
0.00
0.00
0.00
0.00
0.00
0.01
0.00
0.01
0.01
0.02
0.02
0.03
0.02
0.03
0.02
0.03
0.03
0.03
0.02
0.03
0.02
0.02
0.03
0.00
0.00
0.00
0.12
0.06
0.26
0.01
0.00
0.03
0.12
0.08
0.08
0.07
0.06
0.07
0.07
0.07
0.12
0.22
0.76
0.38
0.63
0.85
0.85
0.58
0.35
0.14
0.12
0.07
0.06
0.03
0.03
0.03
0.01
0.02
0.00
0.01
0.00
0.01
0.00
0.01
0.01
0.01
0.01
0.03
0.03
0.03
0.06
0.07
0.12
0.15
0.14
0.20
0.23
0.25
0.30
0.32
0.35
0.30
0.23
0.15
0.08
0.04
0.03
0.02
0.01
0.01
0.00
0.01
0.01
0.01
0.01
0.00
0.00
0.00
0.00
0.01
0.01
0.00
0.01
0.01
0.01
0.01
0.01
0.01
0.00
0.00
0.00
0.00
0.00
0.01
0.00
0.01
0.00
0.00
0.01
0.01
0.01
0.00
0.01
0.00
0.00
0.02
0.00
0.00
0.00
0.02
0.01
0.01
0.01
0.01
0.02
0.02
0.03
0.02
0.00
0.00
0.01
0.00
0.01
0.26
0.01
0.00
0.00
0.08
0.07
0.04
0.03
0.03
0.04
0.04
0.04
0.07
0.09
0.48
0.85
0.60
0.73
0.65
0.60
0.55
0.06
0.12
0.07
0.06
0.04
0.03
0.02
0.03
0.03
0.02
0.03
0.02
0.02
0.02
0.03
0.03
0.03
0.03
0.03
0.06
0.07
0.08
0.12
0.14
0.14
0.23
0.23
0.28
0.25
0.32
0.30
0.30
0.23
0.15
0.12
0.04
0.03
0.00
0.00
0.00
0.00
0.00
0.01
0.06
0.06
0.09
0.06
0.06
0.09
0.12
0.06
0.09
0.09
0.09
0.09
0.12
0.12
0.15
0.15
0.12
0.12
0.12
0.12
0.09
0.09
0.09
0.12
0.12
0.04
0.06
0.06
0.12
0.06
0.06
0.01
0.04
0.04
0.06
0.09
0.04
0.01
0.06
0.06
0.01
0.04
0.00
0.00
0.01
0.00
0.00
0.04
0.01
0.15
0.06
0.30
0.16
0.09
0.00
0.01
0.00
0.01
0.00
0.01
0.01
0.01
0.02
0.03
0.16
0.74
0.01
0.58
0.58
0.63
0.54
0.16
0.03
0.01
0.01
0.00
0.00
0.00
0.00
0.00
0.00
0.00
0.01
0.00
0.00
0.01
0.01
0.01
0.01
0.03
0.03
0.03
0.03
0.03
0.04
0.07
0.08
0.08
0.12
0.08
0.08
0.12
0.08
0.12
0.06
0.03
0.00
0.00
0.04
0.04
0.12
0.09
0.06
0.12
0.15
0.15
0.12
0.12
0.09
0.12
0.12
0.12
0.06
0.09
0.04
0.09
0.06
0.04
0.06
0.01
0.04
0.01
0.01
0.00
0.01
0.01
0.00
0.00
0.00
0.00
0.00
0.00
0.00
0.01
0.00
0.01
0.01
0.00
0.01
0.00
0.00
0.01
0.00
0.00
0.00
0.01
0.01
0.01
0.00
0.00
0.01
0.00
0.12
0.04
0.30
0.09
0.01
0.00
0.03
0.03
0.03
0.03
0.02
0.03
0.03
0.03
0.07
0.22
0.55
0.80
0.60
0.80
0.73
0.58
0.53
0.04
0.07
0.03
0.01
0.02
0.00
0.01
0.01
0.00
0.01
0.00
0.00
0.00
0.00
0.00
0.00
0.00
0.00
0.00
0.00
0.01
0.00
0.01
0.03
0.04
0.07
0.08
0.12
0.15
0.20
0.28
0.28
0.25
0.14
0.12
0.07
0.03
0.00
0.00
0.00
0.00
0.00
0.00
0.00
0.00
0.00
0.00
0.00
0.00
0.00
0.00
0.00
0.01
0.01
0.01
0.01
0.01
0.01
0.01
0.04
0.04
0.01
0.00
0.00
0.04
0.00
0.00
0.00
0.00
0.00
0.00
0.00
0.01
0.00
0.01
0.00
0.01
0.00
0.00
0.00
0.00
0.00
0.00
0.00
0.00
0.00
0.00
0.01
0.00
0.01
0.00
0.00
0.01
0.01
0.01
0.00
0.01
0.00
0.09
0.00
0.20
0.06
0.00
0.02
0.08
0.08
0.07
0.06
0.04
0.08
0.04
0.08
0.07
0.20
0.81
0.03
0.63
0.70
0.77
0.55
0.16
0.14
0.12
0.08
0.06
0.04
0.04
0.03
0.04
0.03
0.04
0.03
0.04
0.03
0.03
0.06
0.04
0.06
0.07
0.07
0.12
0.12
0.14
0.23
0.23
0.25
0.30
0.32
0.35
0.38
0.43
0.41
0.38
0.32
0.25
0.14
0.08
0.04
0.04
0.03
0.01
0.00
0.00
0.00
0.01
0.00
0.00
0.00
0.00
0.00
0.00
0.00
0.00
0.00
0.00
0.00
0.00
0.00
0.00
0.00
0.00
0.01
0.01
0.01
0.01
0.01
0.01
0.00
0.00
0.01
0.00
0.01
0.00
0.00
0.01
0.00
0.00
0.01
0.00
0.01
0.00
0.01
0.00
0.01
0.01
0.01
0.01
0.01
0.01
0.00
0.01
0.00
0.01
0.01
0.00
0.06
0.00
0.25
0.04
0.00
0.01
0.07
0.07
0.04
0.03
0.03
0.03
0.03
0.03
0.15
0.20
0.65
0.67
0.60
0.68
0.70
0.58
0.50
0.07
0.12
0.07
0.03
0.02
0.02
0.01
0.01
0.00
0.01
0.01
0.01
0.01
0.01
0.01
0.00
0.00
0.00
0.01
0.02
0.03
0.03
0.04
0.12
0.08
0.15
0.14
0.16
0.20
0.30
0.28
0.28
0.23
0.16
0.12
0.06
0.01
0.01
0.01
0.00
0.00
0.00
0.00
0.01
0.01
0.00
0.01
0.01
0.04
0.04
0.01
0.01
0.01
0.04
0.00
0.00
0.00
0.00
0.00
0.00
0.00
0.00
0.00
0.00
0.00
0.00
0.00
0.00
0.00
0.00
0.00
0.00
0.00
0.00
0.00
0.00
0.00
0.00
0.01
0.00
0.01
0.01
0.01
0.01
0.00
0.01
0.00
0.01
0.00
0.01
0.00
0.01
0.00
0.00
0.00
0.00
0.04
0.01
0.00
0.04
0.12
0.07
0.06
0.03
0.03
0.04
0.03
0.04
0.06
0.20
0.81
0.00
0.60
0.63
0.73
0.54
0.16
0.07
0.03
0.03
0.02
0.02
0.01
0.00
0.01
0.00
0.00
0.00
0.01
0.00
0.01
0.00
0.00
0.01
0.00
0.00
0.02
0.03
0.06
0.07
0.12
0.15
0.16
0.23
0.23
0.25
0.25
0.30
0.25
0.20
0.15
0.07
0.03
0.01
0.01
0.01
0.01
0.04
0.04
0.04
0.04
0.06
0.01
0.06
0.04
0.00
0.04
0.04
0.04
0.04
0.06
0.04
0.04
0.06
0.01
0.00
0.00
0.00
0.00
0.00
0.00
0.00
0.00
0.00
0.00
0.00
0.01
0.00
0.00
0.00
0.00
0.00
0.01
0.00
0.01
0.00
0.00
0.00
0.00
0.00
0.00
0.00
0.00
0.00
0.00
0.06
0.04
0.16
0.06
0.30
0.22
0.12
0.01
0.01
0.00
0.00
0.00
0.00
0.01
0.00
0.00
0.03
0.28
0.73
0.55
0.58
0.62
0.70
0.56
0.23
0.02
0.02
0.01
0.01
0.01
0.01
0.00
0.00
0.00
0.00
0.00
0.00
0.00
0.00
0.00
0.01
0.01
0.01
0.02
0.03
0.06
0.08
0.12
0.14
0.20
0.23
0.28
0.32
0.30
0.32
0.32
0.30
0.30
0.20
0.12
0.07
0.03
0.02
0.00
0.00
0.00
0.00
0.00
0.00
0.00
0.00
0.00
0.00
0.00
0.00
0.01
0.01
0.01
0.01
0.01
0.04
0.04
0.04
0.00
0.00
0.00
0.00
0.00
0.00
0.00
0.01
0.00
0.00
0.01
0.00
0.00
0.00
0.00
0.00
0.01
0.00
0.00
0.01
0.00
0.01
0.00
0.01
0.00
0.00
0.00
0.00
0.01
0.00
0.09
0.09
0.12
0.09
0.00
0.03
0.04
0.04
0.04
0.03
0.03
0.03
0.03
0.03
0.03
0.09
0.76
0.07
0.58
0.58
0.62
0.54
0.16
0.08
0.06
0.06
0.03
0.03
0.03
0.03
0.02
0.03
0.02
0.02
0.03
0.03
0.04
0.07
0.06
0.06
0.08
0.15
0.15
0.14
0.20
0.25
0.25
0.30
0.35
0.35
0.32
0.38
0.32
0.38
0.32
0.28
0.23
0.15
0.08
0.07
0.03
0.01
0.01
0.01
0.00
0.01
0.00
0.00
0.01
0.00
0.01
0.01
0.01
0.00
0.00
0.01
0.00
0.01
0.01
0.00
0.01
0.01
0.01
0.00
0.01
0.00
0.01
0.00
0.01
0.00
0.01
0.01
0.01
0.01
0.01
0.01
0.00
0.00
0.01
0.00
0.00
0.00
0.00
0.00
0.00
0.01
0.09
0.01
0.28
0.12
0.12
0.06
0.01
0.02
0.01
0.00
0.00
0.02
0.02
0.03
0.12
0.15
0.42
0.81
0.59
0.62
0.66
0.58
0.54
0.08
0.15
0.07
0.03
0.04
0.03
0.04
0.02
0.03
0.01
0.02
0.00
0.01
0.00
0.00
0.01
0.01
0.00
0.01
0.01
0.00
0.02
0.03
0.06
0.06
0.12
0.14
0.23
0.25
0.30
0.32
0.32
0.30
0.25
0.16
0.12
0.06
0.03
0.03
0.03
0.01
0.01
0.01
0.01
0.00
0.00
0.00
0.00
0.01
0.00
0.01
0.01
0.00
0.01
0.00
0.01
0.01
0.00
0.01
0.01
0.02
0.01
0.00
0.01
0.00
0.01
0.00
0.01
0.01
0.00
0.01
0.01
0.01
0.00
0.00
0.00
0.01
0.01
0.00
0.04
0.01
0.12
0.25
0.16
0.12
0.09
0.00
0.03
0.02
0.01
0.00
0.00
0.02
0.02
0.02
0.01
0.34
0.92
0.55
0.70
0.67
0.72
0.55
0.12
0.12
0.08
0.04
0.03
0.03
0.03
0.02
0.01
0.03
0.02
0.02
0.03
0.00
0.01
0.00
0.00
0.01
0.00
0.01
0.02
0.03
0.03
0.08
0.08
0.12
0.14
0.16
0.25
0.25
0.30
0.30
0.28
0.20
0.15
0.07
0.03
0.01
0.01
0.01
0.00
0.00
0.00
0.00
0.00
0.00
0.00
0.00
0.00
0.00
0.00
0.00
0.01
0.00
0.01
0.01
0.00
0.00
0.01
0.01
0.00
0.00
0.00
0.00
0.00
0.01
0.00
0.00
0.00
0.01
0.01
0.01
0.01
0.01
0.01
0.01
0.00
0.01
0.01
0.01
0.02
0.01
0.00
0.01
0.00
0.04
0.00
0.22
0.01
0.00
0.00
0.04
0.08
0.03
0.03
0.03
0.02
0.02
0.01
0.07
0.15
0.44
0.88
0.58
0.67
0.63
0.60
0.55
0.04
0.08
0.07
0.06
0.03
0.02
0.03
0.03
0.03
0.03
0.03
0.03
0.06
0.04
0.06
0.03
0.06
0.06
0.12
0.14
0.15
0.16
0.20
0.23
0.32
0.32
0.32
0.32
0.30
0.32
0.35
0.35
0.23
0.23
0.15
0.07
0.03
0.02
0.00
0.01
0.00
0.00
0.00
0.00
0.00
0.00
0.01
0.00
0.00
0.00
0.00
0.00
0.00
0.00
0.00
0.00
0.00
0.00
0.00
0.04
0.00
0.00
0.00
0.00
0.00
0.00
0.00
0.00
0.01
0.00
0.00
0.00
0.01
0.00
0.01
0.00
0.01
0.01
0.01
0.00
0.00
0.00
0.06
0.00
0.04
0.16
0.15
0.15
0.04
0.02
0.03
0.04
0.03
0.03
0.03
0.06
0.03
0.12
0.00
0.28
0.81
0.54
0.61
0.63
0.61
0.56
0.12
0.12
0.06
0.04
0.03
0.03
0.02
0.01
0.01
0.01
0.02
0.01
0.01
0.01
0.01
0.01
0.01
0.02
0.02
0.02
0.03
0.03
0.04
0.06
0.12
0.12
0.12
0.14
0.15
0.16
0.20
0.20
0.20
0.12
0.08
0.06
0.03
0.02
0.00
0.00
0.00
0.00
0.00
0.00
0.00
0.00
0.00
0.00
0.01
0.00
0.01
0.00
0.01
0.01
0.00
0.01
0.01
0.00
0.00
0.01
0.01
0.02
0.00
0.02
0.01
0.01
0.01
0.01
0.02
0.02
0.02
0.03
0.02
0.03
0.03
0.03
0.03
0.02
0.03
0.01
0.01
0.00
0.01
0.22
0.00
0.00
0.01
0.08
0.08
0.06
0.04
0.03
0.06
0.03
0.03
0.08
0.22
0.54
0.78
0.62
0.85
0.77
0.60
0.53
0.08
0.12
0.06
0.04
0.03
0.03
0.02
0.02
0.00
0.01
0.01
0.00
0.00
0.01
0.00
0.00
0.00
0.00
0.00
0.01
0.01
0.00
0.01
0.02
0.03
0.06
0.08
0.08
0.15
0.16
0.20
0.25
0.16
0.12
0.07
0.04
0.01
0.01
0.01
0.00
0.00
0.00
0.00
0.00
0.00
0.00
0.00
0.00
0.00
0.01
0.00
0.01
0.00
0.01
0.01
0.01
0.04
0.04
0.04
0.00
0.04
0.00
0.00
0.00
0.00
0.00
0.00
0.01
0.01
0.00
0.01
0.00
0.01
0.01
0.02
0.02
0.02
0.01
0.00
0.00
0.01
0.09
0.01
0.22
0.09
0.01
0.01
0.03
0.06
0.03
0.02
0.01
0.02
0.00
0.00
0.03
0.30
0.80
0.28
0.61
0.65
0.77
0.54
0.14
0.03
0.02
0.01
0.01
0.01
0.00
0.00
0.00
0.00
0.00
0.00
0.00
0.00
0.00
0.00
0.01
0.01
0.01
0.01
0.03
0.04
0.06
0.08
0.15
0.16
0.23
0.28
0.28
0.28
0.32
0.32
0.32
0.25
0.14
0.12
0.07
0.03
0.02
0.02
0.00
0.00
0.01
0.00
0.00
0.00
0.01
0.00
0.00
0.01
0.00
0.00
0.00
0.00
0.01
0.00
0.00
0.00
0.00
0.00
0.00
0.00
0.00
0.00
0.00
0.00
0.00
0.00
0.00
0.00
0.00
0.00
0.00
0.00
0.00
0.01
0.00
0.00
0.00
0.00
0.00
0.00
0.00
0.01
0.00
0.00
0.00
0.00
0.00
0.04
0.06
0.09
0.06
0.25
0.12
0.09
0.01
0.03
0.03
0.02
0.02
0.01
0.03
0.02
0.01
0.07
0.04
0.32
0.87
0.54
0.60
0.63
0.58
0.56
0.03
0.07
0.04
0.03
0.02
0.02
0.00
0.00
0.00
0.00
0.00
0.00
0.00
0.00
0.00
0.01
0.02
0.02
0.03
0.03
0.04
0.07
0.07
0.12
0.15
0.12
0.14
0.12
0.14
0.14
0.20
0.14
0.16
0.12
0.06
0.03
0.01
0.00
0.00
0.00
0.00
0.00
0.00
0.00
0.00
0.00
0.00
0.00
0.00
0.00
0.00
0.00
0.00
0.00
0.00
0.00
0.00
0.00
0.01
0.01
0.00
0.01
0.01
0.01
0.00
0.01
0.01
0.01
0.01
0.00
0.01
0.00
0.01
0.00
0.00
0.01
0.01
0.01
0.01
0.01
0.01
0.01
0.01
0.00
0.06
0.00
0.16
0.00
0.00
0.02
0.12
0.12
0.08
0.06
0.07
0.07
0.08
0.08
0.12
0.06
0.69
0.22
0.62
0.77
0.80
0.59
0.28
0.12
0.07
0.06
0.03
0.01
0.01
0.00
0.01
0.01
0.00
0.00
0.00
0.00
0.01
0.06
0.04
0.04
0.04
0.06
0.01
0.04
0.00
0.00
0.01
0.00
0.02
0.03
0.06
0.08
0.12
0.14
0.12
0.15
0.08
0.04
0.02
0.01
0.00
0.00
0.01
0.04
0.01
0.04
0.01
0.01
0.01
0.04
0.01
0.01
0.01
0.06
0.06
0.09
0.04
0.06
0.06
0.04
0.09
0.06
0.06
0.04
0.09
0.06
0.09
0.06
0.06
0.04
0.04
0.04
0.01
0.04
0.00
0.00
0.01
0.01
0.01
0.01
0.01
0.01
0.01
0.01
0.00
0.01
0.01
0.01
0.00
0.04
0.06
0.06
0.15
0.15
0.20
0.09
0.01
0.03
0.06
0.03
0.03
0.03
0.02
0.02
0.03
0.03
0.02
0.28
0.87
0.25
0.63
0.63
0.77
0.54
0.12
0.08
0.07
0.07
0.03
0.02
0.01
0.00
0.01
0.00
0.00
0.00
0.00
0.00
0.01
0.00
0.01
0.01
0.01
0.02
0.03
0.03
0.06
0.07
0.12
0.14
0.20
0.20
0.20
0.25
0.28
0.30
0.28
0.25
0.16
0.15
0.06
0.03
0.00
0.01
0.00
0.00
0.00
0.00
0.01
0.00
0.00
0.00
0.00
0.01
0.00
0.01
0.01
0.01
0.00
0.01
0.04
0.01
0.04
0.01
0.01
0.01
0.00
0.00
0.00
0.00
0.01
0.01
0.00
0.00
0.00
0.00
0.01
0.00
0.00
0.00
0.01
0.00
0.00
0.01
0.00
0.01
0.01
0.01
0.00
0.00
0.04
0.00
0.12
0.12
0.16
0.15
0.04
0.00
0.03
0.03
0.03
0.02
0.01
0.03
0.03
0.04
0.00
0.25
0.85
0.45
0.58
0.61
0.61
0.55
0.03
0.07
0.04
0.03
0.03
0.01
0.01
0.02
0.03
0.02
0.02
0.02
0.03
0.04
0.03
0.03
0.06
0.04
0.08
0.08
0.08
0.12
0.15
0.16
0.16
0.16
0.16
0.16
0.16
0.23
0.20
0.20
0.14
0.12
0.12
0.06
0.03
0.00
0.00
0.01
0.01
0.00
0.00
0.00
0.00
0.00
0.00
0.00
0.00
0.00
0.00
0.00
0.00
0.00
0.00
0.00
0.00
0.00
0.00
0.01
0.00
0.01
0.01
0.00
0.01
0.01
0.01
0.00
0.00
0.00
0.02
0.00
0.02
0.01
0.02
0.01
0.01
0.02
0.01
0.00
0.00
0.00
0.06
0.00
0.26
0.09
0.04
0.00
0.04
0.06
0.03
0.03
0.03
0.03
0.06
0.06
0.12
0.15
0.65
0.39
0.62
0.63
0.71
0.58
0.43
0.08
0.07
0.04
0.03
0.02
0.02
0.01
0.01
0.01
0.01
0.01
0.00
0.00
0.00
0.00
0.00
0.00
0.00
0.01
0.00
0.01
0.00
0.01
0.01
0.01
0.03
0.03
0.04
0.08
0.15
0.14
0.20
0.14
0.14
0.08
0.04
0.03
0.02
0.00
0.00
0.00
0.00
0.00
0.00
0.00
0.00
0.01
0.00
0.00
0.00
0.01
0.00
0.01
0.00
0.00
0.00
0.00
0.01
0.00
0.00
0.00
0.00
0.00
0.00
0.00
0.00
0.00
0.00
0.01
0.01
0.01
0.00
0.01
0.01
0.01
0.00
0.00
0.02
0.00
0.00
0.01
0.00
0.06
0.25
0.15
0.01
0.00
0.04
0.07
0.04
0.03
0.03
0.03
0.03
0.03
0.02
0.06
0.32
0.93
0.55
0.72
0.67
0.71
0.55
0.12
0.12
0.07
0.06
0.04
0.03
0.03
0.03
0.01
0.02
0.02
0.00
0.01
0.01
0.00
0.01
0.01
0.00
0.00
0.00
0.00
0.02
0.03
0.04
0.04
0.08
0.12
0.15
0.14
0.20
0.23
0.25
0.23
0.23
0.15
0.06
0.04
0.02
0.01
0.00
0.00
0.00
0.00
0.00
0.00
0.01
0.04
0.01
0.04
0.01
0.06
0.04
0.09
0.09
0.12
0.09
0.09
0.09
0.09
0.06
0.06
0.04
0.06
0.04
0.04
0.06
0.01
0.01
0.01
0.01
0.01
0.00
0.01
0.00
0.00
0.00
0.00
0.00
0.00
0.06
0.15
0.01
0.15
0.12
0.34
0.09
0.04
0.00
0.04
0.03
0.03
0.02
0.02
0.03
0.03
0.03
0.04
0.16
0.80
0.03
0.60
0.63
0.63
0.54
0.12
0.08
0.03
0.03
0.01
0.00
0.01
0.00
0.00
0.00
0.00
0.00
0.00
0.01
0.00
0.02
0.03
0.02
0.03
0.06
0.06
0.08
0.12
0.15
0.14
0.14
0.20
0.23
0.16
0.16
0.16
0.16
0.14
0.12
0.06
0.03
0.02
0.01
0.01
0.00
0.01
0.00
0.01
0.00
0.00
0.00
0.00
0.00
0.01
0.00
0.00
0.00
0.00
0.00
0.00
0.00
0.00
0.00
0.00
0.00
0.01
0.00
0.00
0.00
0.00
0.00
0.00
0.00
0.00
0.00
0.00
0.01
0.00
0.00
0.00
0.09
0.12
0.16
0.15
0.44
0.38
0.26
0.20
0.00
0.01
0.01
0.00
0.00
0.01
0.01
0.01
0.08
0.16
0.48
0.85
0.59
0.62
0.64
0.60
0.54
0.03
0.07
0.03
0.03
0.02
0.00
0.00
0.01
0.01
0.00
0.00
0.01
0.00
0.00
0.00
0.00
0.00
0.00
0.01
0.01
0.01
0.01
0.01
0.02
0.02
0.03
0.03
0.04
0.04
0.08
0.12
0.12
0.07
0.03
0.03
0.01
0.01
0.00
0.00
0.06
0.01
0.04
0.01
0.04
0.04
0.06
0.06
0.04
0.06
0.09
0.09
0.06
0.06
0.04
0.04
0.01
0.04
0.04
0.01
0.01
0.01
0.04
0.00
0.01
0.00
0.00
0.00
0.00
0.01
0.01
0.00
0.00
0.00
0.01
0.00
0.01
0.04
0.06
0.15
0.12
0.42
0.16
0.22
0.09
0.00
0.00
0.03
0.01
0.00
0.01
0.02
0.02
0.06
0.28
0.48
0.81
0.62
0.86
0.77
0.61
0.53
0.04
0.07
0.03
0.02
0.02
0.00
0.01
0.00
0.01
0.00
0.01
0.01
0.01
0.00
0.00
0.00
0.00
0.01
0.00
0.00
0.00
0.00
0.00
0.01
0.01
0.02
0.03
0.04
0.06
0.12
0.12
0.12
0.12
0.07
0.03
0.00
0.00
0.04
0.06
0.09
0.09
0.15
0.15
0.12
0.15
0.15
0.16
0.16
0.20
0.20
0.20
0.16
0.20
0.20
0.16
0.15
0.15
0.16
0.12
0.15
0.09
0.09
0.06
0.06
0.01
0.06
0.04
0.04
0.04
0.04
0.01
0.04
0.04
0.04
0.04
0.06
0.04
0.04
0.00
0.00
0.04
0.04
0.16
0.12
0.25
0.20
0.43
0.28
0.20
0.06
0.00
0.01
0.02
0.00
0.00
0.01
0.00
0.01
0.03
0.32
0.61
0.81
0.58
0.72
0.66
0.58
0.41
0.01
0.03
0.01
0.01
0.01
0.00
0.00
0.00
0.00
0.00
0.01
0.04
0.01
0.01
0.04
0.00
0.00
0.00
0.01
0.01
0.03
0.03
0.06
0.12
0.14
0.25
0.23
0.23
0.28
0.30
0.35
0.32
0.28
0.20
0.14
0.12
0.12
0.07
0.07
0.08
0.08
0.12
0.12
0.12
0.12
0.16
0.15
0.16
0.14
0.14
0.16
0.16
0.20
0.16
0.16
0.20
0.14
0.20
0.20
0.16
0.20
0.23
0.23
0.25
0.23
0.14
0.14
0.14
0.15
0.16
0.12
0.12
0.12
0.12
0.12
0.12
0.12
0.12
0.07
0.06
0.03
0.00
0.03
0.00
0.22
0.12
0.06
0.06
0.04
0.07
0.08
0.07
0.07
0.08
0.07
0.06
0.14
0.02
0.12
0.81
0.56
0.61
0.62
0.62
0.58
0.14
0.15
0.08
0.07
0.03
0.03
0.03
0.02
0.03
0.02
0.01
0.02
0.01
0.01
0.01
0.00
0.00
0.01
0.01
0.02
0.01
0.02
0.03
0.03
0.07
0.08
0.08
0.08
0.08
0.12
0.15
0.12
0.08
0.07
0.04
0.03
0.00
0.01
0.00
0.00
0.00
0.01
0.01
0.01
0.00
0.01
0.01
0.04
0.04
0.00
0.01
0.00
0.00
0.01
0.00
0.00
0.00
0.00
0.00
0.01
0.00
0.00
0.00
0.00
0.01
0.00
0.00
0.00
0.00
0.00
0.00
0.00
0.00
0.00
0.01
0.00
0.01
0.00
0.12
0.28
0.20
0.16
0.01
0.00
0.04
0.04
0.04
0.03
0.06
0.06
0.06
0.08
0.00
0.22
0.87
0.54
0.75
0.79
0.83
0.58
0.25
0.15
0.15
0.06
0.06
0.04
0.06
0.03
0.03
0.03
0.03
0.02
0.02
0.02
0.00
0.01
0.01
0.01
0.01
0.00
0.00
0.00
0.00
0.01
0.02
0.03
0.06
0.07
0.12
0.12
0.16
0.20
0.14
0.14
0.12
0.04
0.03
0.01
0.01
0.01
0.00
0.00
0.00
0.00
0.00
0.00
0.00
0.00
0.00
0.00
0.00
0.00
0.01
0.00
0.00
0.00
0.00
0.00
0.00
0.00
0.01
0.00
0.00
0.00
0.00
0.00
0.01
0.00
0.00
0.00
0.00
0.00
0.00
0.00
0.00
0.00
0.00
0.00
0.00
0.01
0.01
0.00
0.00
0.04
0.09
0.09
0.20
0.32
0.22
0.16
0.09
0.02
0.03
0.04
0.01
0.01
0.01
0.02
0.02
0.03
0.16
0.43
0.90
0.58
0.73
0.64
0.58
0.53
0.07
0.12
0.07
0.03
0.03
0.02
0.03
0.01
0.01
0.00
0.01
0.00
0.00
0.01
0.00
0.01
0.00
0.01
0.01
0.02
0.02
0.03
0.06
0.12
0.15
0.14
0.16
0.23
0.23
0.25
0.28
0.23
0.20
0.12
0.07
0.03
0.01
0.00
0.00
0.00
0.00
0.04
0.01
0.01
0.01
0.01
0.04
0.06
0.04
0.04
0.06
0.06
0.09
0.06
0.09
0.12
0.09
0.09
0.12
0.09
0.06
0.06
0.06
0.01
0.01
0.00
0.00
0.00
0.00
0.00
0.00
0.01
0.01
0.00
0.00
0.02
0.00
0.01
0.00
0.00
0.09
0.22
0.26
0.22
0.15
0.00
0.02
0.03
0.03
0.02
0.03
0.03
0.03
0.04
0.03
0.12
0.75
0.03
0.58
0.61
0.63
0.54
0.14
0.12
0.07
0.07
0.03
0.03
0.03
0.03
0.03
0.02
0.01
0.03
0.02
0.02
0.02
0.01
0.03
0.03
0.04
0.06
0.06
0.08
0.12
0.12
0.20
0.16
0.23
0.20
0.25
0.23
0.25
0.20
0.20
0.16
0.12
0.12
0.06
0.03
0.02
0.03
0.00
0.01
0.01
0.00
0.01
0.01
0.01
0.00
0.01
0.00
0.00
0.00
0.00
0.00
0.00
0.00
0.00
0.00
0.00
0.00
0.00
0.01
0.00
0.00
0.00
0.00
0.00
0.00
0.01
0.01
0.02
0.02
0.02
0.03
0.02
0.03
0.03
0.02
0.02
0.00
0.00
0.09
0.20
0.38
0.28
0.26
0.12
0.00
0.01
0.01
0.01
0.03
0.03
0.03
0.07
0.07
0.09
0.67
0.16
0.63
0.62
0.71
0.58
0.45
0.07
0.07
0.07
0.04
0.03
0.03
0.03
0.03
0.03
0.03
0.03
0.03
0.03
0.02
0.03
0.02
0.01
0.02
0.02
0.00
0.00
0.00
0.00
0.01
0.02
0.02
0.03
0.04
0.07
0.12
0.15
0.15
0.12
0.12
0.07
0.03
0.03
0.00
0.01
0.01
0.01
0.00
0.00
0.00
0.00
0.00
0.00
0.00
0.00
0.00
0.00
0.00
0.00
0.00
0.00
0.00
0.00
0.00
0.00
0.00
0.00
0.00
0.01
0.00
0.01
0.00
0.01
0.00
0.00
0.01
0.00
0.01
0.00
0.00
0.01
0.00
0.01
0.00
0.00
0.09
0.09
0.15
0.39
0.22
0.26
0.09
0.00
0.00
0.03
0.03
0.01
0.03
0.03
0.03
0.07
0.20
0.38
0.83
0.63
0.87
0.77
0.62
0.53
0.07
0.12
0.06
0.03
0.02
0.02
0.01
0.02
0.01
0.00
0.00
0.01
0.00
0.01
0.01
0.00
0.01
0.04
0.01
0.04
0.01
0.04
0.00
0.00
0.03
0.02
0.03
0.06
0.12
0.15
0.16
0.16
0.15
0.08
0.04
0.03
0.00
0.00
0.00
0.00
0.01
0.01
0.00
0.01
0.00
0.01
0.01
0.04
0.04
0.06
0.06
0.04
0.09
0.12
0.09
0.12
0.09
0.09
0.12
0.12
0.12
0.12
0.09
0.09
0.12
0.09
0.09
0.06
0.09
0.06
0.09
0.06
0.06
0.04
0.06
0.06
0.04
0.01
0.01
0.04
0.15
0.16
0.22
0.28
0.44
0.32
0.30
0.15
0.00
0.01
0.01
0.00
0.00
0.00
0.00
0.00
0.03
0.26
0.55
0.83
0.58
0.75
0.63
0.58
0.53
0.03
0.07
0.03
0.03
0.02
0.01
0.00
0.01
0.00
0.00
0.00
0.00
0.00
0.00
0.00
0.00
0.00
0.00
0.00
0.01
0.00
0.02
0.06
0.06
0.12
0.15
0.16
0.20
0.25
0.28
0.25
0.25
0.20
0.15
0.08
0.03
0.01
0.00
0.00
0.00
0.00
0.00
0.00
0.00
0.00
0.01
0.00
0.00
0.01
0.01
0.00
0.09
0.06
0.09
0.06
0.09
0.06
0.15
0.09
0.06
0.06
0.06
0.09
0.09
0.06
0.09
0.06
0.06
0.01
0.01
0.04
0.00
0.00
0.00
0.00
0.04
0.06
0.12
0.15
0.22
0.47
0.32
0.32
0.20
0.00
0.00
0.00
0.00
0.00
0.01
0.01
0.01
0.03
0.09
0.38
0.87
0.54
0.61
0.63
0.61
0.54
0.06
0.12
0.07
0.06
0.03
0.03
0.03
0.03
0.03
0.03
0.03
0.02
0.03
0.02
0.03
0.03
0.03
0.03
0.04
0.06
0.12
0.08
0.07
0.12
0.15
0.14
0.20
0.14
0.14
0.14
0.16
0.14
0.08
0.07
0.03
0.02
0.00
0.00
0.00
0.01
0.00
0.01
0.00
0.00
0.00
0.00
0.00
0.00
0.00
0.01
0.06
0.00
0.00
0.00
0.00
0.01
0.01
0.00
0.01
0.01
0.01
0.00
0.01
0.00
0.04
0.01
0.00
0.00
0.04
0.01
0.00
0.00
0.00
0.00
0.01
0.01
0.01
0.00
0.04
0.01
0.09
0.30
0.26
0.25
0.12
0.00
0.02
0.04
0.06
0.07
0.12
0.12
0.08
0.14
0.01
0.09
0.81
0.55
0.63
0.66
0.63
0.59
0.14
0.23
0.15
0.12
0.08
0.07
0.07
0.04
0.03
0.03
0.04
0.03
0.02
0.03
0.02
0.02
0.01
0.01
0.01
0.01
0.00
0.01
0.00
0.00
0.03
0.04
0.07
0.07
0.12
0.14
0.16
0.23
0.16
0.12
0.07
0.03
0.02
0.02
0.00
0.00
0.00
0.00
0.00
0.00
0.00
0.00
0.00
0.00
0.00
0.00
0.00
0.00
0.00
0.00
0.00
0.00
0.00
0.00
0.01
0.01
0.00
0.01
0.01
0.01
0.01
0.01
0.01
0.02
0.00
0.01
0.02
0.00
0.00
0.00
0.01
0.00
0.01
0.00
0.01
0.04
0.00
0.15
0.26
0.32
0.22
0.15
0.00
0.03
0.02
0.04
0.03
0.03
0.03
0.03
0.04
0.04
0.20
0.81
0.01
0.63
0.80
0.83
0.58
0.23
0.07
0.06
0.04
0.03
0.03
0.03
0.02
0.01
0.01
0.03
0.00
0.02
0.01
0.00
0.00
0.01
0.00
0.00
0.01
0.01
0.03
0.03
0.04
0.06
0.08
0.12
0.15
0.12
0.14
0.23
0.25
0.23
0.16
0.15
0.07
0.03
0.02
0.00
0.01
0.00
0.00
0.00
0.00
0.00
0.00
0.00
0.00
0.00
0.00
0.00
0.00
0.00
0.00
0.01
0.01
0.04
0.01
0.01
0.01
0.04
0.06
0.06
0.01
0.01
0.01
0.00
0.06
0.00
0.01
0.00
0.00
0.00
0.00
0.01
0.00
0.00
0.00
0.00
0.00
0.00
0.00
0.00
0.00
0.00
0.00
0.00
0.01
0.00
0.00
0.00
0.06
0.01
0.20
0.09
0.38
0.16
0.12
0.00
0.02
0.02
0.01
0.00
0.00
0.01
0.01
0.01
0.04
0.22
0.52
0.85
0.59
0.63
0.63
0.57
0.50
0.02
0.04
0.03
0.02
0.03
0.01
0.01
0.01
0.01
0.00
0.00
0.01
0.01
0.00
0.01
0.03
0.02
0.03
0.03
0.04
0.07
0.08
0.12
0.12
0.15
0.14
0.16
0.14
0.16
0.20
0.20
0.16
0.14
0.14
0.15
0.04
0.02
0.01
0.01
0.00
0.00
0.01
0.00
0.01
0.00
0.01
0.01
0.00
0.06
0.04
0.04
0.04
0.06
0.01
0.04
0.12
0.04
0.06
0.04
0.04
0.01
0.06
0.06
0.00
0.01
0.04
0.01
0.00
0.01
0.00
0.00
0.00
0.00
0.00
0.00
0.00
0.00
0.01
0.00
0.01
0.00
0.09
0.04
0.20
0.12
0.39
0.15
0.12
0.00
0.03
0.02
0.06
0.04
0.03
0.04
0.03
0.06
0.14
0.09
0.61
0.54
0.62
0.62
0.68
0.58
0.48
0.07
0.07
0.06
0.03
0.02
0.03
0.02
0.02
0.01
0.00
0.00
0.01
0.01
0.00
0.00
0.01
0.00
0.00
0.01
0.00
0.00
0.00
0.00
0.01
0.03
0.04
0.07
0.08
0.14
0.20
0.23
0.23
0.20
0.14
0.12
0.08
0.03
0.03
0.03
0.01
0.01
0.00
0.01
0.01
0.00
0.01
0.01
0.00
0.00
0.00
0.00
0.00
0.00
0.00
0.00
0.00
0.00
0.00
0.00
0.00
0.00
0.00
0.00
0.00
0.00
0.00
0.01
0.01
0.01
0.00
0.00
0.01
0.02
0.00
0.01
0.00
0.01
0.00
0.02
0.00
0.01
0.00
0.01
0.00
0.06
0.16
0.20
0.00
0.00
0.06
0.12
0.08
0.08
0.07
0.06
0.06
0.03
0.04
0.00
0.16
0.89
0.38
0.67
0.73
0.82
0.57
0.14
0.08
0.08
0.04
0.04
0.03
0.02
0.02
0.02
0.02
0.02
0.01
0.01
0.01
0.01
0.02
0.02
0.02
0.02
0.03
0.04
0.06
0.07
0.07
0.12
0.15
0.16
0.14
0.20
0.23
0.30
0.30
0.30
0.23
0.14
0.08
0.04
0.02
0.00
0.01
0.01
0.00
0.00
0.01
0.00
0.00
0.00
0.00
0.00
0.01
0.00
0.01
0.01
0.04
0.00
0.04
0.04
0.01
0.00
0.00
0.00
0.00
0.00
0.00
0.01
0.00
0.00
0.00
0.01
0.01
0.02
0.00
0.01
0.00
0.01
0.02
0.02
0.02
0.03
0.02
0.00
0.00
0.04
0.00
0.26
0.12
0.01
0.01
0.07
0.07
0.08
0.06
0.06
0.07
0.07
0.06
0.15
0.12
0.51
0.79
0.61
0.77
0.68
0.58
0.54
0.08
0.14
0.08
0.12
0.04
0.04
0.03
0.03
0.03
0.03
0.03
0.02
0.03
0.02
0.03
0.02
0.04
0.04
0.07
0.08
0.15
0.15
0.20
0.25
0.28
0.32
0.35
0.32
0.30
0.38
0.32
0.32
0.20
0.15
0.06
0.03
0.01
0.01
0.00
0.00
0.01
0.01
0.00
0.01
0.00
0.01
0.00
0.00
0.00
0.01
0.04
0.01
0.00
0.01
0.04
0.01
0.01
0.00
0.01
0.00
0.00
0.00
0.00
0.00
0.00
0.00
0.00
0.00
0.01
0.00
0.01
0.00
0.00
0.00
0.00
0.00
0.04
0.09
0.12
0.16
0.42
0.30
0.26
0.16
0.00
0.00
0.00
0.01
0.00
0.01
0.01
0.03
0.08
0.06
0.55
0.67
0.60
0.61
0.67
0.58
0.48
0.07
0.07
0.07
0.04
0.02
0.03
0.02
0.02
0.03
0.01
0.02
0.02
0.03
0.03
0.03
0.03
0.03
0.06
0.06
0.04
0.06
0.06
0.08
0.08
0.12
0.08
0.08
0.08
0.14
0.12
0.15
0.08
0.06
0.04
0.03
0.00
0.01
0.01
0.00
0.00
0.00
0.00
0.00
0.00
0.00
0.00
0.00
0.01
0.00
0.00
0.00
0.00
0.00
0.00
0.00
0.00
0.00
0.00
0.00
0.00
0.00
0.00
0.00
0.00
0.00
0.00
0.00
0.00
0.00
0.00
0.00
0.01
0.01
0.01
0.00
0.01
0.00
0.04
0.06
0.12
0.32
0.16
0.12
0.01
0.03
0.03
0.06
0.04
0.06
0.04
0.07
0.06
0.15
0.04
0.34
0.80
0.62
0.82
0.75
0.63
0.56
0.14
0.14
0.15
0.12
0.08
0.07
0.06
0.06
0.04
0.04
0.03
0.03
0.03
0.03
0.01
0.01
0.01
0.01
0.00
0.00
0.00
0.00
0.00
0.00
0.01
0.03
0.03
0.03
0.07
0.12
0.14
0.12
0.12
0.07
0.03
0.03
0.01
0.00
0.00
0.00
0.00
0.00
0.00
0.00
0.00
0.00
0.00
0.00
0.00
0.00
0.00
0.00
0.00
0.00
0.00
0.00
0.00
0.00
0.01
0.00
0.00
0.00
0.00
0.00
0.00
0.00
0.01
0.00
0.00
0.00
0.00
0.00
0.00
0.00
0.00
0.00
0.00
0.01
0.00
0.00
0.01
0.00
0.00
0.01
0.06
0.01
0.15
0.30
0.26
0.12
0.06
0.02
0.03
0.03
0.03
0.02
0.03
0.03
0.02
0.03
0.01
0.30
0.92
0.56
0.64
0.63
0.64
0.54
0.04
0.08
0.04
0.04
0.02
0.01
0.00
0.00
0.01
0.01
0.00
0.00
0.00
0.00
0.01
0.00
0.00
0.00
0.01
0.01
0.01
0.03
0.04
0.07
0.12
0.15
0.14
0.16
0.20
0.23
0.23
0.23
0.16
0.12
0.06
0.03
0.00
0.01
0.00
0.01
0.04
0.01
0.04
0.04
0.04
0.06
0.06
0.06
0.01
0.09
0.09
0.12
0.12
0.09
0.12
0.15
0.15
0.12
0.12
0.09
0.09
0.09
0.12
0.12
0.09
0.09
0.12
0.06
0.09
0.00
0.04
0.04
0.04
0.06
0.00
0.00
0.00
0.01
0.01
0.12
0.12
0.16
0.16
0.44
0.30
0.28
0.12
0.00
0.01
0.03
0.01
0.01
0.01
0.02
0.02
0.12
0.15
0.60
0.71
0.59
0.61
0.63
0.55
0.41
0.01
0.03
0.03
0.02
0.02
0.00
0.00
0.01
0.00
0.01
0.01
0.02
0.01
0.01
0.03
0.03
0.06
0.06
0.07
0.12
0.12
0.15
0.16
0.23
0.25
0.30
0.30
0.28
0.30
0.32
0.30
0.25
0.16
0.15
0.07
0.03
0.03
0.01
0.01
0.01
0.00
0.01
0.00
0.00
0.01
0.01
0.01
0.00
0.00
0.00
0.00
0.00
0.00
0.00
0.04
0.00
0.01
0.00
0.00
0.01
0.04
0.00
0.00
0.00
0.00
0.00
0.00
0.00
0.00
0.00
0.00
0.00
0.00
0.00
0.00
0.01
0.15
0.12
0.22
0.26
0.43
0.38
0.32
0.16
0.00
0.00
0.01
0.00
0.00
0.02
0.03
0.06
0.12
0.06
0.61
0.43
0.62
0.63
0.70
0.59
0.50
0.15
0.12
0.15
0.08
0.08
0.08
0.08
0.07
0.07
0.06
0.08
0.06
0.06
0.04
0.04
0.04
0.03
0.03
0.03
0.03
0.03
0.04
0.06
0.04
0.04
0.06
0.12
0.12
0.15
0.14
0.16
0.15
0.15
0.12
0.07
0.02
0.01
0.01
0.00
0.00
0.00
0.00
0.00
0.00
0.00
0.01
0.00
0.00
0.00
0.00
0.00
0.00
0.01
0.00
0.01
0.00
0.00
0.01
0.00
0.00
0.00
0.00
0.01
0.00
0.01
0.01
0.01
0.00
0.00
0.01
0.00
0.00
0.00
0.00
0.00
0.00
0.00
0.00
0.01
0.09
0.15
0.16
0.26
0.44
0.28
0.28
0.15
0.01
0.00
0.00
0.01
0.01
0.00
0.02
0.02
0.04
0.28
0.67
0.67
0.62
0.84
0.79
0.58
0.43
0.07
0.07
0.04
0.03
0.03
0.00
0.01
0.00
0.01
0.00
0.01
0.00
0.00
0.00
0.00
0.00
0.01
0.01
0.01
0.00
0.02
0.02
0.06
0.04
0.08
0.12
0.15
0.16
0.23
0.23
0.23
0.23
0.14
0.12
0.07
0.02
0.00
0.01
0.00
0.00
0.00
0.01
0.00
0.01
0.01
0.04
0.04
0.04
0.04
0.01
0.06
0.09
0.06
0.06
0.04
0.06
0.09
0.12
0.06
0.09
0.06
0.09
0.09
0.09
0.04
0.01
0.04
0.01
0.01
0.01
0.01
0.00
0.00
0.00
0.00
0.00
0.00
0.00
0.01
0.00
0.00
0.00
0.00
0.01
0.00
0.15
0.20
0.30
0.22
0.15
0.00
0.03
0.02
0.03
0.02
0.01
0.03
0.03
0.03
0.04
0.22
0.81
0.01
0.61
0.62
0.77
0.54
0.14
0.12
0.08
0.06
0.03
0.03
0.03
0.03
0.02
0.02
0.03
0.02
0.02
0.02
0.01
0.03
0.03
0.03
0.03
0.06
0.07
0.12
0.15
0.20
0.23
0.28
0.28
0.28
0.28
0.28
0.30
0.25
0.25
0.16
0.12
0.03
0.03
0.01
0.01
0.01
0.01
0.00
0.01
0.00
0.00
0.00
0.00
0.00
0.01
0.00
0.01
0.04
0.04
0.04
0.06
0.06
0.01
0.04
0.01
0.01
0.00
0.01
0.04
0.00
0.01
0.00
0.00
0.00
0.01
0.00
0.00
0.00
0.01
0.00
0.00
0.00
0.01
0.04
0.06
0.20
0.25
0.44
0.32
0.25
0.15
0.00
0.00
0.01
0.01
0.02
0.03
0.02
0.06
0.15
0.04
0.56
0.54
0.61
0.62
0.68
0.58
0.50
0.08
0.08
0.08
0.06
0.04
0.03
0.04
0.03
0.03
0.03
0.03
0.02
0.02
0.02
0.03
0.03
0.03
0.03
0.06
0.03
0.04
0.07
0.07
0.07
0.08
0.12
0.12
0.14
0.14
0.16
0.20
0.16
0.12
0.12
0.07
0.04
0.03
0.01
0.01
0.00
0.01
0.01
0.01
0.01
0.01
0.00
0.00
0.00
0.00
0.00
0.00
0.00
0.00
0.00
0.00
0.00
0.00
0.00
0.00
0.00
0.01
0.00
0.00
0.00
0.00
0.01
0.00
0.00
0.00
0.00
0.01
0.00
0.00
0.00
0.04
0.16
0.16
0.20
0.47
0.26
0.28
0.12
0.00
0.01
0.01
0.03
0.01
0.03
0.03
0.03
0.06
0.09
0.20
0.90
0.58
0.82
0.73
0.70
0.58
0.12
0.15
0.08
0.07
0.03
0.03
0.03
0.02
0.02
0.01
0.00
0.00
0.01
0.00
0.00
0.00
0.00
0.00
0.00
0.00
0.01
0.00
0.00
0.01
0.01
0.02
0.03
0.04
0.07
0.12
0.15
0.12
0.07
0.04
0.02
0.00
0.00
0.04
0.12
0.09
0.09
0.09
0.09
0.12
0.12
0.12
0.09
0.15
0.12
0.15
0.15
0.12
0.12
0.16
0.12
0.15
0.12
0.15
0.12
0.12
0.09
0.09
0.06
0.06
0.06
0.06
0.04
0.04
0.01
0.06
0.04
0.06
0.04
0.01
0.00
0.06
0.04
0.04
0.00
0.00
0.01
0.01
0.00
0.00
0.01
0.00
0.01
0.01
0.01
0.12
0.06
0.22
0.16
0.38
0.15
0.09
0.00
0.03
0.02
0.02
0.00
0.00
0.00
0.00
0.00
0.04
0.25
0.67
0.71
0.59
0.70
0.70
0.55
0.28
0.03
0.04
0.02
0.01
0.00
0.01
0.00
0.01
0.00
0.00
0.00
0.00
0.00
0.00
0.01
0.00
0.00
0.01
0.00
0.02
0.02
0.03
0.04
0.06
0.12
0.12
0.15
0.15
0.14
0.16
0.20
0.20
0.14
0.08
0.07
0.03
0.01
0.00
0.00
0.01
0.00
0.01
0.04
0.06
0.01
0.04
0.01
0.04
0.04
0.06
0.04
0.04
0.01
0.04
0.06
0.04
0.01
0.04
0.06
0.01
0.04
0.04
0.04
0.00
0.01
0.04
0.01
0.01
0.00
0.01
0.00
0.00
0.00
0.00
0.01
0.00
0.00
0.00
0.02
0.02
0.02
0.00
0.02
0.01
0.02
0.00
0.00
0.00
0.00
0.20
0.09
0.00
0.01
0.07
0.06
0.07
0.03
0.03
0.03
0.03
0.03
0.07
0.01
0.20
0.83
0.38
0.59
0.60
0.62
0.54
0.08
0.12
0.07
0.03
0.03
0.03
0.02
0.01
0.01
0.00
0.01
0.01
0.01
0.03
0.02
0.02
0.03
0.03
0.06
0.06
0.08
0.12
0.14
0.15
0.16
0.23
0.20
0.20
0.23
0.23
0.25
0.25
0.20
0.20
0.12
0.12
0.03
0.01
0.00
0.00
0.01
0.00
0.01
0.00
0.00
0.00
0.01
0.00
0.00
0.01
0.00
0.00
0.00
0.00
0.00
0.00
0.01
0.01
0.00
0.00
0.00
0.00
0.00
0.00
0.00
0.00
0.00
0.00
0.00
0.00
0.00
0.00
0.00
0.00
0.00
0.00
0.00
0.00
0.01
0.12
0.09
0.25
0.22
0.42
0.22
0.20
0.00
0.01
0.00
0.02
0.02
0.02
0.02
0.03
0.03
0.04
0.16
0.70
0.22
0.60
0.63
0.66
0.58
0.28
0.04
0.03
0.04
0.03
0.01
0.01
0.00
0.02
0.01
0.00
0.00
0.01
0.00
0.01
0.01
0.01
0.00
0.00
0.00
0.00
0.00
0.00
0.01
0.00
0.03
0.03
0.04
0.08
0.12
0.14
0.20
0.14
0.12
0.08
0.04
0.03
0.01
0.00
0.00
0.00
0.00
0.01
0.00
0.04
0.06
0.04
0.04
0.04
0.09
0.06
0.04
0.06
0.04
0.04
0.04
0.04
0.00
0.00
0.00
0.00
0.00
0.00
0.00
0.00
0.00
0.00
0.00
0.00
0.00
0.01
0.00
0.01
0.00
0.02
0.00
0.01
0.01
0.00
0.04
0.09
0.09
0.38
0.20
0.16
0.01
0.02
0.01
0.04
0.00
0.01
0.02
0.02
0.02
0.04
0.25
0.49
0.83
0.62
0.85
0.72
0.60
0.50
0.04
0.06
0.03
0.03
0.02
0.01
0.00
0.01
0.01
0.01
0.01
0.01
0.01
0.01
0.00
0.01
0.01
0.00
0.02
0.01
0.02
0.03
0.03
0.04
0.07
0.12
0.12
0.12
0.15
0.20
0.25
0.23
0.16
0.08
0.03
0.02
0.01
0.01
0.00
0.00
0.00
0.00
0.00
0.00
0.00
0.00
0.01
0.01
0.01
0.00
0.00
0.00
0.00
0.00
0.00
0.00
0.00
0.00
0.00
0.00
0.00
0.00
0.00
0.00
0.00
0.00
0.00
0.00
0.00
0.00
0.00
0.00
0.00
0.00
0.00
0.00
0.00
0.00
0.00
0.00
0.06
0.09
0.12
0.16
0.42
0.25
0.22
0.09
0.00
0.01
0.02
0.00
0.01
0.00
0.00
0.00
0.03
0.16
0.43
0.90
0.58
0.70
0.63
0.60
0.53
0.03
0.08
0.04
0.03
0.03
0.01
0.02
0.01
0.02
0.02
0.02
0.02
0.02
0.01
0.02
0.02
0.03
0.03
0.07
0.07
0.06
0.12
0.12
0.20
0.23
0.30
0.30
0.30
0.28
0.32
0.35
0.30
0.25
0.14
0.12
0.04
0.03
0.02
0.01
0.01
0.00
0.01
0.01
0.00
0.00
0.01
0.00
0.00
0.00
0.00
0.00
0.00
0.00
0.00
0.01
0.00
0.00
0.00
0.00
0.00
0.00
0.00
0.00
0.00
0.00
0.00
0.00
0.00
0.00
0.00
0.00
0.00
0.00
0.01
0.00
0.00
0.00
0.00
0.04
0.12
0.06
0.26
0.34
0.39
0.34
0.25
0.06
0.01
0.01
0.02
0.03
0.02
0.02
0.03
0.06
0.06
0.01
0.70
0.04
0.58
0.61
0.64
0.57
0.28
0.12
0.12
0.08
0.08
0.06
0.07
0.06
0.07
0.07
0.04
0.03
0.06
0.03
0.07
0.06
0.06
0.04
0.08
0.08
0.12
0.12
0.12
0.12
0.15
0.14
0.14
0.16
0.14
0.14
0.16
0.16
0.12
0.12
0.06
0.03
0.03
0.00
0.01
0.01
0.00
0.00
0.00
0.00
0.00
0.00
0.00
0.00
0.00
0.00
0.00
0.00
0.00
0.00
0.00
0.00
0.00
0.01
0.01
0.00
0.01
0.00
0.00
0.01
0.00
0.01
0.01
0.01
0.01
0.01
0.01
0.00
0.01
0.00
0.01
0.01
0.04
0.09
0.15
0.34
0.20
0.16
0.00
0.04
0.04
0.07
0.07
0.07
0.12
0.08
0.14
0.23
0.01
0.54
0.16
0.64
0.82
0.84
0.60
0.48
0.16
0.14
0.12
0.07
0.06
0.04
0.04
0.03
0.03
0.02
0.02
0.02
0.02
0.01
0.01
0.01
0.00
0.01
0.01
0.01
0.00
0.03
0.03
0.07
0.08
0.08
0.14
0.20
0.23
0.28
0.30
0.28
0.20
0.14
0.08
0.04
0.03
0.00
0.01
0.01
0.00
0.00
0.01
0.00
0.01
0.01
0.01
0.01
0.00
0.01
0.01
0.01
0.00
0.00
0.00
0.00
0.00
0.01
0.00
0.00
0.00
0.00
0.00
0.00
0.00
0.00
0.01
0.00
0.00
0.00
0.00
0.00
0.01
0.01
0.01
0.00
0.00
0.00
0.06
0.12
0.38
0.16
0.12
0.00
0.03
0.02
0.04
0.02
0.02
0.03
0.03
0.02
0.07
0.25
0.62
0.71
0.61
0.77
0.77
0.58
0.41
0.06
0.08
0.06
0.04
0.04
0.03
0.03
0.03
0.03
0.04
0.03
0.03
0.03
0.03
0.03
0.04
0.04
0.04
0.06
0.08
0.12
0.12
0.12
0.16
0.20
0.28
0.30
0.28
0.32
0.35
0.28
0.28
0.16
0.12
0.07
0.03
0.03
0.01
0.01
0.01
0.01
0.01
0.01
0.00
0.00
0.00
0.00
0.00
0.00
0.00
0.00
0.00
0.01
0.00
0.04
0.04
0.04
0.04
0.00
0.01
0.04
0.00
0.00
0.00
0.00
0.00
0.00
0.00
0.01
0.01
0.00
0.00
0.00
0.01
0.00
0.04
0.15
0.09
0.22
0.43
0.26
0.32
0.16
0.00
0.00
0.02
0.00
0.00
0.01
0.01
0.00
0.03
0.20
0.48
0.90
0.54
0.63
0.61
0.58
0.54
0.02
0.12
0.04
0.03
0.03
0.03
0.01
0.02
0.02
0.01
0.02
0.02
0.03
0.03
0.03
0.04
0.06
0.12
0.08
0.15
0.14
0.16
0.20
0.30
0.30
0.35
0.32
0.32
0.30
0.30
0.28
0.23
0.16
0.12
0.07
0.02
0.02
0.01
0.02
0.01
0.01
0.00
0.00
0.00
0.01
0.01
0.01
0.01
0.01
0.00
0.00
0.00
0.00
0.00
0.01
0.00
0.00
0.00
0.00
0.00
0.00
0.00
0.01
0.00
0.00
0.00
0.01
0.00
0.00
0.00
0.01
0.00
0.00
0.00
0.04
0.15
0.09
0.12
0.44
0.30
0.28
0.20
0.00
0.01
0.02
0.01
0.01
0.03
0.03
0.03
0.12
0.06
0.34
0.81
0.58
0.62
0.65
0.58
0.56
0.04
0.12
0.06
0.03
0.03
0.04
0.02
0.02
0.00
0.02
0.03
0.01
0.02
0.01
0.01
0.01
0.03
0.01
0.03
0.03
0.03
0.04
0.06
0.06
0.06
0.12
0.08
0.12
0.12
0.12
0.12
0.12
0.07
0.04
0.03
0.00
0.01
0.01
0.00
0.00
0.00
0.00
0.00
0.00
0.01
0.01
0.00
0.01
0.00
0.00
0.01
0.01
0.00
0.00
0.00
0.00
0.00
0.00
0.01
0.01
0.00
0.01
0.01
0.00
0.01
0.00
0.00
0.01
0.00
0.00
0.00
0.01
0.01
0.00
0.00
0.06
0.04
0.16
0.16
0.42
0.25
0.22
0.06
0.01
0.00
0.02
0.00
0.00
0.02
0.01
0.03
0.06
0.26
0.55
0.70
0.62
0.84
0.80
0.60
0.53
0.12
0.12
0.08
0.08
0.06
0.03
0.03
0.03
0.02
0.02
0.02
0.00
0.01
0.01
0.00
0.01
0.00
0.01
0.01
0.01
0.01
0.02
0.02
0.04
0.07
0.08
0.12
0.15
0.16
0.23
0.28
0.23
0.16
0.12
0.08
0.04
0.03
0.02
0.01
0.01
0.00
0.01
0.01
0.00
0.01
0.00
0.00
0.00
0.00
0.00
0.00
0.00
0.00
0.01
0.01
0.01
0.00
0.01
0.04
0.04
0.00
0.01
0.00
0.00
0.04
0.01
0.01
0.04
0.01
0.01
0.00
0.01
0.04
0.01
0.01
0.01
0.04
0.01
0.06
0.16
0.12
0.28
0.32
0.39
0.32
0.22
0.01
0.01
0.00
0.00
0.00
0.00
0.00
0.01
0.00
0.00
0.28
0.88
0.23
0.63
0.63
0.70
0.54
0.07
0.06
0.04
0.03
0.02
0.01
0.02
0.01
0.01
0.01
0.01
0.00
0.01
0.01
0.01
0.02
0.01
0.03
0.03
0.07
0.06
0.08
0.12
0.23
0.25
0.32
0.35
0.35
0.35
0.41
0.45
0.35
0.32
0.23
0.15
0.06
0.04
0.01
0.00
0.00
0.01
0.01
0.00
0.00
0.00
0.01
0.00
0.01
0.00
0.00
0.01
0.00
0.00
0.00
0.00
0.00
0.00
0.00
0.01
0.01
0.04
0.04
0.04
0.01
0.04
0.04
0.06
0.09
0.01
0.09
0.09
0.09
0.06
0.06
0.06
0.04
0.06
0.01
0.00
0.04
0.20
0.12
0.25
0.28
0.39
0.38
0.26
0.01
0.00
0.01
0.00
0.00
0.00
0.01
0.00
0.03
0.06
0.09
0.70
0.06
0.59
0.58
0.63
0.55
0.30
0.15
0.08
0.12
0.07
0.08
0.04
0.06
0.04
0.03
0.03
0.03
0.03
0.04
0.02
0.03
0.03
0.03
0.04
0.06
0.07
0.07
0.12
0.12
0.20
0.14
0.14
0.20
0.23
0.20
0.23
0.20
0.15
0.12
0.07
0.06
0.01
0.01
0.01
0.00
0.01
0.01
0.00
0.01
0.01
0.01
0.01
0.00
0.01
0.01
0.00
0.01
0.00
0.00
0.00
0.00
0.00
0.00
0.01
0.00
0.00
0.00
0.00
0.00
0.00
0.00
0.00
0.00
0.00
0.00
0.00
0.00
0.00
0.00
0.00
0.01
0.01
0.04
0.16
0.16
0.28
0.34
0.43
0.38
0.28
0.15
0.01
0.00
0.01
0.01
0.01
0.01
0.00
0.03
0.03
0.16
0.68
0.25
0.60
0.62
0.70
0.59
0.41
0.07
0.04
0.04
0.03
0.02
0.00
0.01
0.01
0.00
0.01
0.01
0.00
0.00
0.00
0.00
0.00
0.00
0.00
0.00
0.00
0.00
0.00
0.00
0.03
0.02
0.04
0.07
0.07
0.12
0.16
0.20
0.16
0.15
0.08
0.06
0.03
0.01
0.00
0.00
0.00
0.00
0.00
0.00
0.00
0.00
0.01
0.00
0.01
0.00
0.00
0.01
0.01
0.00
0.01
0.01
0.00
0.00
0.01
0.00
0.01
0.01
0.00
0.00
0.00
0.00
0.00
0.00
0.00
0.00
0.00
0.00
0.00
0.00
0.00
0.00
0.00
0.01
0.12
0.12
0.22
0.22
0.48
0.28
0.28
0.15
0.00
0.00
0.02
0.00
0.00
0.02
0.02
0.03
0.06
0.22
0.55
0.81
0.61
0.84
0.70
0.61
0.53
0.07
0.07
0.04
0.04
0.03
0.02
0.01
0.00
0.01
0.01
0.00
0.00
0.00
0.00
0.00
0.00
0.01
0.00
0.01
0.01
0.01
0.01
0.03
0.03
0.06
0.07
0.12
0.08
0.12
0.15
0.14
0.12
0.12
0.03
0.01
0.00
0.00
0.04
0.06
0.09
0.12
0.06
0.09
0.04
0.12
0.09
0.09
0.12
0.09
0.15
0.09
0.12
0.09
0.12
0.09
0.09
0.12
0.09
0.06
0.06
0.06
0.06
0.06
0.09
0.01
0.04
0.06
0.04
0.01
0.01
0.00
0.01
0.04
0.04
0.01
0.01
0.04
0.06
0.20
0.15
0.28
0.32
0.47
0.32
0.26
0.12
0.00
0.00
0.01
0.00
0.00
0.00
0.01
0.00
0.03
0.30
0.71
0.61
0.61
0.68
0.72
0.54
0.25
0.07
0.06
0.03
0.02
0.02
0.02
0.00
0.01
0.01
0.00
0.00
0.01
0.01
0.00
0.00
0.00
0.00
0.00
0.02
0.03
0.03
0.06
0.12
0.15
0.20
0.23
0.25
0.28
0.28
0.30
0.30
0.28
0.23
0.12
0.07
0.03
0.00
0.01
0.01
0.00
0.00
0.01
0.04
0.01
0.00
0.01
0.04
0.04
0.04
0.04
0.06
0.06
0.06
0.04
0.04
0.06
0.04
0.09
0.04
0.01
0.00
0.04
0.04
0.04
0.01
0.00
0.00
0.00
0.00
0.00
0.00
0.01
0.00
0.00
0.00
0.00
0.00
0.00
0.00
0.12
0.01
0.16
0.42
0.32
0.30
0.20
0.00
0.00
0.01
0.01
0.01
0.02
0.02
0.03
0.03
0.01
0.20
0.81
0.25
0.58
0.60
0.62
0.55
0.16
0.14
0.08
0.12
0.07
0.06
0.04
0.06
0.06
0.04
0.06
0.04
0.04
0.04
0.06
0.04
0.07
0.07
0.07
0.07
0.12
0.12
0.15
0.14
0.16
0.15
0.16
0.14
0.16
0.16
0.16
0.12
0.12
0.07
0.04
0.01
0.01
0.00
0.00
0.01
0.04
0.04
0.01
0.06
0.12
0.01
0.04
0.09
0.06
0.09
0.06
0.09
0.06
0.06
0.06
0.06
0.04
0.09
0.09
0.06
0.01
0.01
0.04
0.01
0.01
0.00
0.00
0.00
0.00
0.00
0.00
0.00
0.00
0.00
0.00
0.12
0.12
0.22
0.26
0.44
0.32
0.30
0.16
0.00
0.00
0.00
0.00
0.01
0.02
0.03
0.03
0.06
0.15
0.69
0.04
0.63
0.63
0.73
0.59
0.48
0.12
0.12
0.08
0.06
0.06
0.04
0.03
0.02
0.01
0.00
0.00
0.01
0.00
0.00
0.00
0.00
0.01
0.00
0.01
0.00
0.00
0.01
0.01
0.00
0.02
0.03
0.07
0.07
0.15
0.16
0.16
0.20
0.16
0.08
0.06
0.02
0.00
0.00
0.00
0.00
0.00
0.00
0.01
0.04
0.01
0.06
0.06
0.06
0.06
0.12
0.09
0.09
0.06
0.04
0.06
0.06
0.09
0.04
0.01
0.01
0.00
0.01
0.00
0.00
0.00
0.00
0.00
0.01
0.00
0.00
0.01
0.00
0.00
0.01
0.01
0.00
0.00
0.00
0.00
0.00
0.09
0.04
0.20
0.28
0.38
0.26
0.16
0.04
0.01
0.01
0.00
0.00
0.01
0.01
0.00
0.01
0.01
0.32
0.87
0.14
0.63
0.70
0.81
0.55
0.12
0.12
0.07
0.06
0.03
0.03
0.02
0.02
0.02
0.02
0.01
0.00
0.00
0.00
0.01
0.00
0.00
0.00
0.01
0.01
0.03
0.03
0.03
0.07
0.08
0.12
0.16
0.16
0.25
0.28
0.30
0.35
0.30
0.28
0.16
0.12
0.08
0.06
0.03
0.03
0.02
0.01
0.02
0.01
0.00
0.00
0.00
0.00
0.01
0.00
0.00
0.00
0.00
0.00
0.00
0.00
0.01
0.00
0.00
0.04
0.00
0.04
0.00
0.01
0.00
0.00
0.00
0.00
0.00
0.00
0.00
0.00
0.00
0.00
0.00
0.01
0.01
0.01
0.00
0.01
0.01
0.20
0.12
0.26
0.42
0.34
0.28
0.22
0.00
0.00
0.00
0.00
0.01
0.00
0.00
0.00
0.02
0.00
0.26
0.87
0.35
0.63
0.62
0.73
0.54
0.15
0.15
0.08
0.08
0.04
0.04
0.03
0.06
0.04
0.04
0.03
0.03
0.04
0.04
0.03
0.03
0.03
0.03
0.06
0.08
0.08
0.12
0.15
0.20
0.23
0.25
0.28
0.32
0.28
0.30
0.28
0.28
0.20
0.15
0.08
0.06
0.02
0.00
0.00
0.00
0.00
0.00
0.00
0.00
0.00
0.01
0.00
0.01
0.01
0.00
0.00
0.01
0.04
0.06
0.04
0.04
0.04
0.06
0.01
0.01
0.00
0.01
0.00
0.01
0.00
0.00
0.00
0.00
0.00
0.00
0.00
0.00
0.01
0.01
0.00
0.00
0.00
0.06
0.04
0.06
0.38
0.25
0.28
0.15
0.01
0.00
0.03
0.01
0.01
0.02
0.02
0.03
0.12
0.06
0.39
0.83
0.59
0.63
0.63
0.58
0.54
0.08
0.15
0.12
0.12
0.08
0.08
0.07
0.07
0.06
0.06
0.07
0.06
0.06
0.06
0.07
0.07
0.08
0.06
0.07
0.07
0.12
0.15
0.12
0.12
0.15
0.16
0.14
0.15
0.14
0.20
0.16
0.16
0.15
0.07
0.04
0.02
0.01
0.00
0.01
0.00
0.00
0.00
0.00
0.00
0.00
0.01
0.00
0.00
0.00
0.01
0.01
0.00
0.00
0.00
0.01
0.00
0.00
0.00
0.00
0.00
0.00
0.00
0.00
0.01
0.01
0.01
0.00
0.00
0.00
0.01
0.01
0.00
0.01
0.01
0.04
0.00
0.06
0.34
0.20
0.22
0.09
0.00
0.02
0.03
0.03
0.03
0.04
0.04
0.04
0.06
0.00
0.22
0.87
0.58
0.75
0.70
0.67
0.58
0.08
0.12
0.08
0.07
0.07
0.04
0.03
0.03
0.03
0.03
0.03
0.03
0.02
0.00
0.00
0.00
0.01
0.01
0.00
0.00
0.01
0.00
0.02
0.03
0.06
0.08
0.12
0.15
0.14
0.23
0.28
0.28
0.20
0.14
0.07
0.04
0.02
0.01
0.00
0.00
0.00
0.00
0.01
0.00
0.00
0.00
0.00
0.00
0.00
0.01
0.00
0.00
0.01
0.00
0.01
0.04
0.04
0.01
0.00
0.04
0.01
0.01
0.00
0.00
0.00
0.01
0.00
0.00
0.00
0.00
0.00
0.00
0.00
0.00
0.01
0.00
0.00
0.00
0.00
0.12
0.04
0.16
0.38
0.28
0.25
0.12
0.00
0.01
0.02
0.01
0.02
0.02
0.02
0.02
0.02
0.06
0.28
0.92
0.56
0.68
0.63
0.63
0.54
0.06
0.12
0.07
0.06
0.07
0.04
0.03
0.04
0.03
0.03
0.03
0.03
0.02
0.02
0.02
0.03
0.01
0.02
0.02
0.03
0.03
0.04
0.06
0.07
0.12
0.15
0.16
0.16
0.16
0.20
0.23
0.23
0.14
0.08
0.03
0.02
0.01
0.00
0.00
0.00
0.00
0.00
0.00
0.00
0.00
0.00
0.00
0.00
0.00
0.00
0.00
0.00
0.00
0.00
0.01
0.04
0.04
0.04
0.01
0.04
0.01
0.04
0.01
0.01
0.00
0.00
0.04
0.01
0.01
0.00
0.01
0.00
0.01
0.01
0.00
0.00
0.01
0.00
0.00
0.01
0.01
0.09
0.09
0.22
0.25
0.43
0.26
0.26
0.06
0.00
0.01
0.01
0.01
0.00
0.01
0.00
0.00
0.04
0.25
0.68
0.55
0.58
0.63
0.70
0.54
0.30
0.08
0.12
0.12
0.06
0.06
0.06
0.06
0.06
0.04
0.03
0.03
0.03
0.06
0.04
0.04
0.06
0.06
0.07
0.12
0.15
0.15
0.16
0.23
0.28
0.30
0.32
0.32
0.35
0.30
0.32
0.28
0.23
0.14
0.08
0.04
0.02
0.00
0.00
0.00
0.00
0.00
0.00
0.01
0.00
0.00
0.00
0.00
0.00
0.01
0.00
0.00
0.00
0.00
0.00
0.00
0.00
0.00
0.01
0.00
0.01
0.00
0.01
0.01
0.01
0.00
0.00
0.01
0.00
0.00
0.01
0.00
0.00
0.04
0.01
0.12
0.39
0.30
0.28
0.22
0.01
0.00
0.01
0.01
0.02
0.03
0.03
0.03
0.12
0.00
0.16
0.81
0.54
0.62
0.62
0.62
0.58
0.12
0.23
0.12
0.12
0.12
0.07
0.07
0.08
0.08
0.07
0.07
0.07
0.07
0.07
0.08
0.07
0.07
0.06
0.07
0.08
0.12
0.12
0.12
0.15
0.16
0.20
0.20
0.16
0.20
0.23
0.23
0.16
0.15
0.12
0.04
0.02
0.01
0.01
0.01
0.00
0.00
0.00
0.00
0.00
0.00
0.00
0.00
0.00
0.00
0.00
0.00
0.01
0.00
0.00
0.00
0.00
0.01
0.00
0.00
0.00
0.00
0.00
0.00
0.00
0.00
0.00
0.01
0.01
0.00
0.00
0.00
0.00
0.01
0.01
0.00
0.04
0.30
0.22
0.16
0.04
0.01
0.02
0.03
0.03
0.03
0.03
0.03
0.03
0.03
0.01
0.26
0.85
0.53
0.63
0.65
0.73
0.56
0.12
0.08
0.07
0.06
0.06
0.03
0.03
0.03
0.03
0.03
0.03
0.02
0.01
0.02
0.02
0.02
0.03
0.00
0.01
0.02
0.03
0.03
0.04
0.06
0.08
0.15
0.16
0.20
0.23
0.28
0.28
0.30
0.23
0.14
0.08
0.03
0.02
0.01
0.00
0.01
0.00
0.00
0.01
0.06
0.06
0.09
0.04
0.04
0.04
0.06
0.06
0.12
0.06
0.01
0.04
0.04
0.01
0.01
0.00
0.01
0.01
0.00
0.00
0.00
0.00
0.00
0.00
0.00
0.00
0.00
0.00
0.00
0.00
0.00
0.00
0.01
0.09
0.15
0.15
0.43
0.25
0.26
0.06
0.01
0.01
0.03
0.02
0.01
0.02
0.03
0.02
0.07
0.04
0.32
0.85
0.58
0.66
0.63
0.60
0.56
0.08
0.14
0.08
0.06
0.06
0.03
0.03
0.04
0.03
0.02
0.02
0.01
0.02
0.02
0.02
0.02
0.02
0.02
0.03
0.04
0.04
0.06
0.08
0.12
0.14
0.20
0.20
0.20
0.23
0.25
0.20
0.14
0.12
0.06
0.03
0.00
0.00
0.04
0.01
0.01
0.01
0.06
0.04
0.01
0.01
0.00
0.00
0.00
0.00
0.01
0.00
0.00
0.01
0.01
0.01
0.01
0.01
0.01
0.01
0.01
0.01
0.00
0.00
0.01
0.00
0.01
0.00
0.00
0.00
0.01
0.00
0.01
0.01
0.04
0.15
0.09
0.20
0.44
0.30
0.32
0.22
0.01
0.01
0.01
0.00
0.00
0.00
0.01
0.00
0.03
0.00
0.26
0.85
0.48
0.58
0.60
0.62
0.54
0.12
0.15
0.08
0.06
0.04
0.04
0.03
0.03
0.03
0.02
0.02
0.03
0.02
0.02
0.01
0.02
0.02
0.04
0.03
0.07
0.12
0.12
0.12
0.16
0.25
0.23
0.25
0.30
0.30
0.30
0.25
0.16
0.15
0.07
0.04
0.01
0.01
0.00
0.00
0.00
0.00
0.04
0.06
0.04
0.04
0.01
0.01
0.01
0.01
0.01
0.00
0.00
0.01
0.01
0.04
0.06
0.04
0.06
0.04
0.01
0.01
0.00
0.01
0.01
0.01
0.01
0.00
0.00
0.00
0.01
0.00
0.01
0.04
0.15
0.12
0.44
0.32
0.32
0.22
0.04
0.00
0.01
0.01
0.00
0.02
0.02
0.02
0.12
0.04
0.30
0.81
0.55
0.59
0.63
0.61
0.58
0.12
0.14
0.12
0.12
0.07
0.06
0.06
0.06
0.04
0.04
0.03
0.03
0.03
0.03
0.03
0.02
0.02
0.02
0.03
0.03
0.02
0.03
0.03
0.04
0.06
0.12
0.08
0.08
0.12
0.14
0.14
0.15
0.08
0.06
0.03
0.01
0.01
0.00
0.00
0.01
0.01
0.01
0.01
0.04
0.01
0.01
0.04
0.00
0.01
0.01
0.01
0.01
0.01
0.01
0.00
0.00
0.00
0.00
0.00
0.00
0.00
0.00
0.00
0.01
0.00
0.00
0.00
0.01
0.01
0.00
0.00
0.01
0.00
0.00
0.01
0.06
0.38
0.16
0.25
0.04
0.01
0.01
0.03
0.02
0.02
0.04
0.03
0.02
0.04
0.20
0.47
0.90
0.62
0.84
0.73
0.63
0.55
0.07
0.08
0.06
0.04
0.03
0.02
0.02
0.00
0.00
0.01
0.00
0.00
0.00
0.00
0.00
0.00
0.01
0.01
0.04
0.01
0.04
0.00
0.00
0.00
0.02
0.03
0.03
0.04
0.06
0.12
0.12
0.12
0.07
0.03
0.02
0.00
0.00
0.00
0.04
0.04
0.01
0.01
0.00
0.00
0.00
0.00
0.00
0.00
0.01
0.01
0.04
0.06
0.06
0.09
0.09
0.09
0.12
0.09
0.06
0.09
0.06
0.06
0.06
0.04
0.01
0.01
0.04
0.04
0.04
0.01
0.01
0.06
0.04
0.01
0.04
0.01
0.04
0.06
0.04
0.06
0.04
0.04
0.06
0.04
0.15
0.20
0.20
0.28
0.38
0.42
0.25
0.15
0.00
0.01
0.01
0.01
0.01
0.00
0.00
0.00
0.01
0.01
0.39
0.88
0.14
0.62
0.63
0.73
0.56
0.08
0.06
0.03
0.02
0.02
0.01
0.01
0.00
0.01
0.00
0.00
0.00
0.00
0.00
0.00
0.00
0.00
0.00
0.01
0.00
0.03
0.03
0.04
0.08
0.15
0.16
0.20
0.23
0.23
0.28
0.30
0.28
0.23
0.14
0.08
0.03
0.02
0.00
0.00
0.00
0.00
0.00
0.00
0.00
0.00
0.00
0.00
0.04
0.00
0.01
0.01
0.01
0.01
0.01
0.04
0.06
0.06
0.01
0.00
0.00
0.01
0.01
0.01
0.04
0.00
0.01
0.00
0.01
0.01
0.01
0.00
0.01
0.04
0.00
0.04
0.01
0.04
0.15
0.16
0.20
0.25
0.39
0.42
0.28
0.22
0.00
0.00
0.00
0.00
0.00
0.00
0.00
0.00
0.02
0.00
0.20
0.71
0.26
0.57
0.58
0.63
0.54
0.23
0.07
0.03
0.04
0.03
0.01
0.02
0.02
0.00
0.01
0.01
0.02
0.02
0.02
0.00
0.01
0.03
0.03
0.07
0.07
0.12
0.12
0.15
0.14
0.16
0.20
0.28
0.28
0.25
0.25
0.23
0.20
0.15
0.08
0.04
0.03
0.01
0.01
0.00
0.00
0.00
0.00
0.01
0.01
0.01
0.01
0.00
0.00
0.01
0.00
0.00
0.01
0.01
0.02
0.02
0.00
0.00
0.00
0.01
0.00
0.00
0.01
0.00
0.01
0.01
0.00
0.00
0.01
0.01
0.01
0.01
0.00
0.01
0.00
0.04
0.04
0.15
0.06
0.34
0.25
0.12
0.06
0.02
0.02
0.03
0.03
0.03
0.03
0.03
0.03
0.07
0.15
0.49
0.83
0.58
0.63
0.70
0.61
0.57
0.07
0.12
0.07
0.06
0.04
0.04
0.03
0.02
0.03
0.02
0.02
0.01
0.00
0.01
0.01
0.01
0.00
0.00
0.00
0.00
0.00
0.00
0.00
0.01
0.00
0.02
0.03
0.06
0.07
0.12
0.08
0.12
0.08
0.04
0.01
0.00
0.00
0.00
0.00
0.04
0.06
0.01
0.04
0.04
0.06
0.09
0.04
0.04
0.01
0.04
0.04
0.06
0.01
0.04
0.00
0.00
0.00
0.00
0.00
0.00
0.00
0.00
0.00
0.00
0.00
0.00
0.00
0.00
0.00
0.01
0.01
0.00
0.12
0.04
0.16
0.32
0.30
0.25
0.16
0.01
0.02
0.01
0.01
0.01
0.02
0.02
0.03
0.03
0.00
0.38
0.92
0.54
0.80
0.82
0.82
0.58
0.12
0.12
0.07
0.04
0.03
0.03
0.03
0.01
0.01
0.01
0.01
0.00
0.00
0.00
0.00
0.00
0.00
0.00
0.00
0.00
0.00
0.00
0.00
0.01
0.02
0.04
0.06
0.08
0.12
0.16
0.14
0.14
0.08
0.06
0.02
0.01
0.00
0.00
0.01
0.01
0.01
0.01
0.04
0.00
0.04
0.04
0.06
0.09
0.06
0.12
0.06
0.09
0.12
0.12
0.09
0.12
0.15
0.15
0.15
0.09
0.15
0.09
0.09
0.04
0.06
0.01
0.04
0.01
0.04
0.01
0.01
0.00
0.00
0.00
0.00
0.12
0.04
0.16
0.12
0.39
0.25
0.12
0.00
0.03
0.03
0.04
0.03
0.02
0.03
0.04
0.03
0.06
0.20
0.51
0.87
0.61
0.83
0.70
0.60
0.56
0.08
0.12
0.07
0.04
0.04
0.02
0.03
0.02
0.02
0.00
0.01
0.00
0.00
0.00
0.01
0.01
0.00
0.01
0.00
0.02
0.03
0.07
0.07
0.15
0.14
0.23
0.28
0.25
0.25
0.25
0.25
0.16
0.12
0.07
0.03
0.00
0.00
0.00
0.00
0.00
0.01
0.00
0.00
0.00
0.00
0.00
0.00
0.00
0.00
0.00
0.00
0.01
0.04
0.01
0.04
0.01
0.04
0.01
0.01
0.04
0.01
0.00
0.00
0.00
0.00
0.01
0.00
0.00
0.00
0.01
0.01
0.01
0.01
0.00
0.00
0.01
0.01
0.06
0.34
0.22
0.20
0.04
0.01
0.03
0.04
0.04
0.06
0.07
0.04
0.06
0.08
0.00
0.15
0.81
0.48
0.60
0.63
0.63
0.56
0.20
0.20
0.12
0.12
0.07
0.07
0.06
0.06
0.04
0.06
0.04
0.03
0.03
0.03
0.06
0.06
0.04
0.07
0.12
0.12
0.14
0.20
0.25
0.35
0.35
0.41
0.43
0.43
0.45
0.43
0.38
0.32
0.30
0.23
0.14
0.08
0.08
0.07
0.03
0.03
0.03
0.02
0.03
0.02
0.03
0.01
0.03
0.03
0.02
0.02
0.02
0.02
0.02
0.03
0.02
0.02
0.00
0.02
0.02
0.02
0.01
0.02
0.02
0.03
0.03
0.03
0.04
0.04
0.06
0.06
0.04
0.03
0.04
0.02
0.00
0.01
0.04
0.30
0.22
0.22
0.09
0.00
0.00
0.03
0.03
0.03
0.04
0.03
0.03
0.08
0.01
0.30
0.85
0.58
0.62
0.68
0.62
0.58
0.12
0.14
0.12
0.12
0.06
0.04
0.04
0.04
0.03
0.03
0.03
0.02
0.02
0.00
0.01
0.00
0.01
0.00
0.00
0.01
0.00
0.00
0.01
0.02
0.03
0.04
0.06
0.12
0.15
0.16
0.23
0.15
0.12
0.08
0.04
0.03
0.02
0.00
0.00
0.00
0.01
0.00
0.01
0.00
0.00
0.00
0.00
0.00
0.00
0.00
0.01
0.00
0.00
0.00
0.00
0.00
0.01
0.00
0.01
0.00
0.00
0.00
0.01
0.01
0.01
0.00
0.01
0.02
0.01
0.02
0.02
0.01
0.02
0.01
0.00
0.09
0.22
0.30
0.20
0.16
0.00
0.02
0.02
0.04
0.04
0.03
0.04
0.03
0.04
0.08
0.25
0.67
0.62
0.63
0.87
0.84
0.58
0.43
0.12
0.12
0.08
0.06
0.04
0.02
0.02
0.02
0.03
0.01
0.00
0.00
0.01
0.00
0.01
0.00
0.00
0.00
0.00
0.01
0.00
0.01
0.03
0.04
0.07
0.12
0.12
0.14
0.16
0.20
0.20
0.15
0.08
0.06
0.02
0.01
0.01
0.00
0.00
0.01
0.00
0.00
0.00
0.01
0.01
0.04
0.04
0.04
0.04
0.04
0.06
0.06
0.06
0.06
0.12
0.06
0.09
0.06
0.06
0.06
0.04
0.01
0.00
0.00
0.01
0.00
0.00
0.00
0.01
0.00
0.01
0.00
0.00
0.01
0.01
0.00
0.00
0.00
0.09
0.04
0.20
0.16
0.38
0.26
0.16
0.01
0.01
0.01
0.03
0.01
0.01
0.02
0.02
0.02
0.03
0.16
0.44
0.91
0.58
0.77
0.63
0.61
0.55
0.03
0.07
0.03
0.02
0.02
0.00
0.00
0.01
0.00
0.01
0.00
0.00
0.00
0.00
0.00
0.00
0.01
0.01
0.00
0.02
0.03
0.04
0.06
0.12
0.14
0.20
0.20
0.23
0.25
0.28
0.25
0.20
0.12
0.06
0.03
0.00
0.00
0.01
0.01
0.04
0.01
0.04
0.01
0.00
0.01
0.01
0.04
0.06
0.01
0.01
0.04
0.01
0.04
0.04
0.06
0.01
0.04
0.01
0.01
0.01
0.00
0.00
0.00
0.00
0.00
0.01
0.01
0.01
0.01
0.00
0.00
0.00
0.04
0.15
0.09
0.20
0.34
0.39
0.39
0.28
0.16
0.01
0.00
0.00
0.00
0.00
0.01
0.00
0.01
0.04
0.22
0.70
0.43
0.59
0.60
0.65
0.56
0.28
0.12
0.12
0.07
0.07
0.07
0.06
0.03
0.04
0.04
0.04
0.04
0.03
0.02
0.02
0.02
0.03
0.03
0.04
0.03
0.08
0.12
0.12
0.12
0.14
0.20
0.23
0.20
0.16
0.20
0.20
0.14
0.12
0.07
0.03
0.01
0.00
0.00
0.00
0.00
0.00
0.01
0.01
0.00
0.00
0.04
0.00
0.00
0.01
0.00
0.00
0.04
0.00
0.00
0.01
0.01
0.00
0.01
0.00
0.01
0.01
0.06
0.04
0.00
0.01
0.01
0.00
0.01
0.00
0.00
0.00
0.00
0.00
0.01
0.00
0.04
0.00
0.12
0.26
0.30
0.25
0.16
0.00
0.01
0.02
0.03
0.04
0.04
0.04
0.04
0.07
0.06
0.15
0.69
0.16
0.60
0.62
0.70
0.58
0.45
0.07
0.06
0.06
0.04
0.03
0.01
0.01
0.01
0.01
0.00
0.01
0.00
0.00
0.00
0.00
0.01
0.00
0.01
0.00
0.01
0.01
0.00
0.00
0.00
0.01
0.01
0.03
0.03
0.07
0.12
0.15
0.08
0.07
0.04
0.02
0.01
0.01
0.01
0.00
0.00
0.00
0.01
0.02
0.01
0.02
0.03
0.02
0.03
0.02
0.02
0.03
0.03
0.03
0.03
0.03
0.03
0.03
0.03
0.03
0.03
0.03
0.02
0.03
0.04
0.04
0.03
0.03
0.03
0.04
0.06
0.04
0.04
0.04
0.01
0.00
0.00
0.01
0.26
0.09
0.09
0.01
0.03
0.04
0.07
0.04
0.04
0.04
0.06
0.06
0.06
0.16
0.47
0.89
0.62
0.86
0.75
0.63
0.55
0.07
0.12
0.06
0.06
0.03
0.02
0.02
0.02
0.00
0.00
0.01
0.00
0.00
0.00
0.00
0.00
0.00
0.01
0.00
0.00
0.00
0.00
0.01
0.02
0.03
0.07
0.12
0.12
0.14
0.16
0.23
0.20
0.14
0.12
0.06
0.03
0.02
0.01
0.01
0.01
0.00
0.00
0.00
0.00
0.00
0.00
0.01
0.00
0.00
0.00
0.00
0.00
0.00
0.00
0.00
0.00
0.00
0.00
0.00
0.00
0.01
0.00
0.00
0.01
0.00
0.00
0.00
0.00
0.00
0.00
0.00
0.00
0.00
0.00
0.00
0.00
0.01
0.16
0.06
0.26
0.39
0.34
0.30
0.16
0.00
0.01
0.00
0.00
0.00
0.01
0.03
0.01
0.02
0.00
0.30
0.89
0.45
0.63
0.68
0.77
0.55
0.15
0.15
0.12
0.08
0.06
0.04
0.06
0.04
0.03
0.03
0.03
0.03
0.02
0.03
0.02
0.02
0.03
0.03
0.06
0.04
0.07
0.07
0.12
0.15
0.16
0.23
0.25
0.28
0.28
0.25
0.28
0.20
0.14
0.15
0.03
0.02
0.00
0.00
0.00
0.00
0.01
0.04
0.01
0.04
0.00
0.01
0.06
0.06
0.01
0.06
0.09
0.09
0.12
0.09
0.01
0.04
0.06
0.06
0.06
0.04
0.01
0.00
0.01
0.06
0.09
0.01
0.00
0.04
0.04
0.04
0.01
0.01
0.04
0.01
0.04
0.04
0.01
0.06
0.15
0.16
0.20
0.42
0.26
0.28
0.15
0.00
0.00
0.01
0.01
0.01
0.00
0.01
0.01
0.06
0.15
0.38
0.89
0.55
0.61
0.62
0.60
0.55
0.03
0.08
0.06
0.03
0.03
0.02
0.03
0.03
0.01
0.01
0.01
0.01
0.00
0.00
0.01
0.01
0.00
0.03
0.02
0.06
0.04
0.12
0.12
0.15
0.16
0.20
0.14
0.15
0.14
0.16
0.20
0.12
0.07
0.03
0.01
0.01
0.00
0.00
0.00
0.00
0.01
0.00
0.01
0.00
0.00
0.00
0.00
0.00
0.01
0.01
0.00
0.01
0.00
0.00
0.00
0.00
0.00
0.00
0.00
0.00
0.00
0.00
0.00
0.00
0.00
0.00
0.00
0.00
0.00
0.00
0.00
0.00
0.00
0.00
0.04
0.06
0.16
0.16
0.39
0.28
0.26
0.15
0.00
0.01
0.03
0.02
0.01
0.02
0.03
0.03
0.12
0.12
0.50
0.81
0.58
0.63
0.66
0.58
0.54
0.04
0.12
0.06
0.03
0.03
0.01
0.00
0.01
0.01
0.00
0.00
0.00
0.00
0.00
0.00
0.00
0.01
0.00
0.00
0.00
0.00
0.00
0.00
0.01
0.03
0.03
0.06
0.07
0.12
0.16
0.20
0.14
0.15
0.08
0.04
0.03
0.01
0.01
0.01
0.00
0.00
0.00
0.01
0.01
0.00
0.00
0.01
0.01
0.01
0.04
0.04
0.01
0.04
0.06
0.04
0.06
0.06
0.06
0.06
0.06
0.06
0.06
0.04
0.04
0.01
0.01
0.01
0.00
0.00
0.00
0.00
0.00
0.00
0.00
0.00
0.12
0.06
0.20
0.32
0.38
0.28
0.20
0.00
0.01
0.01
0.03
0.02
0.02
0.03
0.03
0.04
0.02
0.28
0.87
0.30
0.68
0.81
0.83
0.58
0.20
0.12
0.15
0.07
0.04
0.03
0.03
0.01
0.02
0.02
0.01
0.00
0.01
0.01
0.00
0.00
0.00
0.01
0.00
0.01
0.01
0.00
0.01
0.03
0.06
0.06
0.12
0.12
0.15
0.23
0.23
0.20
0.16
0.12
0.03
0.02
0.01
0.00
0.01
0.04
0.04
0.01
0.04
0.04
0.04
0.04
0.04
0.04
0.06
0.04
0.09
0.04
0.06
0.09
0.06
0.04
0.04
0.04
0.04
0.04
0.00
0.01
0.00
0.00
0.00
0.00
0.00
0.00
0.00
0.00
0.01
0.00
0.01
0.00
0.01
0.00
0.01
0.01
0.12
0.06
0.20
0.20
0.39
0.25
0.16
0.04
0.02
0.02
0.03
0.03
0.01
0.02
0.02
0.03
0.06
0.16
0.52
0.81
0.58
0.80
0.70
0.58
0.53
0.08
0.12
0.08
0.08
0.04
0.03
0.03
0.03
0.03
0.02
0.01
0.01
0.00
0.00
0.00
0.01
0.01
0.02
0.01
0.03
0.03
0.06
0.07
0.12
0.16
0.20
0.23
0.23
0.30
0.30
0.32
0.28
0.20
0.12
0.06
0.03
0.02
0.00
0.00
0.01
0.00
0.01
0.00
0.00
0.00
0.00
0.01
0.04
0.06
0.06
0.06
0.04
0.06
0.12
0.12
0.09
0.06
0.06
0.06
0.09
0.01
0.04
0.04
0.00
0.01
0.04
0.00
0.00
0.04
0.00
0.00
0.00
0.00
0.00
0.00
0.00
0.00
0.00
0.04
0.12
0.12
0.20
0.44
0.34
0.26
0.12
0.00
0.00
0.01
0.00
0.01
0.00
0.01
0.00
0.04
0.12
0.43
0.88
0.55
0.61
0.63
0.58
0.56
0.08
0.15
0.12
0.07
0.08
0.04
0.06
0.06
0.06
0.06
0.03
0.03
0.03
0.03
0.03
0.04
0.06
0.06
0.07
0.12
0.12
0.12
0.15
0.16
0.25
0.25
0.28
0.25
0.25
0.28
0.25
0.23
0.14
0.08
0.04
0.04
0.02
0.00
0.00
0.01
0.00
0.00
0.01
0.00
0.01
0.01
0.00
0.01
0.00
0.01
0.01
0.00
0.00
0.00
0.00
0.00
0.00
0.00
0.01
0.00
0.01
0.01
0.00
0.00
0.00
0.00
0.01
0.00
0.00
0.01
0.01
0.01
0.00
0.01
0.01
0.01
0.01
0.01
0.01
0.01
0.15
0.16
0.32
0.22
0.12
0.04
0.03
0.03
0.03
0.03
0.03
0.04
0.03
0.04
0.12
0.06
0.66
0.32
0.58
0.62
0.65
0.59
0.48
0.15
0.12
0.15
0.08
0.06
0.06
0.04
0.03
0.03
0.03
0.03
0.03
0.03
0.03
0.03
0.04
0.06
0.07
0.07
0.07
0.12
0.15
0.15
0.14
0.16
0.16
0.23
0.20
0.25
0.25
0.25
0.16
0.14
0.06
0.04
0.01
0.01
0.01
0.00
0.01
0.00
0.00
0.04
0.00
0.01
0.01
0.00
0.00
0.00
0.00
0.00
0.00
0.00
0.01
0.00
0.00
0.00
0.00
0.00
0.00
0.00
0.00
0.00
0.01
0.00
0.00
0.01
0.00
0.00
0.00
0.00
0.00
0.00
0.00
0.01
0.01
0.01
0.01
0.00
0.01
0.04
0.06
0.15
0.12
0.38
0.22
0.12
0.01
0.03
0.03
0.04
0.03
0.03
0.03
0.03
0.03
0.03
0.04
0.34
0.93
0.57
0.77
0.66
0.65
0.54
0.07
0.12
0.08
0.07
0.03
0.03
0.02
0.03
0.02
0.02
0.00
0.01
0.00
0.01
0.00
0.00
0.00
0.00
0.00
0.01
0.00
0.01
0.02
0.03
0.06
0.08
0.12
0.12
0.14
0.16
0.23
0.20
0.15
0.08
0.04
0.03
0.00
0.00
0.01
0.01
0.01
0.00
0.00
0.01
0.06
0.01
0.06
0.01
0.06
0.06
0.09
0.09
0.09
0.12
0.12
0.12
0.12
0.12
0.09
0.09
0.06
0.04
0.06
0.00
0.06
0.01
0.00
0.00
0.00
0.00
0.00
0.00
0.00
0.01
0.01
0.00
0.00
0.00
0.00
0.00
0.00
0.00
0.00
0.00
0.00
0.00
0.00
0.00
0.00
0.00
0.00
0.00
0.00
0.00
0.00
0.00
0.01
0.04
0.12
0.04
0.34
0.16
0.06
0.01
0.01
0.02
0.03
0.02
0.00
0.02
0.02
0.03
0.12
0.16
0.55
0.81
0.58
0.71
0.65
0.58
0.50
0.07
0.12
0.07
0.04
0.03
0.03
0.03
0.02
0.02
0.00
0.00
0.00
0.00
0.00
0.00
0.01
0.00
0.01
0.03
0.03
0.03
0.04
0.07
0.12
0.14
0.16
0.20
0.16
0.23
0.30
0.30
0.28
0.23
0.14
0.12
0.07
0.03
0.01
0.01
0.00
0.01
0.01
0.00
0.00
0.01
0.00
0.01
0.00
0.00
0.01
0.01
0.00
0.01
0.01
0.01
0.00
0.00
0.00
0.00
0.00
0.00
0.00
0.00
0.00
0.01
0.01
0.04
0.04
0.00
0.00
0.01
0.01
0.01
0.00
0.00
0.00
0.00
0.00
0.01
0.00
0.00
0.00
0.01
0.01
0.01
0.01
0.00
0.01
0.00
0.01
0.00
0.01
0.03
0.03
0.00
0.01
0.00
0.00
0.00
0.22
0.00
0.00
0.02
0.08
0.12
0.04
0.03
0.03
0.04
0.03
0.03
0.15
0.06
0.65
0.57
0.58
0.60
0.63
0.54
0.38
0.07
0.06
0.07
0.03
0.03
0.01
0.00
0.03
0.02
0.03
0.01
0.01
0.02
0.04
0.03
0.03
0.07
0.06
0.12
0.12
0.15
0.14
0.20
0.25
0.30
0.28
0.25
0.25
0.28
0.32
0.28
0.25
0.14
0.12
0.07
0.06
0.03
0.01
0.00
0.01
0.01
0.01
0.00
0.00
0.01
0.01
0.00
0.00
0.02
0.01
0.01
0.03
0.01
0.00
0.02
0.00
0.01
0.00
0.00
0.01
0.01
0.01
0.01
0.01
0.00
0.01
0.00
0.00
0.01
0.01
0.01
0.00
0.00
0.00
0.01
0.01
0.00
0.01
0.01
0.01
0.00
0.02
0.01
0.02
0.03
0.01
0.01
0.01
0.00
0.00
0.02
0.20
0.00
0.01
0.02
0.12
0.08
0.07
0.07
0.06
0.12
0.07
0.07
0.14
0.01
0.51
0.65
0.60
0.63
0.70
0.58
0.55
0.12
0.15
0.07
0.04
0.04
0.03
0.02
0.01
0.00
0.01
0.00
0.01
0.00
0.00
0.00
0.00
0.00
0.01
0.04
0.01
0.00
0.01
0.00
0.00
0.00
0.02
0.04
0.07
0.12
0.16
0.28
0.28
0.28
0.20
0.14
0.12
0.12
0.07
0.06
0.04
0.02
0.03
0.03
0.02
0.01
0.02
0.01
0.02
0.02
0.01
0.01
0.00
0.02
0.02
0.03
0.01
0.02
0.01
0.00
0.00
0.02
0.01
0.02
0.01
0.01
0.02
0.00
0.00
0.01
0.01
0.00
0.00
0.01
0.00
0.00
0.00
0.00
0.00
0.01
0.00
0.01
0.02
0.00
0.00
0.01
0.00
0.02
0.01
0.01
0.00
0.00
0.01
0.15
0.01
0.00
0.03
0.12
0.15
0.12
0.07
0.06
0.08
0.06
0.08
0.08
0.09
0.55
0.83
0.61
0.83
0.70
0.61
0.53
0.07
0.12
0.06
0.04
0.03
0.03
0.02
0.03
0.02
0.01
0.00
0.01
0.01
0.01
0.00
0.01
0.00
0.00
0.01
0.00
0.00
0.02
0.03
0.04
0.07
0.08
0.12
0.15
0.20
0.25
0.25
0.25
0.23
0.16
0.08
0.03
0.01
0.01
0.00
0.00
0.00
0.00
0.00
0.00
0.00
0.00
0.00
0.00
0.00
0.00
0.00
0.00
0.01
0.00
0.00
0.00
0.00
0.00
0.00
0.00
0.00
0.00
0.01
0.00
0.01
0.00
0.00
0.00
0.00
0.00
0.00
0.00
0.00
0.00
0.00
0.00
0.00
0.00
0.00
0.01
0.01
0.00
0.00
0.00
0.01
0.01
0.00
0.01
0.00
0.00
0.00
0.01
0.00
0.09
0.01
0.20
0.00
0.00
0.06
0.08
0.04
0.03
0.02
0.00
0.01
0.01
0.00
0.01
0.43
0.92
0.32
0.63
0.62
0.68
0.56
0.06
0.06
0.03
0.02
0.01
0.00
0.00
0.00
0.00
0.00
0.01
0.00
0.01
0.00
0.00
0.01
0.01
0.00
0.00
0.02
0.02
0.03
0.07
0.12
0.15
0.14
0.16
0.16
0.25
0.23
0.28
0.28
0.28
0.20
0.14
0.08
0.06
0.02
0.01
0.00
0.01
0.01
0.01
0.01
0.01
0.01
0.01
0.01
0.01
0.01
0.01
0.00
0.00
0.00
0.00
0.00
0.00
0.01
0.00
0.00
0.00
0.00
0.00
0.00
0.00
0.00
0.00
0.00
0.00
0.00
0.00
0.00
0.00
0.00
0.00
0.00
0.00
0.00
0.00
0.00
0.00
0.01
0.00
0.00
0.00
0.00
0.00
0.00
0.00
0.04
0.12
0.12
0.30
0.12
0.01
0.00
0.04
0.02
0.02
0.01
0.02
0.00
0.02
0.01
0.07
0.06
0.38
0.84
0.54
0.58
0.62
0.59
0.56
0.04
0.08
0.04
0.03
0.03
0.02
0.00
0.03
0.00
0.01
0.01
0.01
0.00
0.02
0.02
0.02
0.03
0.03
0.06
0.07
0.08
0.08
0.15
0.16
0.16
0.16
0.16
0.20
0.20
0.25
0.25
0.23
0.16
0.14
0.12
0.08
0.04
0.03
0.02
0.01
0.00
0.01
0.01
0.00
0.00
0.00
0.01
0.00
0.00
0.01
0.01
0.01
0.00
0.00
0.00
0.01
0.00
0.00
0.01
0.00
0.01
0.00
0.00
0.01
0.01
0.01
0.01
0.02
0.03
0.02
0.01
0.02
0.02
0.03
0.03
0.02
0.02
0.02
0.02
0.02
0.03
0.03
0.02
0.01
0.00
0.00
0.06
0.01
0.28
0.00
0.00
0.01
0.08
0.04
0.04
0.06
0.03
0.03
0.03
0.04
0.08
0.20
0.70
0.30
0.63
0.73
0.80
0.58
0.38
0.07
0.07
0.04
0.02
0.01
0.01
0.00
0.00
0.01
0.00
0.00
0.00
0.01
0.01
0.04
0.09
0.09
0.09
0.09
0.15
0.09
0.15
0.09
0.06
0.00
0.00
0.01
0.01
0.06
0.12
0.15
0.12
0.12
0.07
0.03
0.02
0.00
0.00
0.00
0.00
0.00
0.04
0.01
0.01
0.00
0.00
0.00
0.01
0.01
0.01
0.00
0.00
0.01
0.00
0.01
0.00
0.00
0.00
0.00
0.00
0.01
0.00
0.00
0.00
0.00
0.01
0.01
0.00
0.01
0.01
0.01
0.01
0.01
0.01
0.01
0.00
0.00
0.00
0.00
0.00
0.00
0.01
0.00
0.01
0.02
0.00
0.00
0.01
0.06
0.00
0.22
0.00
0.00
0.01
0.15
0.08
0.08
0.04
0.04
0.03
0.06
0.03
0.08
0.16
0.55
0.84
0.58
0.75
0.66
0.58
0.48
0.04
0.06
0.03
0.03
0.02
0.02
0.01
0.00
0.01
0.01
0.01
0.01
0.01
0.01
0.00
0.00
0.02
0.03
0.02
0.03
0.03
0.06
0.08
0.08
0.15
0.14
0.16
0.20
0.23
0.28
0.30
0.30
0.28
0.23
0.12
0.04
0.03
0.01
0.01
0.00
0.00
0.00
0.01
0.00
0.01
0.01
0.06
0.06
0.09
0.09
0.09
0.12
0.09
0.09
0.12
0.12
0.12
0.15
0.12
0.15
0.09
0.09
0.09
0.06
0.01
0.04
0.00
0.00
0.00
0.00
0.00
0.01
0.01
0.00
0.00
0.00
0.00
0.00
0.00
0.00
0.00
0.00
0.01
0.00
0.00
0.00
0.00
0.00
0.00
0.09
0.01
0.09
0.20
0.04
0.00
0.02
0.15
0.04
0.06
0.06
0.03
0.02
0.03
0.02
0.04
0.06
0.39
0.92
0.55
0.63
0.63
0.63
0.56
0.03
0.12
0.07
0.04
0.03
0.02
0.02
0.02
0.00
0.00
0.00
0.01
0.00
0.01
0.01
0.01
0.03
0.03
0.03
0.06
0.06
0.08
0.12
0.12
0.16
0.20
0.20
0.20
0.23
0.28
0.28
0.25
0.23
0.15
0.08
0.03
0.00
0.00
0.01
0.06
0.06
0.04
0.06
0.06
0.04
0.04
0.01
0.01
0.04
0.01
0.01
0.01
0.00
0.00
0.00
0.00
0.00
0.01
0.00
0.00
0.00
0.00
0.01
0.01
0.00
0.00
0.01
0.00
0.01
0.00
0.00
0.02
0.00
0.01
0.02
0.02
0.01
0.00
0.01
0.02
0.01
0.01
0.01
0.01
0.01
0.01
0.01
0.00
0.04
0.06
0.00
0.15
0.00
0.00
0.02
0.04
0.06
0.03
0.02
0.01
0.01
0.02
0.01
0.12
0.09
0.52
0.83
0.58
0.61
0.63
0.59
0.55
0.03
0.06
0.03
0.03
0.02
0.00
0.00
0.00
0.01
0.00
0.01
0.00
0.00
0.00
0.01
0.00
0.01
0.02
0.02
0.03
0.03
0.06
0.03
0.03
0.06
0.07
0.07
0.07
0.12
0.15
0.15
0.15
0.12
0.07
0.04
0.02
0.00
0.00
0.01
0.01
0.00
0.00
0.01
0.01
0.00
0.01
0.00
0.00
0.00
0.00
0.00
0.01
0.00
0.00
0.00
0.00
0.00
0.00
0.00
0.00
0.01
0.00
0.00
0.00
0.01
0.01
0.01
0.00
0.00
0.01
0.01
0.01
0.01
0.01
0.01
0.01
0.01
0.00
0.00
0.01
0.02
0.02
0.00
0.04
0.00
0.06
0.00
0.06
0.01
0.03
0.12
0.12
0.12
0.12
0.07
0.06
0.06
0.03
0.04
0.00
0.32
0.90
0.56
0.65
0.67
0.70
0.56
0.07
0.07
0.04
0.03
0.02
0.01
0.02
0.01
0.01
0.01
0.00
0.01
0.00
0.01
0.00
0.00
0.00
0.00
0.00
0.00
0.00
0.00
0.00
0.01
0.00
0.01
0.02
0.03
0.06
0.08
0.15
0.14
0.14
0.12
0.07
0.04
0.01
0.00
0.00
0.00
0.00
0.01
0.01
0.00
0.00
0.00
0.01
0.00
0.01
0.00
0.00
0.00
0.00
0.00
0.00
0.00
0.00
0.00
0.00
0.00
0.00
0.00
0.00
0.00
0.00
0.01
0.00
0.01
0.01
0.01
0.01
0.03
0.03
0.03
0.02
0.02
0.02
0.02
0.02
0.01
0.00
0.00
0.01
0.01
0.00
0.12
0.04
0.15
0.16
0.16
0.00
0.01
0.08
0.06
0.04
0.03
0.03
0.01
0.03
0.02
0.04
0.09
0.43
0.92
0.57
0.70
0.63
0.60
0.53
0.01
0.04
0.03
0.00
0.01
0.00
0.00
0.00
0.00
0.00
0.00
0.00
0.01
0.00
0.00
0.00
0.01
0.01
0.00
0.01
0.03
0.03
0.04
0.07
0.12
0.12
0.15
0.15
0.16
0.20
0.23
0.20
0.12
0.08
0.04
0.02
0.01
0.00
0.00
0.04
0.04
0.01
0.01
0.04
0.04
0.04
0.06
0.04
0.06
0.04
0.04
0.04
0.06
0.06
0.06
0.06
0.04
0.06
0.04
0.06
0.01
0.01
0.00
0.00
0.01
0.00
0.00
0.00
0.00
0.01
0.00
0.00
0.01
0.00
0.00
0.01
0.00
0.00
0.00
0.00
0.00
0.00
0.01
0.00
0.01
0.15
0.12
0.22
0.12
0.34
0.04
0.06
0.00
0.03
0.02
0.01
0.00
0.00
0.01
0.00
0.00
0.01
0.32
0.83
0.12
0.59
0.62
0.65
0.55
0.07
0.04
0.03
0.02
0.01
0.00
0.01
0.01
0.01
0.00
0.01
0.00
0.00
0.01
0.01
0.00
0.01
0.02
0.03
0.03
0.03
0.06
0.12
0.12
0.12
