0.03
0.02
0.02
0.10
0.02
0.04
0.73
0.48
0.65
0.51
0.46
0.39
0.07
0.08
0.05
0.03
0.03
0.02
0.03
0.03
0.03
0.02
0.05
0.02
0.03
0.07
0.08
0.09
0.10
0.15
0.15
0.17
0.20
0.29
0.29
0.32
0.29
0.28
0.25
0.15
0.10
0.08
0.07
0.01
0.02
0.00
0.02
0.00
0.00
0.02
0.01
0.01
0.02
0.02
0.02
0.02
0.02
0.02
0.02
0.02
0.02
0.02
0.03
0.02
0.02
0.02
0.03
0.02
0.02
0.02
0.02
0.02
0.02
0.01
0.02
0.01
0.02
0.00
0.16
0.06
0.01
0.02
0.09
0.09
0.09
0.07
0.09
0.10
0.08
0.14
0.22
0.05
0.07
0.16
0.59
0.53
0.66
0.51
0.42
0.12
0.15
0.10
0.09
0.08
0.09
0.07
0.05
0.07
0.05
0.03
0.05
0.05
0.03
0.05
0.05
0.08
0.09
0.09
0.10
0.17
0.17
0.20
0.22
0.22
0.22
0.17
0.12
0.08
0.05
0.02
0.02
0.01
0.01
0.01
0.01
0.02
0.01
0.02
0.01
0.02
0.01
0.02
0.01
0.02
0.01
0.00
0.02
0.02
0.02
0.01
0.02
0.01
0.02
0.02
0.02
0.02
0.02
0.02
0.04
0.04
0.02
0.06
0.09
0.07
0.09
0.08
0.45
0.16
0.08
0.02
0.02
0.01
0.00
0.02
0.02
0.02
0.01
0.00
0.00
0.09
0.80
0.09
0.53
0.51
0.68
0.44
0.05
0.00
0.02
0.02
0.02
0.02
0.04
0.06
0.06
0.06
0.07
0.06
0.06
0.06
0.02
0.06
0.02
0.02
0.01
0.01
0.07
0.07
0.09
0.12
0.14
0.12
0.09
0.08
0.03
0.01
0.02
0.02
0.07
0.09
0.09
0.09
0.09
0.08
0.09
0.07
0.07
0.08
0.06
0.08
0.04
0.07
0.04
0.06
0.07
0.02
0.06
0.06
0.06
0.02
0.04
0.06
0.04
0.04
0.04
0.06
0.04
0.04
0.04
0.07
0.09
0.08
0.11
0.11
0.45
0.18
0.09
0.08
0.01
0.00
0.00
0.02
0.00
0.00
0.00
0.01
0.09
0.08
0.18
0.59
0.51
0.70
0.63
0.46
0.29
0.03
0.07
0.03
0.02
0.02
0.03
0.02
0.02
0.02
0.05
0.02
0.02
0.02
0.02
0.02
0.02
0.03
0.08
0.09
0.12
0.15
0.17
0.25
0.25
0.27
0.25
0.25
0.17
0.12
0.10
0.08
0.05
0.02
0.02
0.02
0.02
0.02
0.02
0.02
0.03
0.05
0.03
0.03
0.03
0.05
0.02
0.07
0.05
0.07
0.05
0.05
0.05
0.07
0.07
0.09
0.08
0.03
0.07
0.07
0.08
0.08
0.05
0.07
0.02
0.02
0.05
0.01
0.04
0.02
0.02
0.03
0.17
0.15
0.12
0.12
0.15
0.14
0.15
0.15
0.29
0.14
0.17
0.72
0.46
0.70
0.46
0.68
0.58
0.28
0.28
0.28
0.29
0.27
0.27
0.27
0.27
0.27
0.27
0.27
0.27
0.28
0.28
0.28
0.29
0.32
0.35
0.37
0.39
0.41
0.42
0.43
0.42
0.42
0.42
0.41
0.37
0.35
0.29
0.27
0.22
0.17
0.17
0.15
0.17
0.17
0.17
0.17
0.17
0.17
0.20
0.17
0.20
0.17
0.17
0.20
0.17
0.20
0.17
0.17
0.17
0.17
0.17
0.20
0.20
0.17
0.20
0.20
0.17
0.17
0.17
0.09
0.12
0.10
0.12
0.00
0.05
0.09
0.12
0.22
0.25
0.22
0.17
0.20
0.20
0.25
0.20
0.37
0.15
0.01
0.02
0.65
0.54
0.70
0.61
0.42
0.25
0.22
0.20
0.17
0.17
0.15
0.15
0.12
0.14
0.10
0.14
0.12
0.10
0.09
0.09
0.14
0.14
0.15
0.17
0.17
0.22
0.27
0.29
0.29
0.29
0.29
0.22
0.17
0.14
0.09
0.05
0.02
0.02
0.00
0.00
0.01
0.00
0.02
0.01
0.02
0.02
0.01
0.02
0.01
0.00
0.02
0.02
0.01
0.01
0.00
0.01
0.00
0.01
0.02
0.01
0.02
0.02
0.02
0.02
0.02
0.02
0.07
0.08
0.07
0.09
0.34
0.34
0.08
0.08
0.02
0.02
0.02
0.00
0.02
0.01
0.02
0.02
0.05
0.02
0.02
0.84
0.44
0.70
0.44
0.62
0.43
0.03
0.03
0.02
0.02
0.02
0.01
0.02
0.01
0.02
0.02
0.01
0.01
0.02
0.01
0.02
0.02
0.03
0.03
0.08
0.09
0.12
0.14
0.17
0.17
0.17
0.17
0.14
0.10
0.07
0.02
0.01
0.02
0.04
0.06
0.08
0.08
0.06
0.07
0.08
0.08
0.07
0.06
0.07
0.07
0.07
0.07
0.07
0.08
0.07
0.07
0.09
0.08
0.09
0.06
0.08
0.08
0.08
0.08
0.08
0.08
0.09
0.18
0.11
0.18
0.16
0.52
0.31
0.18
0.09
0.02
0.01
0.02
0.04
0.06
0.02
0.04
0.04
0.02
0.16
0.09
0.80
0.44
0.62
0.43
0.44
0.29
0.01
0.01
0.02
0.02
0.02
0.02
0.02
0.02
0.02
0.02
0.02
0.06
0.02
0.02
0.02
0.02
0.01
0.01
0.02
0.05
0.07
0.09
0.10
0.14
0.14
0.12
0.08
0.05
0.01
0.01
0.04
0.04
0.08
0.09
0.08
0.09
0.09
0.08
0.08
0.07
0.07
0.06
0.06
0.04
0.04
0.04
0.04
0.02
0.02
0.02
0.02
0.02
0.02
0.02
0.02
0.02
0.02
0.02
0.02
0.02
0.02
0.07
0.09
0.04
0.09
0.06
0.34
0.09
0.04
0.02
0.05
0.02
0.02
0.02
0.02
0.02
0.05
0.08
0.10
0.02
0.46
0.15
0.48
0.42
0.53
0.48
0.15
0.09
0.05
0.03
0.03
0.03
0.02
0.02
0.02
0.02
0.02
0.02
0.02
0.02
0.02
0.02
0.05
0.08
0.09
0.09
0.14
0.17
0.17
0.17
0.17
0.17
0.14
0.10
0.07
0.05
0.02
0.01
0.02
0.02
0.02
0.02
0.02
0.04
0.04
0.04
0.04
0.06
0.02
0.04
0.02
0.04
0.02
0.04
0.02
0.02
0.02
0.02
0.02
0.02
0.01
0.02
0.02
0.01
0.02
0.02
0.02
0.09
0.06
0.09
0.08
0.45
0.16
0.09
0.07
0.00
0.00
0.01
0.02
0.01
0.01
0.01
0.01
0.07
0.02
0.55
0.02
0.45
0.44
0.58
0.44
0.14
0.03
0.02
0.02
0.01
0.01
0.00
0.00
0.00
0.01
0.01
0.01
0.01
0.01
0.01
0.02
0.02
0.02
0.03
0.09
0.10
0.14
0.17
0.17
0.17
0.17
0.17
0.12
0.08
0.03
0.02
0.01
0.02
0.02
0.04
0.06
0.04
0.07
0.02
0.06
0.06
0.04
0.02
0.02
0.04
0.04
0.04
0.04
0.04
0.04
0.02
0.04
0.04
0.04
0.02
0.02
0.02
0.02
0.02
0.02
0.02
0.08
0.04
0.08
0.06
0.31
0.08
0.02
0.02
0.03
0.02
0.03
0.01
0.01
0.02
0.02
0.02
0.09
0.04
0.16
0.65
0.48
0.69
0.61
0.46
0.29
0.02
0.02
0.02
0.00
0.02
0.00
0.01
0.02
0.02
0.02
0.02
0.02
0.02
0.02
0.01
0.01
0.01
0.02
0.02
0.07
0.08
0.12
0.14
0.14
0.15
0.14
0.12
0.03
0.02
0.02
0.02
0.06
0.08
0.06
0.08
0.09
0.08
0.09
0.07
0.08
0.09
0.08
0.08
0.09
0.08
0.08
0.07
0.09
0.09
0.09
0.08
0.08
0.08
0.07
0.02
0.06
0.06
0.07
0.06
0.04
0.08
0.11
0.06
0.09
0.08
0.39
0.08
0.06
0.01
0.02
0.02
0.02
0.02
0.02
0.02
0.03
0.02
0.02
0.03
0.78
0.36
0.63
0.44
0.67
0.45
0.09
0.03
0.03
0.03
0.02
0.02
0.02
0.01
0.01
0.01
0.02
0.02
0.02
0.02
0.01
0.03
0.03
0.02
0.07
0.09
0.14
0.14
0.17
0.17
0.20
0.17
0.14
0.10
0.07
0.02
0.00
0.02
0.02
0.08
0.07
0.07
0.08
0.07
0.06
0.06
0.04
0.06
0.02
0.02
0.02
0.02
0.02
0.02
0.02
0.01
0.01
0.00
0.02
0.01
0.02
0.00
0.00
0.01
0.01
0.01
0.01
0.06
0.02
0.06
0.02
0.31
0.08
0.02
0.01
0.03
0.02
0.03
0.03
0.02
0.05
0.02
0.07
0.15
0.02
0.18
0.02
0.50
0.43
0.54
0.46
0.27
0.09
0.07
0.05
0.03
0.02
0.02
0.02
0.02
0.02
0.02
0.02
0.02
0.02
0.02
0.02
0.05
0.05
0.08
0.10
0.12
0.15
0.17
0.17
0.17
0.14
0.10
0.09
0.03
0.01
0.01
0.04
0.04
0.08
0.08
0.08
0.09
0.09
0.09
0.07
0.08
0.08
0.08
0.06
0.07
0.06
0.06
0.04
0.06
0.02
0.06
0.02
0.02
0.02
0.04
0.02
0.06
0.06
0.04
0.04
0.07
0.16
0.09
0.11
0.09
0.46
0.16
0.11
0.07
0.01
0.00
0.00
0.02
0.02
0.00
0.00
0.01
0.09
0.06
0.53
0.08
0.53
0.54
0.66
0.46
0.20
0.02
0.02
0.02
0.00
0.01
0.02
0.02
0.02
0.02
0.02
0.02
0.02
0.02
0.02
0.01
0.02
0.00
0.01
0.02
0.03
0.08
0.09
0.09
0.10
0.09
0.09
0.03
0.02
0.01
0.02
0.07
0.08
0.09
0.16
0.16
0.16
0.11
0.16
0.11
0.11
0.09
0.09
0.09
0.09
0.09
0.08
0.08
0.09
0.08
0.08
0.07
0.07
0.06
0.04
0.08
0.04
0.06
0.04
0.07
0.04
0.08
0.11
0.07
0.16
0.09
0.46
0.16
0.09
0.02
0.02
0.01
0.01
0.01
0.01
0.01
0.01
0.01
0.03
0.02
0.69
0.08
0.54
0.46
0.65
0.44
0.09
0.01
0.00
0.02
0.02
0.02
0.04
0.07
0.04
0.02
0.06
0.04
0.04
0.02
0.02
0.01
0.02
0.01
0.02
0.02
0.05
0.09
0.12
0.14
0.14
0.14
0.12
0.09
0.02
0.00
0.02
0.08
0.08
0.09
0.09
0.16
0.11
0.11
0.11
0.09
0.09
0.08
0.09
0.08
0.09
0.09
0.08
0.08
0.08
0.09
0.09
0.08
0.09
0.09
0.08
0.08
0.08
0.09
0.11
0.09
0.08
0.09
0.09
0.18
0.09
0.31
0.16
0.53
0.18
0.09
0.08
0.02
0.02
0.01
0.04
0.02
0.02
0.02
0.01
0.02
0.04
0.61
0.02
0.46
0.44
0.59
0.44
0.15
0.02
0.02
0.02
0.01
0.02
0.01
0.01
0.00
0.02
0.02
0.02
0.02
0.02
0.02
0.05
0.09
0.10
0.12
0.14
0.17
0.20
0.25
0.28
0.29
0.27
0.17
0.17
0.09
0.07
0.02
0.02
0.00
0.02
0.02
0.02
0.01
0.02
0.02
0.00
0.01
0.02
0.00
0.02
0.00
0.01
0.01
0.01
0.02
0.01
0.02
0.02
0.02
0.03
0.02
0.02
0.02
0.02
0.03
0.02
0.00
0.02
0.02
0.02
0.01
0.18
0.06
0.02
0.00
0.08
0.07
0.08
0.05
0.03
0.05
0.07
0.09
0.12
0.07
0.34
0.17
0.53
0.42
0.58
0.50
0.20
0.10
0.09
0.07
0.05
0.05
0.03
0.02
0.02
0.02
0.02
0.02
0.02
0.03
0.02
0.02
0.03
0.05
0.09
0.10
0.14
0.17
0.17
0.17
0.17
0.17
0.17
0.12
0.07
0.02
0.01
0.01
0.02
0.02
0.06
0.06
0.07
0.04
0.06
0.06
0.06
0.06
0.02
0.02
0.02
0.02
0.02
0.02
0.02
0.02
0.02
0.01
0.02
0.02
0.02
0.02
0.02
0.02
0.02
0.02
0.04
0.08
0.06
0.09
0.07
0.39
0.09
0.08
0.02
0.01
0.02
0.02
0.02
0.01
0.01
0.01
0.02
0.07
0.06
0.55
0.23
0.51
0.65
0.63
0.46
0.25
0.02
0.02
0.02
0.01
0.00
0.01
0.01
0.01
0.00
0.00
0.02
0.00
0.01
0.00
0.01
0.01
0.02
0.02
0.05
0.08
0.10
0.10
0.17
0.17
0.17
0.14
0.12
0.08
0.02
0.01
0.02
0.02
0.04
0.04
0.06
0.04
0.06
0.04
0.04
0.02
0.04
0.02
0.04
0.04
0.02
0.04
0.06
0.06
0.06
0.06
0.06
0.07
0.04
0.07
0.07
0.07
0.06
0.06
0.06
0.06
0.06
0.16
0.08
0.09
0.09
0.42
0.23
0.09
0.09
0.01
0.01
0.01
0.02
0.02
0.02
0.02
0.02
0.05
0.06
0.04
0.82
0.44
0.67
0.43
0.51
0.43
0.02
0.02
0.01
0.02
0.01
0.02
0.02
0.01
0.02
0.02
0.02
0.02
0.01
0.02
0.01
0.01
0.02
0.03
0.07
0.09
0.14
0.15
0.17
0.20
0.27
0.17
0.17
0.15
0.09
0.07
0.02
0.00
0.00
0.02
0.04
0.02
0.02
0.02
0.02
0.02
0.02
0.02
0.02
0.01
0.01
0.01
0.02
0.02
0.02
0.02
0.02
0.02
0.02
0.02
0.04
0.04
0.04
0.02
0.06
0.06
0.04
0.07
0.16
0.07
0.09
0.08
0.50
0.16
0.09
0.04
0.01
0.00
0.01
0.01
0.02
0.01
0.02
0.02
0.09
0.02
0.09
0.09
0.48
0.41
0.56
0.46
0.33
0.09
0.14
0.09
0.12
0.10
0.09
0.07
0.09
0.09
0.09
0.07
0.09
0.10
0.10
0.12
0.17
0.17
0.17
0.27
0.27
0.29
0.32
0.32
0.35
0.32
0.29
0.22
0.17
0.10
0.08
0.03
0.02
0.01
0.01
0.02
0.02
0.01
0.02
0.02
0.02
0.02
0.02
0.02
0.02
0.00
0.01
0.02
0.00
0.01
0.02
0.00
0.01
0.01
0.01
0.02
0.02
0.01
0.02
0.02
0.02
0.07
0.02
0.08
0.07
0.39
0.16
0.09
0.07
0.02
0.02
0.01
0.02
0.00
0.02
0.01
0.02
0.10
0.02
0.04
0.79
0.43
0.44
0.44
0.44
0.42
0.02
0.02
0.02
0.00
0.00
0.02
0.02
0.02
0.02
0.02
0.02
0.02
0.02
0.02
0.01
0.02
0.02
0.02
0.03
0.07
0.09
0.10
0.17
0.15
0.17
0.17
0.12
0.09
0.02
0.02
0.02
0.02
0.07
0.07
0.09
0.08
0.07
0.09
0.08
0.09
0.07
0.07
0.08
0.08
0.07
0.08
0.08
0.07
0.07
0.06
0.06
0.07
0.06
0.06
0.07
0.07
0.07
0.07
0.07
0.08
0.09
0.08
0.08
0.09
0.39
0.31
0.09
0.09
0.02
0.01
0.01
0.02
0.02
0.02
0.00
0.01
0.02
0.06
0.02
0.84
0.43
0.59
0.43
0.51
0.43
0.02
0.03
0.02
0.00
0.01
0.00
0.01
0.00
0.00
0.02
0.01
0.00
0.01
0.00
0.02
0.02
0.02
0.03
0.09
0.09
0.15
0.17
0.22
0.27
0.27
0.25
0.25
0.17
0.12
0.10
0.08
0.05
0.02
0.01
0.02
0.01
0.00
0.02
0.02
0.02
0.02
0.02
0.02
0.03
0.02
0.02
0.02
0.02
0.02
0.02
0.02
0.02
0.02
0.02
0.02
0.02
0.02
0.02
0.05
0.03
0.02
0.02
0.01
0.07
0.00
0.02
0.09
0.02
0.02
0.03
0.14
0.14
0.12
0.09
0.09
0.14
0.12
0.14
0.29
0.05
0.01
0.55
0.58
0.62
0.68
0.56
0.43
0.17
0.17
0.17
0.17
0.15
0.14
0.14
0.12
0.15
0.14
0.14
0.12
0.14
0.17
0.17
0.20
0.22
0.28
0.29
0.35
0.36
0.41
0.41
0.41
0.41
0.39
0.35
0.32
0.27
0.17
0.15
0.09
0.12
0.07
0.09
0.09
0.10
0.09
0.10
0.12
0.10
0.14
0.14
0.10
0.12
0.14
0.10
0.12
0.12
0.10
0.10
0.09
0.10
0.12
0.12
0.09
0.09
0.10
0.10
0.10
0.08
0.02
0.09
0.01
0.03
0.09
0.01
0.02
0.03
0.10
0.12
0.09
0.09
0.09
0.10
0.10
0.09
0.17
0.03
0.16
0.00
0.59
0.46
0.67
0.50
0.33
0.12
0.12
0.09
0.07
0.07
0.07
0.07
0.02
0.03
0.05
0.03
0.02
0.03
0.02
0.02
0.05
0.05
0.09
0.09
0.12
0.15
0.17
0.22
0.20
0.17
0.17
0.12
0.09
0.05
0.02
0.01
0.00
0.02
0.02
0.02
0.02
0.02
0.06
0.02
0.02
0.02
0.02
0.02
0.02
0.02
0.04
0.02
0.04
0.02
0.02
0.04
0.04
0.02
0.02
0.02
0.02
0.06
0.02
0.02
0.04
0.06
0.06
0.09
0.16
0.08
0.18
0.39
0.39
0.16
0.16
0.01
0.02
0.02
0.02
0.02
0.02
0.02
0.02
0.00
0.09
0.16
0.88
0.42
0.68
0.45
0.66
0.42
0.02
0.01
0.02
0.02
0.02
0.06
0.06
0.06
0.07
0.07
0.08
0.07
0.07
0.06
0.06
0.04
0.02
0.02
0.00
0.02
0.05
0.08
0.10
0.12
0.14
0.15
0.12
0.08
0.05
0.01
0.02
0.04
0.07
0.08
0.09
0.11
0.11
0.09
0.09
0.09
0.09
0.07
0.09
0.08
0.09
0.06
0.09
0.09
0.09
0.09
0.08
0.09
0.07
0.08
0.07
0.08
0.08
0.07
0.06
0.07
0.07
0.06
0.07
0.09
0.11
0.08
0.09
0.39
0.34
0.09
0.09
0.00
0.02
0.01
0.02
0.01
0.02
0.00
0.01
0.02
0.09
0.06
0.87
0.44
0.70
0.44
0.61
0.43
0.02
0.02
0.01
0.01
0.01
0.01
0.02
0.01
0.02
0.02
0.02
0.02
0.02
0.01
0.01
0.01
0.01
0.02
0.07
0.09
0.10
0.15
0.17
0.25
0.22
0.20
0.17
0.10
0.03
0.02
0.00
0.02
0.07
0.06
0.08
0.04
0.06
0.04
0.06
0.02
0.02
0.02
0.02
0.02
0.04
0.02
0.02
0.02
0.02
0.02
0.02
0.02
0.02
0.02
0.02
0.01
0.02
0.01
0.02
0.01
0.01
0.02
0.01
0.02
0.06
0.02
0.07
0.11
0.23
0.04
0.02
0.02
0.05
0.02
0.02
0.02
0.05
0.05
0.02
0.09
0.02
0.02
0.76
0.43
0.59
0.48
0.51
0.48
0.15
0.12
0.09
0.09
0.07
0.05
0.07
0.05
0.03
0.05
0.03
0.05
0.05
0.08
0.03
0.07
0.08
0.09
0.10
0.15
0.17
0.22
0.22
0.22
0.27
0.25
0.17
0.12
0.09
0.03
0.02
0.00
0.00
0.02
0.01
0.01
0.02
0.02
0.02
0.02
0.02
0.02
0.02
0.02
0.02
0.01
0.02
0.00
0.01
0.00
0.02
0.01
0.01
0.01
0.01
0.02
0.00
0.01
0.02
0.02
0.02
0.02
0.07
0.08
0.07
0.09
0.27
0.31
0.08
0.07
0.01
0.02
0.01
0.01
0.00
0.01
0.01
0.02
0.02
0.09
0.11
0.87
0.44
0.70
0.46
0.54
0.42
0.02
0.01
0.00
0.00
0.01
0.02
0.02
0.02
0.02
0.02
0.02
0.02
0.02
0.01
0.02
0.00
0.01
0.02
0.05
0.08
0.10
0.14
0.17
0.20
0.20
0.17
0.15
0.09
0.05
0.01
0.00
0.02
0.02
0.06
0.07
0.06
0.06
0.06
0.06
0.04
0.04
0.04
0.04
0.04
0.02
0.02
0.06
0.06
0.02
0.07
0.04
0.02
0.02
0.02
0.04
0.06
0.06
0.02
0.04
0.06
0.02
0.02
0.08
0.08
0.08
0.09
0.34
0.23
0.09
0.04
0.02
0.02
0.02
0.01
0.01
0.00
0.01
0.02
0.02
0.07
0.04
0.87
0.46
0.70
0.46
0.62
0.43
0.02
0.02
0.02
0.01
0.02
0.01
0.02
0.02
0.02
0.02
0.02
0.02
0.02
0.01
0.02
0.01
0.00
0.02
0.03
0.05
0.09
0.14
0.17
0.17
0.17
0.17
0.12
0.12
0.07
0.02
0.01
0.02
0.02
0.02
0.02
0.04
0.04
0.04
0.02
0.02
0.02
0.02
0.02
0.01
0.00
0.02
0.00
0.00
0.01
0.01
0.00
0.01
0.00
0.01
0.00
0.00
0.01
0.00
0.02
0.02
0.06
0.08
0.06
0.09
0.27
0.39
0.16
0.09
0.02
0.00
0.02
0.02
0.02
0.02
0.02
0.02
0.02
0.02
0.04
0.82
0.32
0.51
0.43
0.62
0.44
0.02
0.01
0.00
0.02
0.02
0.02
0.02
0.02
0.02
0.02
0.02
0.02
0.01
0.02
0.02
0.01
0.01
0.02
0.02
0.05
0.08
0.09
0.12
0.17
0.17
0.14
0.10
0.07
0.02
0.00
0.02
0.06
0.07
0.09
0.09
0.11
0.09
0.08
0.09
0.09
0.09
0.09
0.08
0.07
0.08
0.08
0.08
0.07
0.07
0.07
0.07
0.06
0.06
0.06
0.06
0.04
0.04
0.02
0.04
0.04
0.07
0.09
0.07
0.11
0.27
0.34
0.09
0.07
0.01
0.02
0.02
0.01
0.00
0.00
0.00
0.01
0.02
0.02
0.02
0.84
0.43
0.62
0.43
0.53
0.43
0.01
0.01
0.02
0.02
0.02
0.02
0.06
0.02
0.04
0.04
0.02
0.04
0.02
0.02
0.02
0.02
0.01
0.02
0.02
0.07
0.09
0.15
0.17
0.17
0.17
0.15
0.09
0.05
0.01
0.02
0.04
0.09
0.09
0.16
0.11
0.11
0.09
0.09
0.09
0.09
0.08
0.07
0.09
0.08
0.09
0.07
0.09
0.07
0.07
0.06
0.07
0.07
0.08
0.07
0.07
0.04
0.07
0.06
0.06
0.09
0.09
0.09
0.08
0.52
0.18
0.16
0.08
0.02
0.01
0.01
0.02
0.00
0.02
0.01
0.01
0.09
0.04
0.02
0.82
0.43
0.44
0.44
0.44
0.42
0.02
0.05
0.05
0.02
0.02
0.01
0.01
0.01
0.02
0.02
0.02
0.02
0.05
0.08
0.08
0.08
0.10
0.14
0.17
0.20
0.27
0.28
0.29
0.29
0.29
0.25
0.22
0.17
0.09
0.05
0.03
0.00
0.00
0.01
0.02
0.00
0.01
0.01
0.01
0.01
0.02
0.02
0.02
0.01
0.02
0.02
0.02
0.02
0.02
0.01
0.02
0.02
0.01
0.02
0.02
0.02
0.02
0.01
0.01
0.02
0.02
0.01
0.07
0.06
0.27
0.06
0.02
0.00
0.02
0.02
0.03
0.02
0.02
0.02
0.02
0.02
0.10
0.01
0.59
0.01
0.44
0.42
0.53
0.46
0.20
0.05
0.02
0.02
0.02
0.02
0.00
0.00
0.01
0.00
0.00
0.02
0.00
0.01
0.00
0.00
0.01
0.02
0.02
0.03
0.09
0.10
0.12
0.15
0.14
0.15
0.12
0.09
0.03
0.02
0.02
0.02
0.07
0.08
0.07
0.09
0.09
0.09
0.09
0.09
0.09
0.07
0.08
0.08
0.08
0.08
0.04
0.06
0.04
0.04
0.02
0.04
0.04
0.02
0.04
0.04
0.07
0.06
0.07
0.09
0.09
0.09
0.09
0.46
0.31
0.11
0.08
0.01
0.00
0.01
0.02
0.02
0.00
0.02
0.02
0.02
0.04
0.02
0.87
0.44
0.70
0.44
0.59
0.43
0.02
0.02
0.02
0.01
0.01
0.02
0.02
0.02
0.02
0.02
0.02
0.02
0.02
0.02
0.02
0.02
0.02
0.01
0.02
0.05
0.09
0.10
0.14
0.17
0.17
0.17
0.12
0.10
0.08
0.03
0.00
0.02
0.02
0.02
0.04
0.06
0.02
0.02
0.04
0.02
0.02
0.02
0.02
0.02
0.02
0.01
0.02
0.01
0.01
0.01
0.01
0.00
0.00
0.02
0.01
0.01
0.02
0.02
0.01
0.02
0.02
0.01
0.02
0.09
0.09
0.02
0.01
0.09
0.09
0.09
0.05
0.07
0.07
0.09
0.08
0.10
0.05
0.07
0.81
0.44
0.68
0.48
0.70
0.46
0.12
0.14
0.10
0.09
0.09
0.09
0.08
0.09
0.08
0.09
0.08
0.08
0.09
0.09
0.12
0.14
0.15
0.20
0.22
0.29
0.29
0.37
0.39
0.39
0.41
0.39
0.39
0.35
0.29
0.22
0.17
0.14
0.12
0.12
0.12
0.12
0.09
0.12
0.12
0.14
0.12
0.15
0.15
0.15
0.15
0.14
0.15
0.17
0.17
0.15
0.17
0.17
0.17
0.17
0.17
0.20
0.17
0.17
0.17
0.17
0.10
0.17
0.09
0.12
0.01
0.08
0.10
0.15
0.25
0.22
0.25
0.22
0.22
0.27
0.25
0.25
0.39
0.17
0.10
0.39
0.59
0.59
0.69
0.61
0.48
0.29
0.32
0.28
0.27
0.20
0.25
0.25
0.22
0.27
0.25
0.29
0.25
0.29
0.25
0.28
0.29
0.32
0.29
0.36
0.37
0.39
0.41
0.41
0.42
0.41
0.39
0.36
0.29
0.28
0.22
0.17
0.14
0.15
0.12
0.10
0.09
0.14
0.10
0.12
0.10
0.10
0.10
0.10
0.09
0.10
0.12
0.09
0.10
0.10
0.14
0.12
0.10
0.10
0.14
0.10
0.10
0.10
0.12
0.12
0.07
0.02
0.09
0.02
0.03
0.02
0.02
0.07
0.09
0.15
0.15
0.14
0.10
0.12
0.12
0.12
0.17
0.22
0.07
0.46
0.03
0.50
0.48
0.70
0.54
0.36
0.14
0.14
0.10
0.10
0.08
0.09
0.07
0.07
0.03
0.07
0.07
0.05
0.03
0.03
0.05
0.08
0.08
0.09
0.12
0.14
0.17
0.17
0.25
0.22
0.27
0.20
0.17
0.12
0.08
0.02
0.02
0.01
0.02
0.02
0.02
0.04
0.04
0.02
0.06
0.04
0.04
0.04
0.02
0.02
0.04
0.02
0.02
0.02
0.02
0.02
0.02
0.02
0.02
0.04
0.02
0.02
0.02
0.02
0.04
0.06
0.09
0.06
0.09
0.16
0.34
0.09
0.09
0.01
0.01
0.02
0.02
0.02
0.02
0.02
0.02
0.00
0.01
0.07
0.84
0.29
0.58
0.45
0.67
0.43
0.03
0.00
0.02
0.01
0.02
0.02
0.02
0.02
0.04
0.06
0.06
0.06
0.06
0.07
0.06
0.04
0.02
0.02
0.00
0.02
0.03
0.05
0.09
0.09
0.12
0.09
0.08
0.03
0.01
0.02
0.06
0.08
0.09
0.09
0.16
0.16
0.11
0.09
0.09
0.09
0.09
0.07
0.08
0.07
0.07
0.07
0.08
0.07
0.08
0.07
0.07
0.07
0.07
0.06
0.06
0.07
0.06
0.06
0.06
0.07
0.09
0.09
0.08
0.16
0.39
0.23
0.09
0.11
0.00
0.02
0.01
0.02
0.02
0.02
0.01
0.00
0.05
0.04
0.02
0.83
0.44
0.66
0.44
0.50
0.39
0.01
0.01
0.01
0.02
0.04
0.04
0.04
0.07
0.06
0.07
0.02
0.06
0.04
0.04
0.01
0.02
0.00
0.01
0.03
0.03
0.08
0.12
0.17
0.17
0.17
0.15
0.14
0.09
0.02
0.01
0.01
0.04
0.07
0.06
0.09
0.08
0.07
0.08
0.04
0.06
0.04
0.06
0.04
0.04
0.07
0.02
0.02
0.02
0.02
0.04
0.02
0.02
0.02
0.02
0.02
0.01
0.04
0.04
0.02
0.02
0.08
0.08
0.06
0.06
0.23
0.18
0.07
0.09
0.01
0.03
0.02
0.02
0.02
0.02
0.02
0.02
0.09
0.02
0.02
0.78
0.36
0.50
0.42
0.50
0.46
0.10
0.09
0.03
0.08
0.02
0.02
0.02
0.03
0.03
0.02
0.03
0.02
0.02
0.07
0.07
0.09
0.09
0.10
0.17
0.17
0.17
0.25
0.25
0.27
0.28
0.22
0.17
0.15
0.09
0.03
0.02
0.00
0.01
0.02
0.04
0.04
0.04
0.06
0.07
0.04
0.04
0.06
0.06
0.02
0.02
0.02
0.04
0.02
0.02
0.04
0.04
0.02
0.02
0.04
0.04
0.02
0.06
0.06
0.06
0.09
0.11
0.09
0.23
0.31
0.42
0.11
0.16
0.02
0.02
0.02
0.02
0.02
0.02
0.01
0.02
0.02
0.02
0.02
0.82
0.36
0.50
0.42
0.50
0.44
0.03
0.01
0.01
0.02
0.02
0.02
0.02
0.02
0.02
0.02
0.02
0.02
0.06
0.02
0.02
0.02
0.02
0.01
0.01
0.02
0.03
0.08
0.09
0.09
0.09
0.09
0.09
0.02
0.01
0.02
0.04
0.09
0.11
0.11
0.16
0.16
0.18
0.18
0.18
0.16
0.18
0.18
0.16
0.11
0.18
0.16
0.11
0.09
0.11
0.11
0.09
0.09
0.11
0.11
0.09
0.09
0.11
0.11
0.09
0.23
0.31
0.11
0.34
0.39
0.46
0.23
0.18
0.04
0.04
0.06
0.07
0.06
0.07
0.06
0.07
0.02
0.07
0.09
0.88
0.36
0.58
0.42
0.54
0.42
0.00
0.02
0.02
0.02
0.02
0.06
0.06
0.04
0.06
0.06
0.06
0.07
0.06
0.06
0.04
0.02
0.02
0.01
0.00
0.03
0.07
0.09
0.10
0.12
0.12
0.10
0.09
0.02
0.01
0.02
0.06
0.09
0.11
0.16
0.18
0.16
0.18
0.16
0.11
0.16
0.16
0.11
0.11
0.11
0.09
0.11
0.09
0.09
0.09
0.08
0.09
0.09
0.08
0.07
0.09
0.06
0.07
0.06
0.07
0.09
0.16
0.07
0.27
0.16
0.52
0.27
0.16
0.07
0.02
0.04
0.04
0.09
0.06
0.06
0.06
0.04
0.01
0.16
0.72
0.04
0.46
0.44
0.61
0.42
0.07
0.02
0.02
0.02
0.04
0.02
0.04
0.04
0.06
0.02
0.02
0.04
0.02
0.02
0.00
0.01
0.02
0.02
0.05
0.09
0.12
0.17
0.22
0.25
0.25
0.22
0.20
0.15
0.10
0.05
0.02
0.02
0.02
0.02
0.00
0.02
0.02
0.02
0.01
0.00
0.00
0.00
0.00
0.01
0.02
0.01
0.01
0.00
0.01
0.02
0.00
0.01
0.02
0.00
0.00
0.01
0.01
0.01
0.02
0.01
0.01
0.04
0.02
0.02
0.02
0.18
0.07
0.02
0.02
0.03
0.05
0.08
0.05
0.07
0.08
0.05
0.09
0.22
0.02
0.01
0.72
0.50
0.51
0.53
0.46
0.44
0.10
0.15
0.12
0.09
0.09
0.09
0.09
0.09
0.09
0.09
0.08
0.10
0.09
0.09
0.12
0.14
0.14
0.15
0.17
0.20
0.25
0.25
0.28
0.27
0.27
0.20
0.17
0.12
0.09
0.03
0.02
0.02
0.01
0.00
0.02
0.01
0.02
0.02
0.02
0.01
0.02
0.02
0.00
0.01
0.00
0.00
0.00
0.01
0.02
0.01
0.01
0.00
0.00
0.00
0.00
0.01
0.00
0.02
0.02
0.02
0.07
0.06
0.06
0.06
0.27
0.11
0.07
0.08
0.02
0.01
0.01
0.02
0.00
0.02
0.01
0.00
0.09
0.08
0.11
0.82
0.43
0.61
0.46
0.46
0.42
0.02
0.02
0.01
0.01
0.00
0.02
0.02
0.02
0.02
0.04
0.02
0.02
0.02
0.02
0.04
0.02
0.01
0.02
0.01
0.02
0.03
0.08
0.09
0.09
0.10
0.08
0.07
0.02
0.01
0.02
0.07
0.04
0.08
0.08
0.09
0.09
0.09
0.09
0.09
0.09
0.08
0.08
0.08
0.08
0.07
0.08
0.08
0.07
0.07
0.09
0.07
0.08
0.07
0.06
0.07
0.06
0.06
0.04
0.06
0.09
0.16
0.04
0.16
0.09
0.45
0.11
0.11
0.06
0.00
0.02
0.02
0.06
0.06
0.04
0.06
0.02
0.01
0.11
0.83
0.15
0.54
0.46
0.68
0.42
0.01
0.02
0.02
0.04
0.06
0.07
0.07
0.08
0.09
0.07
0.06
0.08
0.07
0.06
0.04
0.02
0.02
0.01
0.02
0.03
0.07
0.09
0.14
0.14
0.15
0.12
0.14
0.07
0.02
0.00
0.02
0.02
0.07
0.08
0.09
0.09
0.09
0.08
0.06
0.06
0.09
0.07
0.02
0.04
0.08
0.06
0.07
0.08
0.07
0.06
0.06
0.06
0.04
0.06
0.02
0.02
0.02
0.02
0.02
0.02
0.02
0.02
0.02
0.07
0.01
0.06
0.09
0.08
0.02
0.01
0.03
0.09
0.08
0.07
0.07
0.07
0.08
0.07
0.15
0.02
0.07
0.81
0.43
0.63
0.46
0.61
0.46
0.12
0.17
0.10
0.14
0.14
0.12
0.09
0.12
0.10
0.14
0.10
0.10
0.09
0.12
0.15
0.12
0.17
0.22
0.22
0.27
0.32
0.35
0.35
0.36
0.35
0.33
0.33
0.28
0.17
0.17
0.12
0.09
0.08
0.08
0.07
0.08
0.07
0.07
0.09
0.03
0.09
0.09
0.09
0.09
0.09
0.09
0.09
0.09
0.09
0.10
0.09
0.09
0.08
0.09
0.09
0.09
0.07
0.09
0.08
0.09
0.05
0.03
0.02
0.02
0.02
0.06
0.01
0.02
0.02
0.09
0.14
0.12
0.09
0.10
0.12
0.12
0.10
0.28
0.03
0.05
0.73
0.46
0.62
0.54
0.51
0.45
0.14
0.15
0.12
0.10
0.08
0.09
0.07
0.07
0.08
0.08
0.07
0.07
0.08
0.08
0.09
0.09
0.10
0.12
0.17
0.17
0.20
0.27
0.29
0.29
0.29
0.28
0.22
0.17
0.14
0.10
0.09
0.05
0.02
0.02
0.02
0.01
0.01
0.02
0.01
0.01
0.00
0.00
0.01
0.01
0.00
0.00
0.01
0.01
0.00
0.01
0.01
0.00
0.00
0.01
0.01
0.01
0.02
0.01
0.01
0.02
0.02
0.02
0.07
0.02
0.09
0.04
0.34
0.08
0.06
0.02
0.02
0.02
0.01
0.00
0.00
0.02
0.01
0.01
0.03
0.06
0.78
0.17
0.66
0.53
0.73
0.43
0.07
0.02
0.01
0.01
0.02
0.02
0.02
0.02
0.02
0.02
0.02
0.02
0.02
0.01
0.00
0.00
0.00
0.02
0.02
0.05
0.08
0.10
0.12
0.14
0.14
0.14
0.10
0.07
0.03
0.01
0.00
0.02
0.06
0.08
0.08
0.09
0.09
0.09
0.09
0.09
0.09
0.09
0.09
0.09
0.09
0.09
0.09
0.09
0.09
0.09
0.09
0.09
0.09
0.09
0.09
0.09
0.09
0.09
0.08
0.09
0.08
0.11
0.27
0.07
0.27
0.18
0.42
0.11
0.11
0.02
0.01
0.00
0.01
0.01
0.00
0.01
0.02
0.02
0.00
0.01
0.81
0.39
0.65
0.44
0.68
0.43
0.02
0.02
0.02
0.01
0.00
0.00
0.00
0.02
0.01
0.01
0.00
0.00
0.02
0.02
0.02
0.02
0.05
0.07
0.09
0.12
0.17
0.20
0.22
0.25
0.22
0.22
0.17
0.14
0.08
0.02
0.02
0.01
0.00
0.02
0.02
0.02
0.04
0.02
0.02
0.00
0.01
0.02
0.02
0.01
0.02
0.02
0.02
0.00
0.02
0.02
0.02
0.02
0.02
0.02
0.02
0.01
0.02
0.02
0.01
0.00
0.01
0.02
0.06
0.04
0.02
0.04
0.27
0.09
0.06
0.06
0.02
0.02
0.03
0.02
0.02
0.03
0.02
0.03
0.17
0.02
0.00
0.74
0.48
0.54
0.50
0.46
0.44
0.09
0.12
0.12
0.08
0.07
0.07
0.08
0.07
0.05
0.08
0.08
0.05
0.08
0.08
0.08
0.09
0.09
0.12
0.14
0.14
0.17
0.17
0.20
0.17
0.20
0.17
0.17
0.12
0.08
0.03
0.02
0.02
0.00
0.01
0.01
0.02
0.02
0.04
0.02
0.02
0.02
0.02
0.02
0.02
0.02
0.02
0.02
0.02
0.02
0.02
0.02
0.02
0.02
0.02
0.02
0.02
0.02
0.02
0.02
0.02
0.00
0.02
0.07
0.00
0.06
0.04
0.09
0.02
0.02
0.03
0.09
0.08
0.08
0.07
0.05
0.08
0.08
0.10
0.07
0.02
0.80
0.42
0.70
0.50
0.69
0.46
0.09
0.08
0.07
0.02
0.01
0.01
0.00
0.01
0.02
0.02
0.02
0.02
0.02
0.04
0.04
0.04
0.02
0.02
0.02
0.01
0.01
0.02
0.03
0.07
0.07
0.07
0.03
0.02
0.01
0.02
0.07
0.08
0.11
0.18
0.18
0.18
0.18
0.23
0.18
0.18
0.16
0.18
0.18
0.11
0.09
0.16
0.11
0.09
0.09
0.09
0.09
0.09
0.09
0.09
0.11
0.08
0.09
0.08
0.09
0.09
0.11
0.27
0.09
0.31
0.27
0.45
0.18
0.18
0.02
0.02
0.02
0.06
0.06
0.07
0.06
0.06
0.02
0.07
0.06
0.87
0.37
0.62
0.41
0.59
0.39
0.02
0.06
0.07
0.09
0.09
0.09
0.09
0.09
0.09
0.09
0.09
0.09
0.09
0.08
0.08
0.07
0.06
0.02
0.02
0.01
0.02
0.02
0.05
0.08
0.09
0.07
0.05
0.02
0.00
0.02
0.07
0.08
0.09
0.18
0.16
0.23
0.16
0.11
0.11
0.11
0.18
0.09
0.18
0.11
0.11
0.09
0.09
0.09
0.09
0.08
0.07
0.07
0.08
0.06
0.07
0.07
0.06
0.04
0.02
0.08
0.04
0.06
0.08
0.08
0.09
0.07
0.45
0.16
0.07
0.07
0.01
0.02
0.01
0.02
0.01
0.01
0.01
0.01
0.10
0.06
0.09
0.61
0.44
0.50
0.50
0.44
0.33
0.02
0.02
0.03
0.02
0.02
0.02
0.02
0.02
0.02
0.02
0.02
0.02
0.02
0.02
0.05
0.03
0.08
0.08
0.10
0.15
0.17
0.17
0.20
0.22
0.20
0.17
0.12
0.09
0.05
0.02
0.01
0.01
0.02
0.02
0.04
0.04
0.02
0.02
0.02
0.02
0.02
0.02
0.02
0.02
0.02
0.02
0.02
0.02
0.01
0.01
0.00
0.01
0.01
0.01
0.02
0.02
0.01
0.00
0.00
0.02
0.06
0.02
0.06
0.08
0.16
0.08
0.04
0.00
0.03
0.02
0.05
0.05
0.05
0.05
0.05
0.14
0.03
0.07
0.65
0.43
0.66
0.44
0.54
0.50
0.17
0.10
0.07
0.09
0.07
0.03
0.03
0.03
0.02
0.03
0.05
0.03
0.03
0.05
0.02
0.03
0.05
0.07
0.09
0.10
0.10
0.14
0.15
0.17
0.17
0.17
0.15
0.14
0.08
0.05
0.03
0.02
0.02
0.01
0.01
0.02
0.01
0.02
0.02
0.01
0.01
0.01
0.00
0.00
0.00
0.01
0.01
0.00
0.00
0.02
0.01
0.02
0.02
0.01
0.00
0.01
0.02
0.01
0.01
0.00
0.02
0.04
0.02
0.07
0.09
0.11
0.04
0.06
0.03
0.03
0.02
0.01
0.02
0.02
0.00
0.01
0.07
0.04
0.04
0.84
0.43
0.73
0.44
0.56
0.41
0.02
0.02
0.02
0.01
0.00
0.00
0.01
0.00
0.01
0.01
0.02
0.01
0.01
0.01
0.00
0.00
0.01
0.03
0.02
0.07
0.09
0.12
0.12
0.17
0.17
0.15
0.14
0.09
0.07
0.05
0.02
0.00
0.01
0.01
0.02
0.02
0.01
0.00
0.00
0.00
0.00
0.00
0.00
0.00
0.00
0.01
0.00
0.01
0.01
0.01
0.02
0.02
0.01
0.02
0.02
0.02
0.02
0.01
0.02
0.02
0.02
0.01
0.04
0.07
0.08
0.02
0.01
0.07
0.09
0.07
0.03
0.03
0.02
0.03
0.03
0.10
0.01
0.07
0.80
0.46
0.76
0.44
0.63
0.43
0.08
0.07
0.07
0.03
0.02
0.03
0.03
0.02
0.02
0.02
0.02
0.03
0.02
0.02
0.03
0.05
0.05
0.10
0.12
0.17
0.17
0.25
0.27
0.27
0.29
0.28
0.27
0.17
0.14
0.09
0.08
0.03
0.03
0.02
0.02
0.02
0.02
0.02
0.02
0.02
0.02
0.03
0.05
0.03
0.03
0.03
0.03
0.05
0.05
0.05
0.03
0.03
0.05
0.02
0.02
0.03
0.03
0.03
0.03
0.02
0.02
0.02
0.02
0.08
0.02
0.01
0.01
0.09
0.09
0.10
0.08
0.08
0.08
0.09
0.08
0.22
0.03
0.12
0.72
0.48
0.53
0.46
0.51
0.43
0.12
0.17
0.14
0.12
0.12
0.10
0.10
0.14
0.12
0.12
0.14
0.12
0.12
0.15
0.17
0.17
0.15
0.20
0.22
0.29
0.29
0.32
0.36
0.37
0.35
0.35
0.29
0.27
0.17
0.15
0.10
0.09
0.07
0.07
0.07
0.07
0.03
0.03
0.07
0.03
0.08
0.05
0.05
0.07
0.03
0.03
0.07
0.05
0.03
0.05
0.05
0.05
0.03
0.03
0.03
0.03
0.02
0.01
0.02
0.02
0.02
0.01
0.09
0.02
0.00
0.03
0.09
0.07
0.07
0.05
0.07
0.07
0.07
0.10
0.09
0.09
0.61
0.29
0.51
0.43
0.54
0.50
0.14
0.14
0.09
0.09
0.08
0.07
0.08
0.05
0.05
0.05
0.05
0.07
0.05
0.03
0.05
0.05
0.08
0.09
0.10
0.14
0.15
0.17
0.20
0.25
0.22
0.20
0.17
0.15
0.08
0.02
0.02
0.00
0.02
0.02
0.06
0.06
0.06
0.07
0.06
0.06
0.06
0.07
0.07
0.06
0.04
0.07
0.06
0.06
0.07
0.06
0.07
0.06
0.06
0.04
0.08
0.07
0.08
0.09
0.11
0.09
0.09
0.39
0.16
0.08
0.06
0.02
0.01
0.01
0.02
0.01
0.01
0.01
0.01
0.09
0.08
0.23
0.61
0.46
0.62
0.51
0.44
0.15
0.01
0.02
0.01
0.01
0.02
0.02
0.02
0.01
0.02
0.02
0.02
0.01
0.02
0.02
0.00
0.01
0.02
0.02
0.07
0.09
0.12
0.14
0.17
0.17
0.15
0.14
0.09
0.07
0.02
0.01
0.01
0.01
0.02
0.04
0.02
0.02
0.02
0.02
0.02
0.00
0.02
0.01
0.00
0.01
0.01
0.01
0.01
0.00
0.00
0.00
0.01
0.02
0.00
0.01
0.02
0.02
0.02
0.00
0.02
0.01
0.23
0.06
0.02
0.00
0.08
0.07
0.08
0.03
0.07
0.07
0.05
0.08
0.14
0.08
0.18
0.09
0.51
0.42
0.56
0.48
0.25
0.12
0.08
0.05
0.07
0.03
0.02
0.02
0.02
0.05
0.02
0.02
0.03
0.03
0.03
0.03
0.05
0.10
0.08
0.12
0.14
0.17
0.17
0.17
0.17
0.17
0.12
0.08
0.05
0.02
0.02
0.01
0.02
0.02
0.02
0.02
0.02
0.02
0.02
0.02
0.02
0.02
0.02
0.01
0.01
0.01
0.02
0.01
0.01
0.01
0.02
0.01
0.02
0.02
0.01
0.04
0.09
0.02
0.09
0.09
0.42
0.09
0.09
0.02
0.01
0.00
0.00
0.01
0.02
0.01
0.00
0.02
0.02
0.02
0.68
0.14
0.45
0.41
0.48
0.44
0.08
0.02
0.01
0.01
0.01
0.02
0.02
0.02
0.02
0.04
0.02
0.02
0.04
0.04
0.04
0.02
0.02
0.02
0.02
0.00
0.02
0.02
0.02
0.07
0.05
0.03
0.02
0.02
0.02
0.06
0.08
0.09
0.11
0.18
0.18
0.18
0.18
0.23
0.18
0.18
0.16
0.23
0.18
0.18
0.11
0.09
0.09
0.11
0.09
0.11
0.08
0.11
0.08
0.09
0.11
0.16
0.23
0.09
0.27
0.31
0.39
0.16
0.11
0.02
0.01
0.02
0.07
0.06
0.07
0.06
0.06
0.01
0.11
0.08
0.87
0.39
0.63
0.39
0.46
0.29
0.06
0.02
0.06
0.07
0.07
0.08
0.07
0.08
0.08
0.06
0.08
0.09
0.07
0.07
0.08
0.06
0.02
0.02
0.00
0.02
0.02
0.07
0.09
0.09
0.09
0.09
0.02
0.01
0.01
0.02
0.06
0.09
0.11
0.16
0.16
0.16
0.11
0.16
0.09
0.09
0.11
0.11
0.11
0.09
0.16
0.11
0.11
0.11
0.16
0.09
0.11
0.11
0.16
0.11
0.11
0.16
0.27
0.18
0.18
0.23
0.50
0.31
0.18
0.11
0.02
0.02
0.02
0.06
0.07
0.06
0.02
0.02
0.02
0.16
0.23
0.67
0.44
0.56
0.45
0.44
0.15
0.01
0.00
0.01
0.06
0.02
0.02
0.02
0.02
0.02
0.02
0.02
0.02
0.01
0.01
0.01
0.02
0.02
0.03
0.07
0.08
0.14
0.15
0.17
0.17
0.12
0.12
0.08
0.02
0.02
0.02
0.06
0.07
0.09
0.09
0.09
0.08
0.08
0.08
0.08
0.07
0.06
0.02
0.07
0.02
0.04
0.02
0.02
0.02
0.02
0.04
0.02
0.02
0.01
0.02
0.01
0.01
0.04
0.02
0.02
0.02
0.23
0.07
0.02
0.02
0.02
0.05
0.03
0.02
0.07
0.03
0.02
0.07
0.17
0.05
0.00
0.31
0.54
0.43
0.53
0.45
0.39
0.10
0.09
0.09
0.09
0.09
0.09
0.09
0.09
0.08
0.09
0.09
0.09
0.09
0.10
0.12
0.15
0.15
0.15
0.17
0.20
0.27
0.25
0.28
0.27
0.25
0.20
0.15
0.10
0.09
0.05
0.02
0.02
0.01
0.01
0.00
0.00
0.00
0.01
0.01
0.01
0.02
0.01
0.01
0.01
0.00
0.01
0.01
0.01
0.01
0.01
0.00
0.00
0.01
0.00
0.01
0.02
0.06
0.01
0.07
0.02
0.16
0.02
0.04
0.02
0.05
0.05
0.02
0.02
0.02
0.05
0.03
0.08
0.08
0.02
0.62
0.22
0.50
0.43
0.58
0.46
0.12
0.08
0.05
0.03
0.02
0.02
0.02
0.02
0.01
0.01
0.02
0.02
0.02
0.02
0.02
0.02
0.02
0.03
0.05
0.07
0.09
0.10
0.14
0.15
0.14
0.15
0.14
0.09
0.03
0.02
0.02
0.01
0.01
0.02
0.02
0.02
0.02
0.02
0.02
0.01
0.02
0.00
0.02
0.01
0.01
0.02
0.00
0.02
0.00
0.02
0.02
0.02
0.02
0.02
0.01
0.01
0.02
0.01
0.00
0.02
0.08
0.02
0.01
0.02
0.10
0.09
0.09
0.05
0.09
0.08
0.09
0.10
0.22
0.02
0.02
0.60
0.53
0.78
0.59
0.53
0.39
0.14
0.14
0.12
0.09
0.09
0.07
0.08
0.07
0.07
0.07
0.05
0.07
0.07
0.05
0.08
0.09
0.09
0.12
0.12
0.17
0.20
0.25
0.27
0.28
0.28
0.22
0.17
0.12
0.09
0.08
0.05
0.02
0.02
0.01
0.01
0.02
0.02
0.02
0.02
0.02
0.02
0.03
0.03
0.02
0.03
0.03
0.02
0.05
0.03
0.05
0.05
0.05
0.05
0.05
0.07
0.03
0.01
0.07
0.00
0.03
0.04
0.02
0.02
0.08
0.12
0.10
0.09
0.09
0.09
0.10
0.09
0.14
0.15
0.15
0.52
0.32
0.63
0.46
0.70
0.51
0.22
0.22
0.17
0.15
0.15
0.14
0.12
0.12
0.12
0.15
0.15
0.12
0.14
0.14
0.17
0.17
0.20
0.22
0.27
0.29
0.35
0.36
0.39
0.39
0.36
0.37
0.33
0.25
0.17
0.15
0.14
0.08
0.09
0.08
0.08
0.05
0.08
0.08
0.09
0.09
0.09
0.08
0.08
0.09
0.09
0.09
0.08
0.09
0.09
0.12
0.09
0.09
0.09
0.09
0.09
0.07
0.02
0.09
0.02
0.02
0.02
0.03
0.02
0.09
0.17
0.17
0.12
0.15
0.15
0.15
0.15
0.20
0.17
0.17
0.27
0.37
0.63
0.44
0.54
0.53
0.27
0.17
0.12
0.10
0.12
0.09
0.09
0.09
0.09
0.08
0.08
0.07
0.09
0.08
0.07
0.08
0.09
0.09
0.12
0.15
0.15
0.17
0.20
0.17
0.22
0.17
0.17
0.10
0.08
0.03
0.02
0.01
0.01
0.01
0.02
0.02
0.02
0.02
0.02
0.02
0.02
0.02
0.02
0.02
0.02
0.02
0.02
0.06
0.02
0.04
0.02
0.02
0.04
0.04
0.02
0.07
0.09
0.08
0.09
0.09
0.34
0.18
0.09
0.09
0.01
0.01
0.01
0.06
0.04
0.02
0.02
0.04
0.02
0.18
0.18
0.81
0.43
0.62
0.44
0.44
0.27
0.04
0.02
0.04
0.07
0.07
0.07
0.07
0.09
0.09
0.07
0.07
0.08
0.08
0.08
0.08
0.06
0.06
0.02
0.00
0.01
0.02
0.03
0.07
0.08
0.07
0.05
0.03
0.02
0.02
0.04
0.08
0.11
0.11
0.23
0.23
0.23
0.18
0.16
0.16
0.16
0.11
0.18
0.11
0.11
0.16
0.11
0.16
0.16
0.16
0.18
0.16
0.11
0.23
0.18
0.18
0.18
0.31
0.39
0.18
0.45
0.34
0.53
0.39
0.34
0.09
0.07
0.08
0.16
0.11
0.11
0.11
0.09
0.09
0.09
0.11
0.82
0.17
0.50
0.36
0.51
0.37
0.06
0.07
0.07
0.09
0.16
0.16
0.16
0.16
0.16
0.16
0.18
0.16
0.16
0.18
0.16
0.09
0.09
0.08
0.06
0.04
0.01
0.01
0.02
0.02
0.05
0.02
0.01
0.02
0.04
0.09
0.11
0.11
0.16
0.27
0.16
0.16
0.16
0.16
0.16
0.09
0.09
0.09
0.08
0.08
0.07
0.06
0.07
0.06
0.02
0.06
0.04
0.04
0.02
0.02
0.04
0.02
0.07
0.09
0.02
0.18
0.07
0.27
0.11
0.09
0.02
0.01
0.01
0.02
0.02
0.02
0.01
0.02
0.01
0.02
0.02
0.65
0.10
0.44
0.35
0.48
0.43
0.05
0.02
0.01
0.01
0.01
0.00
0.00
0.01
0.01
0.01
0.01
0.01
0.02
0.02
0.02
0.05
0.05
0.08
0.12
0.12
0.15
0.17
0.20
0.17
0.17
0.17
0.12
0.08
0.02
0.02
0.02
0.01
0.02
0.02
0.02
0.02
0.02
0.02
0.02
0.02
0.02
0.02
0.02
0.02
0.02
0.01
0.00
0.01
0.01
0.01
0.01
0.00
0.01
0.01
0.00
0.00
0.02
0.06
0.02
0.06
0.02
0.23
0.09
0.02
0.02
0.02
0.02
0.02
0.02
0.02
0.03
0.03
0.07
0.09
0.03
0.46
0.08
0.50
0.42
0.50
0.46
0.17
0.07
0.02
0.02
0.01
0.01
0.02
0.02
0.01
0.02
0.00
0.01
0.00
0.02
0.02
0.00
0.02
0.02
0.02
0.05
0.07
0.08
0.10
0.12
0.10
0.12
0.09
0.05
0.03
0.01
0.01
0.02
0.02
0.04
0.04
0.07
0.06
0.07
0.06
0.07
0.06
0.07
0.07
0.07
0.04
0.06
0.06
0.07
0.06
0.06
0.06
0.07
0.06
0.06
0.09
0.07
0.07
0.09
0.23
0.09
0.31
0.11
0.46
0.23
0.16
0.04
0.02
0.04
0.02
0.06
0.06
0.06
0.04
0.04
0.02
0.11
0.65
0.34
0.46
0.53
0.56
0.43
0.10
0.02
0.02
0.02
0.04
0.07
0.06
0.06
0.06
0.07
0.08
0.07
0.07
0.04
0.06
0.06
0.02
0.02
0.01
0.00
0.02
0.07
0.08
0.09
0.10
0.12
0.09
0.08
0.02
0.02
0.02
0.04
0.06
0.07
0.07
0.08
0.08
0.08
0.06
0.07
0.04
0.04
0.04
0.06
0.02
0.04
0.02
0.06
0.04
0.04
0.04
0.07
0.04
0.04
0.04
0.06
0.06
0.04
0.08
0.11
0.04
0.11
0.18
0.27
0.09
0.09
0.00
0.00
0.00
0.02
0.02
0.02
0.02
0.02
0.02
0.08
0.02
0.83
0.43
0.69
0.43
0.48
0.35
0.00
0.00
0.01
0.02
0.02
0.04
0.04
0.06
0.04
0.02
0.04
0.02
0.02
0.02
0.02
0.02
0.01
0.02
0.02
0.05
0.09
0.12
0.14
0.15
0.15
0.15
0.10
0.05
0.05
0.02
0.01
0.02
0.02
0.01
0.01
0.02
0.01
0.00
0.00
0.00
0.01
0.01
0.02
0.02
0.00
0.02
0.00
0.02
0.01
0.02
0.02
0.02
0.02
0.03
0.02
0.02
0.02
0.02
0.02
0.02
0.01
0.01
0.06
0.00
0.00
0.05
0.10
0.08
0.07
0.10
0.10
0.09
0.09
0.14
0.09
0.14
0.60
0.39
0.58
0.43
0.58
0.50
0.17
0.17
0.14
0.10
0.10
0.10
0.09
0.10
0.09
0.09
0.12
0.09
0.12
0.14
0.17
0.15
0.15
0.20
0.25
0.25
0.28
0.35
0.33
0.33
0.33
0.33
0.27
0.22
0.17
0.14
0.09
0.09
0.10
0.08
0.08
0.05
0.08
0.09
0.09
0.08
0.09
0.09
0.09
0.09
0.09
0.09
0.10
0.09
0.09
0.09
0.12
0.10
0.09
0.10
0.09
0.10
0.09
0.08
0.02
0.10
0.02
0.05
0.04
0.02
0.02
0.07
0.12
0.10
0.09
0.08
0.10
0.10
0.12
0.17
0.12
0.10
0.59
0.33
0.53
0.44
0.53
0.50
0.15
0.15
0.09
0.09
0.09
0.09
0.07
0.07
0.07
0.07
0.07
0.07
0.05
0.05
0.08
0.05
0.09
0.09
0.10
0.12
0.15
0.17
0.20
0.20
0.20
0.20
0.17
0.12
0.09
0.08
0.05
0.02
0.01
0.00
0.00
0.01
0.02
0.02
0.02
0.02
0.02
0.02
0.02
0.02
0.02
0.02
0.02
0.00
0.02
0.02
0.00
0.01
0.02
0.01
0.01
0.00
0.02
0.01
0.02
0.04
0.07
0.02
0.06
0.11
0.09
0.02
0.06
0.02
0.02
0.02
0.01
0.01
0.00
0.00
0.00
0.08
0.08
0.09
0.81
0.44
0.74
0.45
0.50
0.33
0.00
0.01
0.01
0.02
0.02
0.02
0.02
0.02
0.02
0.02
0.04
0.02
0.02
0.02
0.02
0.02
0.00
0.01
0.02
0.03
0.08
0.09
0.09
0.12
0.12
0.12
0.08
0.03
0.01
0.00
0.02
0.04
0.06
0.07
0.08
0.07
0.08
0.07
0.08
0.07
0.07
0.06
0.07
0.07
0.07
0.06
0.07
0.08
0.07
0.06
0.07
0.08
0.07
0.06
0.07
0.08
0.06
0.07
0.06
0.16
0.09
0.09
0.11
0.45
0.23
0.16
0.09
0.02
0.02
0.02
0.02
0.06
0.02
0.02
0.02
0.07
0.09
0.42
0.50
0.46
0.59
0.58
0.44
0.15
0.01
0.02
0.01
0.02
0.02
0.02
0.02
0.02
0.02
0.02
0.01
0.01
0.01
0.01
0.01
0.02
0.02
0.08
0.10
0.17
0.15
0.17
0.22
0.25
0.17
0.17
0.12
0.09
0.02
0.02
0.02
0.00
0.02
0.06
0.04
0.02
0.04
0.04
0.02
0.02
0.02
0.02
0.04
0.02
0.02
0.04
0.02
0.02
0.06
0.06
0.02
0.02
0.02
0.02
0.06
0.04
0.04
0.04
0.04
0.09
0.04
0.09
0.18
0.27
0.09
0.09
0.00
0.02
0.02
0.01
0.01
0.01
0.02
0.02
0.14
0.02
0.02
0.72
0.46
0.51
0.45
0.46
0.42
0.03
0.07
0.07
0.02
0.01
0.01
0.02
0.02
0.02
0.02
0.03
0.02
0.02
0.02
0.03
0.08
0.07
0.09
0.10
0.14
0.15
0.17
0.17
0.17
0.17
0.15
0.09
0.08
0.03
0.02
0.01
0.00
0.02
0.02
0.02
0.02
0.02
0.02
0.02
0.02
0.02
0.02
0.02
0.02
0.02
0.02
0.04
0.02
0.02
0.02
0.02
0.04
0.06
0.04
0.06
0.04
0.06
0.07
0.08
0.09
0.09
0.09
0.09
0.39
0.23
0.11
0.09
0.02
0.00
0.01
0.04
0.02
0.02
0.02
0.01
0.09
0.09
0.16
0.79
0.43
0.56
0.46
0.44
0.29
0.02
0.02
0.02
0.02
0.04
0.07
0.07
0.08
0.07
0.08
0.08
0.09
0.08
0.08
0.09
0.08
0.04
0.04
0.02
0.00
0.01
0.02
0.03
0.05
0.05
0.03
0.02
0.01
0.02
0.06
0.09
0.11
0.18
0.16
0.18
0.18
0.18
0.11
0.18
0.27
0.11
0.18
0.18
0.18
0.09
0.18
0.16
0.16
0.09
0.11
0.11
0.11
0.11
0.09
0.09
0.09
0.09
0.09
0.09
0.16
0.23
0.09
0.23
0.34
0.39
0.16
0.11
0.02
0.01
0.02
0.04
0.06
0.04
0.06
0.04
0.01
0.11
0.09
0.87
0.42
0.67
0.43
0.50
0.36
0.04
0.06
0.04
0.04
0.08
0.08
0.07
0.09
0.08
0.08
0.09
0.09
0.08
0.09
0.07
0.04
0.04
0.02
0.00
0.02
0.03
0.05
0.09
0.10
0.10
0.09
0.05
0.02
0.00
0.02
0.04
0.08
0.09
0.09
0.11
0.09
0.11
0.09
0.09
0.09
0.09
0.11
0.09
0.09
0.09
0.09
0.06
0.09
0.08
0.08
0.07
0.07
0.06
0.07
0.07
0.07
0.06
0.07
0.07
0.07
0.09
0.16
0.09
0.16
0.09
0.45
0.18
0.09
0.04
0.02
0.00
0.00
0.01
0.02
0.01
0.00
0.01
0.08
0.06
0.55
0.04
0.51
0.59
0.65
0.44
0.15
0.02
0.02
0.01
0.01
0.00
0.01
0.00
0.00
0.01
0.01
0.02
0.02
0.01
0.02
0.03
0.05
0.07
0.09
0.14
0.17
0.17
0.22
0.28
0.29
0.27
0.25
0.17
0.12
0.09
0.03
0.02
0.02
0.01
0.01
0.01
0.01
0.00
0.02
0.02
0.01
0.02
0.02
0.02
0.02
0.03
0.02
0.02
0.02
0.02
0.02
0.02
0.02
0.05
0.02
0.02
0.02
0.07
0.03
0.03
0.02
0.02
0.02
0.01
0.00
0.11
0.02
0.01
0.03
0.12
0.09
0.09
0.08
0.08
0.09
0.08
0.12
0.14
0.10
0.11
0.17
0.61
0.44
0.62
0.51
0.29
0.17
0.14
0.10
0.10
0.12
0.09
0.09
0.10
0.12
0.10
0.14
0.12
0.14
0.14
0.15
0.17
0.20
0.22
0.25
0.29
0.28
0.29
0.32
0.29
0.28
0.25
0.15
0.12
0.09
0.08
0.03
0.02
0.02
0.02
0.01
0.01
0.00
0.01
0.00
0.00
0.00
0.01
0.01
0.00
0.01
0.01
0.01
0.01
0.01
0.01
0.02
0.01
0.00
0.01
0.02
0.01
0.01
0.02
0.00
0.02
0.01
0.02
0.01
0.16
0.07
0.00
0.02
0.05
0.07
0.07
0.02
0.03
0.03
0.03
0.05
0.17
0.00
0.07
0.65
0.46
0.67
0.59
0.51
0.37
0.07
0.07
0.03
0.02
0.02
0.02
0.02
0.02
0.01
0.00
0.01
0.02
0.01
0.00
0.01
0.02
0.02
0.03
0.08
0.09
0.14
0.14
0.17
0.22
0.17
0.17
0.14
0.09
0.05
0.02
0.01
0.01
0.02
0.02
0.02
0.02
0.02
0.02
0.01
0.00
0.02
0.01
0.01
0.01
0.00
0.01
0.00
0.02
0.00
0.00
0.01
0.01
0.02
0.01
0.00
0.00
0.02
0.00
0.00
0.02
0.02
0.02
0.04
0.02
0.23
0.08
0.06
0.02
0.05
0.02
0.02
0.01
0.00
0.01
0.01
0.00
0.08
0.08
0.60
0.02
0.51
0.54
0.67
0.44
0.09
0.00
0.01
0.02
0.02
0.02
0.04
0.02
0.02
0.02
0.02
0.02
0.02
0.01
0.02
0.02
0.00
0.02
0.02
0.03
0.08
0.09
0.12
0.12
0.12
0.14
0.09
0.08
0.02
0.02
0.02
0.02
0.02
0.04
0.06
0.04
0.06
0.06
0.02
0.04
0.04
0.02
0.06
0.07
0.07
0.06
0.07
0.06
0.08
0.07
0.04
0.06
0.06
0.02
0.07
0.08
0.04
0.04
0.04
0.02
0.07
0.09
0.02
0.11
0.06
0.27
0.09
0.07
0.01
0.02
0.01
0.02
0.02
0.02
0.01
0.02
0.02
0.05
0.02
0.62
0.17
0.51
0.43
0.63
0.44
0.12
0.08
0.07
0.03
0.02
0.02
0.02
0.02
0.02
0.02
0.02
0.03
0.02
0.03
0.08
0.08
0.09
0.09
0.14
0.17
0.17
0.22
0.28
0.28
0.28
0.27
0.20
0.17
0.09
0.08
0.02
0.02
0.01
0.01
0.01
0.00
0.02
0.00
0.00
0.00
0.02
0.00
0.02
0.02
0.02
0.02
0.02
0.02
0.02
0.01
0.02
0.02
0.01
0.01
0.02
0.02
0.02
0.02
0.00
0.01
0.02
0.01
0.02
0.09
0.09
0.02
0.06
0.02
0.05
0.02
0.01
0.03
0.03
0.02
0.05
0.15
0.02
0.02
0.72
0.42
0.51
0.43
0.46
0.44
0.07
0.09
0.03
0.02
0.02
0.02
0.01
0.01
0.02
0.00
0.00
0.00
0.01
0.01
0.01
0.01
0.02
0.02
0.03
0.05
0.09
0.09
0.14
0.12
0.15
0.15
0.09
0.05
0.02
0.02
0.02
0.02
0.06
0.06
0.04
0.08
0.07
0.08
0.07
0.09
0.07
0.08
0.08
0.09
0.09
0.09
0.09
0.08
0.08
0.08
0.07
0.07
0.08
0.07
0.07
0.07
0.08
0.07
0.09
0.27
0.08
0.23
0.11
0.46
0.23
0.16
0.02
0.02
0.02
0.02
0.04
0.02
0.02
0.02
0.02
0.02
0.07
0.73
0.08
0.51
0.46
0.65
0.43
0.05
0.01
0.00
0.01
0.02
0.02
0.04
0.02
0.04
0.04
0.02
0.04
0.02
0.02
0.06
0.02
0.02
0.01
0.00
0.02
0.03
0.08
0.09
0.09
0.12
0.12
0.09
0.05
0.02
0.00
0.02
0.06
0.08
0.08
0.09
0.09
0.09
0.09
0.09
0.08
0.09
0.09
0.09
0.09
0.11
0.09
0.09
0.11
0.11
0.09
0.11
0.09
0.09
0.09
0.09
0.09
0.08
0.08
0.09
0.27
0.08
0.23
0.09
0.50
0.18
0.09
0.02
0.00
0.02
0.00
0.02
0.02
0.02
0.02
0.01
0.05
0.06
0.46
0.09
0.50
0.46
0.58
0.44
0.12
0.01
0.01
0.01
0.02
0.02
0.02
0.02
0.02
0.02
0.04
0.04
0.04
0.02
0.04
0.02
0.02
0.01
0.02
0.02
0.09
0.09
0.10
0.14
0.15
0.14
0.12
0.08
0.05
0.01
0.01
0.02
0.02
0.04
0.07
0.06
0.07
0.04
0.07
0.07
0.07
0.04
0.06
0.07
0.02
0.02
0.02
0.02
0.02
0.02
0.02
0.02
0.01
0.02
0.01
0.02
0.01
0.01
0.02
0.07
0.02
0.04
0.04
0.31
0.08
0.04
0.02
0.02
0.02
0.02
0.01
0.02
0.02
0.02
0.02
0.14
0.02
0.02
0.53
0.44
0.44
0.50
0.46
0.39
0.07
0.09
0.08
0.08
0.05
0.03
0.08
0.03
0.05
0.08
0.07
0.09
0.09
0.08
0.09
0.10
0.14
0.15
0.17
0.22
0.28
0.28
0.29
0.29
0.28
0.22
0.17
0.15
0.07
0.07
0.02
0.02
0.02
0.01
0.00
0.01
0.01
0.01
0.00
0.00
0.02
0.00
0.01
0.00
0.01
0.01
0.00
0.01
0.01
0.00
0.02
0.01
0.00
0.01
0.01
0.01
0.02
0.04
0.06
0.02
0.07
0.08
0.23
0.08
0.07
0.01
0.02
0.02
0.02
0.02
0.02
0.02
0.02
0.09
0.02
0.02
0.72
0.28
0.48
0.43
0.46
0.46
0.10
0.09
0.03
0.05
0.05
0.02
0.02
0.02
0.02
0.02
0.02
0.02
0.02
0.02
0.02
0.02
0.05
0.03
0.08
0.09
0.10
0.12
0.14
0.14
0.15
0.10
0.09
0.05
0.02
0.00
0.02
0.04
0.06
0.09
0.09
0.09
0.09
0.09
0.09
0.09
0.09
0.09
0.09
0.11
0.09
0.08
0.09
0.09
0.07
0.07
0.08
0.08
0.07
0.07
0.08
0.08
0.07
0.08
0.18
0.11
0.09
0.11
0.46
0.27
0.11
0.09
0.02
0.02
0.02
0.06
0.02
0.04
0.02
0.02
0.02
0.09
0.08
0.82
0.44
0.68
0.43
0.46
0.36
0.00
0.01
0.00
0.01
0.02
0.02
0.02
0.02
0.02
0.02
0.02
0.02
0.02
0.02
0.00
0.01
0.02
0.02
0.03
0.09
0.10
0.12
0.15
0.14
0.14
0.12
0.08
0.05
0.02
0.00
0.02
0.02
0.02
0.07
0.07
0.06
0.06
0.06
0.04
0.02
0.02
0.02
0.04
0.04
0.02
0.02
0.02
0.02
0.02
0.02
0.02
0.02
0.02
0.01
0.01
0.00
0.01
0.01
0.04
0.02
0.02
0.02
0.11
0.04
0.02
0.01
0.08
0.08
0.08
0.03
0.03
0.05
0.07
0.08
0.17
0.02
0.00
0.52
0.51
0.71
0.59
0.53
0.41
0.12
0.14
0.12
0.10
0.09
0.09
0.09
0.09
0.09
0.09
0.09
0.09
0.09
0.09
0.12
0.14
0.14
0.17
0.17
0.27
0.29
0.32
0.32
0.35
0.32
0.29
0.27
0.22
0.17
0.12
0.10
0.09
0.08
0.07
0.05
0.07
0.07
0.07
0.09
0.08
0.07
0.08
0.09
0.08
0.09
0.09
0.09
0.09
0.09
0.09
0.09
0.12
0.09
0.12
0.12
0.12
0.14
0.15
0.10
0.10
0.07
0.12
0.07
0.09
0.02
0.03
0.07
0.14
0.20
0.20
0.17
0.15
0.17
0.15
0.17
0.25
0.17
0.22
0.55
0.43
0.63
0.44
0.67
0.56
0.28
0.27
0.25
0.25
0.20
0.17
0.20
0.25
0.20
0.20
0.25
0.27
0.22
0.22
0.22
0.28
0.29
0.32
0.35
0.36
0.36
0.39
0.39
0.39
0.39
0.39
0.35
0.29
0.22
0.20
0.17
0.15
0.14
0.12
0.12
0.10
0.10
0.09
0.12
0.12
0.10
0.10
0.14
0.10
0.14
0.12
0.12
0.14
0.14
0.14
0.15
0.15
0.10
0.12
0.15
0.12
0.14
0.12
0.09
0.08
0.08
0.09
0.07
0.00
0.01
0.05
0.05
0.14
0.15
0.15
0.09
0.09
0.10
0.09
0.09
0.20
0.05
0.07
0.73
0.43
0.56
0.44
0.50
0.43
0.09
0.09
0.08
0.05
0.05
0.05
0.03
0.05
0.02
0.02
0.02
0.02
0.02
0.02
0.02
0.02
0.05
0.02
0.08
0.08
0.09
0.09
0.12
0.14
0.14
0.10
0.09
0.02
0.02
0.02
0.02
0.06
0.07
0.08
0.09
0.09
0.09
0.08
0.08
0.08
0.08
0.08
0.08
0.07
0.06
0.07
0.06
0.09
0.07
0.08
0.06
0.07
0.07
0.07
0.08
0.07
0.07
0.07
0.08
0.09
0.16
0.08
0.18
0.27
0.31
0.11
0.09
0.02
0.02
0.02
0.02
0.04
0.02
0.02
0.02
0.02
0.09
0.06
0.82
0.44
0.68
0.44
0.46
0.29
0.01
0.00
0.00
0.01
0.02
0.02
0.02
0.02
0.04
0.02
0.02
0.04
0.04
0.02
0.02
0.01
0.00
0.01
0.02
0.05
0.05
0.09
0.12
0.10
0.09
0.09
0.05
0.02
0.01
0.04
0.06
0.09
0.11
0.09
0.16
0.11
0.11
0.11
0.09
0.09
0.11
0.11
0.09
0.11
0.16
0.09
0.16
0.09
0.11
0.16
0.09
0.09
0.11
0.11
0.09
0.11
0.16
0.11
0.09
0.11
0.27
0.31
0.18
0.31
0.50
0.39
0.27
0.23
0.02
0.06
0.02
0.09
0.06
0.06
0.06
0.06
0.02
0.16
0.18
0.73
0.43
0.54
0.45
0.43
0.17
0.02
0.02
0.02
0.02
0.06
0.07
0.07
0.06
0.06
0.04
0.02
0.02
0.02
0.02
0.02
0.00
0.02
0.02
0.07
0.09
0.15
0.17
0.17
0.17
0.17
0.14
0.12
0.03
0.02
0.01
0.04
0.02
0.06
0.07
0.07
0.07
0.07
0.02
0.06
0.02
0.02
0.02
0.04
0.02
0.02
0.02
0.02
0.02
0.02
0.02
0.02
0.01
0.02
0.02
0.02
0.02
0.02
0.02
0.02
0.02
0.09
0.01
0.09
0.07
0.23
0.08
0.07
0.02
0.02
0.02
0.01
0.02
0.03
0.05
0.08
0.10
0.07
0.08
0.61
0.41
0.59
0.43
0.50
0.50
0.14
0.15
0.10
0.09
0.09
0.08
0.09
0.09
0.08
0.08
0.09
0.09
0.09
0.09
0.10
0.12
0.14
0.15
0.17
0.17
0.22
0.27
0.27
0.28
0.28
0.25
0.20
0.17
0.12
0.08
0.07
0.03
0.02
0.02
0.02
0.02
0.02
0.01
0.02
0.02
0.02
0.02
0.02
0.03
0.03
0.02
0.03
0.07
0.07
0.05
0.05
0.07
0.08
0.07
0.07
0.07
0.05
0.07
0.03
0.02
0.01
0.02
0.01
0.02
0.09
0.01
0.00
0.03
0.09
0.08
0.05
0.05
0.05
0.07
0.05
0.09
0.12
0.02
0.60
0.17
0.62
0.51
0.69
0.46
0.12
0.09
0.07
0.07
0.05
0.03
0.02
0.02
0.02
0.02
0.02
0.02
0.03
0.05
0.05
0.07
0.09
0.10
0.10
0.14
0.17
0.25
0.27
0.27
0.28
0.27
0.20
0.17
0.12
0.10
0.07
0.02
0.02
0.01
0.02
0.00
0.00
0.02
0.01
0.01
0.01
0.01
0.02
0.01
0.01
0.01
0.02
0.01
0.00
0.00
0.01
0.01
0.00
0.00
0.02
0.01
0.00
0.01
0.00
0.02
0.06
0.01
0.06
0.02
0.18
0.07
0.04
0.00
0.03
0.02
0.02
0.02
0.00
0.02
0.02
0.02
0.09
0.02
0.53
0.03
0.56
0.51
0.68
0.46
0.12
0.08
0.05
0.05
0.02
0.03
0.02
0.03
0.02
0.02
0.02
0.05
0.05
0.03
0.03
0.05
0.08
0.08
0.09
0.14
0.15
0.17
0.22
0.27
0.27
0.20
0.17
0.15
0.10
0.03
0.02
0.00
0.02
0.02
0.04
0.04
0.02
0.04
0.04
0.06
0.02
0.06
0.06
0.04
0.04
0.04
0.06
0.04
0.04
0.02
0.04
0.04
0.04
0.02
0.04
0.02
0.02
0.02
0.02
0.02
0.06
0.06
0.09
0.04
0.09
0.23
0.16
0.08
0.08
0.02
0.02
0.01
0.02
0.01
0.00
0.00
0.01
0.09
0.02
0.02
0.80
0.42
0.50
0.42
0.45
0.43
0.03
0.07
0.03
0.02
0.02
0.02
0.00
0.01
0.02
0.02
0.01
0.02
0.02
0.02
0.03
0.07
0.05
0.08
0.10
0.12
0.17
0.17
0.17
0.20
0.20
0.17
0.12
0.09
0.05
0.03
0.01
0.02
0.04
0.02
0.02
0.02
0.02
0.02
0.02
0.02
0.02
0.02
0.01
0.02
0.01
0.02
0.02
0.02
0.02
0.02
0.02
0.02
0.02
0.02
0.02
0.02
0.02
0.02
0.02
0.04
0.08
0.02
0.09
0.07
0.34
0.11
0.09
0.04
0.01
0.00
0.02
0.02
0.02
0.02
0.02
0.00
0.01
0.02
0.73
0.09
0.44
0.37
0.44
0.43
0.02
0.01
0.04
0.02
0.04
0.06
0.07
0.06
0.07
0.07
0.07
0.06
0.06
0.08
0.06
0.04
0.02
0.02
0.01
0.01
0.02
0.02
0.05
0.08
0.08
0.05
0.02
0.00
0.02
0.08
0.09
0.16
0.23
0.31
0.39
0.39
0.39
0.39
0.42
0.34
0.34
0.34
0.42
0.31
0.31
0.34
0.31
0.34
0.27
0.34
0.31
0.31
0.31
0.27
0.31
0.31
0.27
0.27
0.31
0.31
0.45
0.42
0.31
0.45
0.57
0.50
0.42
0.42
0.09
0.08
0.11
0.18
0.11
0.11
0.16
0.09
0.02
0.27
0.23
0.87
0.41
0.59
0.43
0.43
0.28
0.08
0.06
0.09
0.09
0.11
0.09
0.11
0.18
0.11
0.18
0.16
0.16
0.16
0.11
0.09
0.11
0.09
0.06
0.04
0.02
0.01
0.02
0.02
0.03
0.02
0.03
0.00
0.02
0.07
0.09
0.16
0.27
0.27
0.31
0.31
0.31
0.27
0.27
0.18
0.31
0.16
0.23
0.18
0.23
0.18
0.23
0.18
0.27
0.23
0.27
0.18
0.27
0.27
0.23
0.31
0.23
0.27
0.27
0.27
0.39
0.50
0.31
0.52
0.52
0.55
0.45
0.42
0.11
0.07
0.09
0.11
0.16
0.11
0.16
0.09
0.07
0.11
0.08
0.86
0.28
0.46
0.33
0.44
0.39
0.02
0.02
0.02
0.02
0.04
0.02
0.02
0.02
0.02
0.02
0.02
0.02
0.02
0.01
0.01
0.00
0.02
0.02
0.05
0.08
0.12
0.14
0.17
0.17
0.15
0.15
0.10
0.07
0.01
0.01
0.02
0.02
0.04
0.06
0.06
0.02
0.02
0.06
0.04
0.06
0.02
0.02
0.02
0.02
0.02
0.01
0.02
0.02
0.01
0.02
0.02
0.02
0.02
0.02
0.02
0.02
0.02
0.00
0.01
0.04
0.07
0.02
0.09
0.11
0.18
0.08
0.08
0.00
0.02
0.02
0.00
0.00
0.01
0.01
0.02
0.08
0.02
0.03
0.69
0.41
0.48
0.43
0.45
0.44
0.07
0.08
0.02
0.03
0.02
0.02
0.02
0.02
0.02
0.02
0.01
0.01
0.02
0.02
0.02
0.02
0.02
0.02
0.08
0.07
0.09
0.12
0.14
0.14
0.15
0.14
0.09
0.05
0.02
0.02
0.02
0.02
0.02
0.04
0.06
0.07
0.08
0.08
0.07
0.06
0.07
0.06
0.04
0.04
0.07
0.07
0.04
0.06
0.04
0.04
0.06
0.04
0.06
0.07
0.07
0.06
0.07
0.07
0.11
0.16
0.08
0.18
0.16
0.45
0.23
0.16
0.06
0.01
0.02
0.04
0.02
0.04
0.02
0.04
0.01
0.00
0.04
0.79
0.14
0.50
0.44
0.61
0.43
0.02
0.00
0.00
0.02
0.02
0.02
0.02
0.04
0.04
0.02
0.02
0.04
0.02
0.02
0.02
0.02
0.02
0.01
0.02
0.02
0.05
0.08
0.12
0.14
0.14
0.12
0.12
0.03
0.02
0.00
0.02
0.06
0.08
0.09
0.09
0.09
0.09
0.09
0.08
0.09
0.09
0.08
0.08
0.07
0.09
0.08
0.08
0.08
0.08
0.08
0.08
0.07
0.08
0.08
0.07
0.06
0.06
0.09
0.18
0.07
0.31
0.09
0.45
0.18
0.18
0.06
0.02
0.02
0.04
0.06
0.06
0.02
0.02
0.02
0.02
0.01
0.79
0.35
0.53
0.41
0.61
0.42
0.02
0.02
0.00
0.00
0.02
0.02
0.02
0.02
0.02
0.02
0.02
0.02
0.01
0.02
0.00
0.01
0.02
0.02
0.03
0.09
0.09
0.14
0.17
0.17
0.17
0.17
0.14
0.09
0.05
0.03
0.02
0.00
0.01
0.02
0.02
0.02
0.01
0.00
0.00
0.01
0.02
0.01
0.01
0.01
0.02
0.01
0.02
0.02
0.02
0.02
0.02
0.02
0.02
0.02
0.02
0.05
0.02
0.02
0.00
0.03
0.01
0.02
0.08
0.01
0.02
0.07
0.14
0.14
0.10
0.09
0.12
0.12
0.10
0.15
0.17
0.12
0.46
0.35
0.59
0.44
0.70
0.53
0.28
0.28
0.22
0.22
0.17
0.17
0.22
0.17
0.17
0.22
0.25
0.25
0.27
0.27
0.29
0.29
0.33
0.37
0.39
0.39
0.41
0.43
0.43
0.43
0.42
0.42
0.42
0.39
0.35
0.33
0.29
0.25
0.22
0.20
0.17
0.17
0.17
0.17
0.20
0.25
0.17
0.20
0.20
0.25
0.25
0.25
0.25
0.25
0.28
0.27
0.25
0.27
0.27
0.27
0.27
0.28
0.27
0.17
0.28
0.17
0.25
0.09
0.17
0.20
0.27
0.33
0.32
0.33
0.29
0.29
0.29
0.29
0.33
0.41
0.29
0.09
0.17
0.68
0.48
0.70
0.66
0.42
0.35
0.29
0.29
0.29
0.27
0.27
0.27
0.28
0.25
0.27
0.27
0.27
0.27
0.27
0.29
0.29
0.29
0.32
0.35
0.37
0.39
0.39
0.39
0.39
0.39
0.35
0.29
0.27
0.17
0.14
0.12
0.09
0.08
0.08
0.05
0.05
0.07
0.05
0.05
0.05
0.05
0.08
0.07
0.08
0.08
0.09
0.09
0.08
0.09
0.09
0.08
0.08
0.09
0.09
0.09
0.08
0.02
0.09
0.02
0.05
0.04
0.02
0.02
0.08
0.15
0.14
0.09
0.09
0.08
0.09
0.05
0.09
0.17
0.02
0.23
0.02
0.51
0.56
0.66
0.46
0.17
0.09
0.08
0.03
0.03
0.02
0.03
0.02
0.02
0.02
0.02
0.02
0.02
0.02
0.02
0.03
0.02
0.07
0.08
0.09
0.12
0.17
0.17
0.17
0.17
0.17
0.17
0.10
0.08
0.02
0.02
0.00
0.01
0.02
0.02
0.02
0.02
0.02
0.02
0.02
0.02
0.02
0.04
0.02
0.04
0.02
0.04
0.02
0.06
0.04
0.06
0.06
0.06
0.06
0.06
0.07
0.11
0.09
0.08
0.09
0.31
0.27
0.09
0.09
0.00
0.00
0.00
0.04
0.02
0.02
0.02
0.01
0.08
0.07
0.06
0.80
0.42
0.50
0.39
0.44
0.29
0.01
0.00
0.01
0.02
0.02
0.04
0.02
0.02
0.02
0.02
0.04
0.01
0.02
0.00
0.00
0.02
0.03
0.08
0.09
0.14
0.17
0.17
0.17
0.20
0.17
0.12
0.05
0.03
0.02
0.02
0.02
0.04
0.02
0.08
0.06
0.07
0.04
0.07
0.06
0.06
0.04
0.08
0.07
0.07
0.02
0.06
0.06
0.07
0.08
0.07
0.08
0.08
0.07
0.08
0.09
0.18
0.08
0.18
0.11
0.50
0.31
0.18
0.08
0.02
0.02
0.02
0.04
0.02
0.01
0.02
0.01
0.02
0.02
0.52
0.10
0.46
0.29
0.45
0.43
0.08
0.02
0.00
0.00
0.02
0.04
0.02
0.02
0.02
0.02
0.02
0.02
0.02
0.02
0.02
0.00
0.02
0.01
0.02
0.05
0.05
0.07
0.09
0.09
0.09
0.08
0.02
0.02
0.00
0.02
0.07
0.09
0.11
0.11
0.16
0.18
0.18
0.18
0.23
0.18
0.18
0.23
0.18
0.11
0.16
0.11
0.16
0.16
0.11
0.11
0.16
0.11
0.18
0.16
0.18
0.31
0.45
0.23
0.45
0.39
0.59
0.39
0.34
0.09
0.04
0.08
0.09
0.09
0.09
0.07
0.09
0.04
0.04
0.09
0.80
0.05
0.44
0.39
0.48
0.42
0.02
0.02
0.06
0.08
0.09
0.08
0.09
0.09
0.11
0.09
0.09
0.11
0.11
0.09
0.09
0.09
0.08
0.06
0.02
0.02
0.00
0.02
0.03
0.03
0.02
0.02
0.01
0.02
0.07
0.09
0.16
0.27
0.31
0.34
0.31
0.39
0.34
0.34
0.27
0.23
0.27
0.27
0.27
0.27
0.27
0.31
0.23
0.27
0.23
0.18
0.23
0.27
0.34
0.23
0.23
0.34
0.46
0.27
0.50
0.34
0.57
0.39
0.27
0.08
0.06
0.02
0.06
0.07
0.02
0.02
0.06
0.00
0.06
0.02
0.81
0.28
0.46
0.35
0.50
0.42
0.02
0.01
0.02
0.02
0.02
0.04
0.02
0.02
0.04
0.04
0.04
0.02
0.02
0.02
0.01
0.01
0.01
0.02
0.02
0.07
0.09
0.12
0.10
0.14
0.10
0.08
0.02
0.02
0.00
0.06
0.09
0.09
0.09
0.09
0.11
0.09
0.08
0.09
0.07
0.06
0.06
0.08
0.07
0.07
0.06
0.07
0.07
0.04
0.04
0.06
0.08
0.02
0.04
0.06
0.08
0.09
0.02
0.11
0.11
0.34
0.09
0.09
0.02
0.01
0.01
0.01
0.02
0.01
0.02
0.02
0.03
0.02
0.03
0.65
0.37
0.53
0.41
0.46
0.44
0.09
0.08
0.03
0.02
0.02
0.02
0.02
0.02
0.01
0.01
0.01
0.01
0.01
0.01
0.02
0.02
0.02
0.03
0.05
0.08
0.09
0.09
0.10
0.12
0.10
0.08
0.07
0.02
0.00
0.02
0.04
0.04
0.06
0.08
0.08
0.07
0.08
0.07
0.06
0.06
0.06
0.04
0.06
0.04
0.02
0.06
0.02
0.02
0.02
0.02
0.02
0.02
0.02
0.02
0.04
0.08
0.02
0.08
0.06
0.34
0.07
0.07
0.02
0.02
0.02
0.02
0.00
0.02
0.01
0.01
0.02
0.08
0.01
0.57
0.02
0.46
0.44
0.58
0.44
0.17
0.03
0.02
0.01
0.00
0.01
0.01
0.00
0.02
0.02
0.02
0.01
0.01
0.00
0.01
0.01
0.01
0.02
0.02
0.03
0.07
0.09
0.12
0.12
0.12
0.10
0.09
0.05
0.02
0.01
0.02
0.02
0.06
0.02
0.02
0.02
0.06
0.02
0.02
0.02
0.02
0.02
0.02
0.00
0.02
0.00
0.01
0.02
0.02
0.02
0.00
0.00
0.00
0.02
0.02
0.00
0.02
0.02
0.02
0.01
0.09
0.02
0.00
0.03
0.10
0.09
0.08
0.09
0.08
0.09
0.09
0.15
0.15
0.17
0.45
0.25
0.51
0.43
0.62
0.53
0.27
0.20
0.15
0.14
0.14
0.09
0.10
0.10
0.14
0.09
0.09
0.12
0.10
0.10
0.10
0.12
0.14
0.17
0.17
0.17
0.25
0.25
0.27
0.29
0.28
0.27
0.22
0.17
0.14
0.10
0.09
0.07
0.05
0.05
0.02
0.02
0.02
0.02
0.02
0.02
0.02
0.02
0.02
0.02
0.02
0.02
0.02
0.02
0.02
0.02
0.02
0.02
0.02
0.02
0.02
0.00
0.02
0.02
0.02
0.02
0.08
0.02
0.00
0.08
0.09
0.09
0.08
0.07
0.07
0.08
0.08
0.12
0.09
0.09
0.72
0.39
0.59
0.43
0.63
0.48
0.15
0.14
0.09
0.09
0.05
0.05
0.05
0.05
0.02
0.02
0.02
0.02
0.02
0.03
0.03
0.05
0.09
0.09
0.12
0.17
0.20
0.22
0.27
0.29
0.27
0.25
0.17
0.15
0.09
0.07
0.02
0.02
0.01
0.01
0.02
0.01
0.02
0.01
0.01
0.01
0.01
0.01
0.01
0.00
0.01
0.02
0.01
0.00
0.01
0.01
0.02
0.02
0.01
0.00
0.02
0.02
0.01
0.02
0.09
0.02
0.01
0.05
0.12
0.12
0.10
0.09
0.08
0.09
0.09
0.09
0.25
0.05
0.05
0.61
0.53
0.53
0.51
0.53
0.42
0.15
0.15
0.15
0.12
0.12
0.09
0.10
0.09
0.12
0.12
0.15
0.12
0.14
0.12
0.17
0.17
0.22
0.25
0.29
0.32
0.35
0.39
0.39
0.39
0.39
0.36
0.32
0.27
0.17
0.15
0.12
0.09
0.08
0.08
0.08
0.08
0.09
0.09
0.09
0.09
0.09
0.08
0.10
0.12
0.09
0.10
0.10
0.10
0.09
0.10
0.12
0.10
0.09
0.07
0.09
0.08
0.08
0.01
0.03
0.09
0.09
0.22
0.20
0.17
0.17
0.17
0.17
0.17
0.17
0.28
0.15
0.17
0.69
0.50
0.67
0.44
0.66
0.51
0.22
0.28
0.22
0.17
0.17
0.17
0.17
0.17
0.14
0.17
0.17
0.15
0.15
0.17
0.17
0.17
0.20
0.22
0.28
0.32
0.35
0.37
0.39
0.39
0.36
0.33
0.29
0.22
0.15
0.12
0.08
0.08
0.03
0.02
0.02
0.02
0.02
0.02
0.02
0.03
0.02
0.02
0.03
0.03
0.03
0.03
0.05
0.05
0.07
0.05
0.03
0.07
0.07
0.02
0.02
0.07
0.02
0.05
0.06
0.01
0.02
0.05
0.15
0.15
0.14
0.09
0.09
0.09
0.10
0.10
0.20
0.03
0.08
0.76
0.51
0.66
0.45
0.56
0.46
0.14
0.15
0.14
0.09
0.10
0.09
0.09
0.09
0.09
0.09
0.09
0.09
0.10
0.09
0.10
0.10
0.12
0.15
0.17
0.25
0.22
0.29
0.32
0.29
0.28
0.28
0.20
0.14
0.08
0.03
0.01
0.00
0.02
0.02
0.02
0.02
0.04
0.04
0.02
0.02
0.02
0.02
0.02
0.02
0.02
0.02
0.02
0.01
0.02
0.02
0.02
0.02
0.02
0.02
0.02
0.02
0.09
0.02
0.09
0.09
0.34
0.11
0.08
0.02
0.02
0.02
0.01
0.01
0.00
0.01
0.00
0.01
0.09
0.02
0.42
0.46
0.44
0.44
0.51
0.44
0.17
0.03
0.02
0.02
0.02
0.00
0.01
0.01
0.01
0.00
0.01
0.01
0.00
0.01
0.00
0.02
0.05
0.08
0.09
0.09
0.15
0.17
0.22
0.20
0.22
0.17
0.12
0.07
0.01
0.00
0.06
0.07
0.08
0.09
0.09
0.09
0.09
0.06
0.07
0.08
0.08
0.08
0.06
0.08
0.07
0.07
0.08
0.07
0.06
0.06
0.06
0.07
0.09
0.07
0.08
0.09
0.18
0.09
0.08
0.16
0.46
0.39
0.18
0.16
0.02
0.02
0.02
0.06
0.04
0.02
0.02
0.02
0.02
0.06
0.02
0.81
0.29
0.44
0.39
0.44
0.43
0.02
0.02
0.01
0.02
0.04
0.02
0.06
0.06
0.07
0.06
0.07
0.09
0.08
0.09
0.08
0.07
0.08
0.06
0.02
0.02
0.01
0.02
0.02
0.03
0.01
0.01
0.02
0.07
0.18
0.34
0.39
0.46
0.50
0.52
0.52
0.52
0.52
0.57
0.55
0.55
0.53
0.55
0.55
0.55
0.53
0.53
0.52
0.53
0.46
0.50
0.45
0.46
0.42
0.45
0.45
0.42
0.45
0.52
0.52
0.45
0.52
0.57
0.59
0.52
0.45
0.16
0.09
0.18
0.31
0.27
0.27
0.23
0.27
0.08
0.42
0.42
0.91
0.29
0.51
0.39
0.46
0.36
0.11
0.18
0.18
0.27
0.34
0.39
0.34
0.39
0.39
0.42
0.39
0.42
0.39
0.42
0.39
0.31
0.23
0.18
0.09
0.08
0.02
0.02
0.01
0.01
0.01
0.01
0.02
0.06
0.11
0.27
0.34
0.42
0.45
0.50
0.52
0.52
0.50
0.50
0.46
0.50
0.45
0.46
0.46
0.46
0.46
0.45
0.45
0.50
0.42
0.45
0.39
0.42
0.42
0.39
0.42
0.34
0.39
0.34
0.45
0.53
0.34
0.53
0.42
0.62
0.52
0.45
0.27
0.16
0.11
0.16
0.27
0.27
0.27
0.23
0.18
0.04
0.50
0.61
0.82
0.43
0.56
0.44
0.43
0.17
0.11
0.09
0.11
0.18
0.18
0.16
0.18
0.18
0.16
0.18
0.11
0.16
0.11
0.09
0.09
0.07
0.02
0.01
0.02
0.03
0.08
0.09
0.12
0.15
0.15
0.09
0.07
0.02
0.01
0.04
0.04
0.08
0.09
0.09
0.09
0.09
0.08
0.09
0.07
0.06
0.07
0.07
0.07
0.02
0.04
0.02
0.02
0.02
0.02
0.02
0.02
0.02
0.00
0.00
0.01
0.01
0.01
0.00
0.00
0.00
0.01
0.02
0.02
0.02
0.16
0.08
0.02
0.02
0.03
0.02
0.05
0.02
0.05
0.05
0.03
0.03
0.22
0.01
0.02
0.67
0.46
0.50
0.61
0.50
0.42
0.14
0.14
0.10
0.09
0.12
0.09
0.05
0.07
0.08
0.09
0.05
0.08
0.08
0.08
0.09
0.09
0.10
0.14
0.17
0.17
0.27
0.28
0.29
0.25
0.27
0.20
0.15
0.10
0.07
0.05
0.02
0.00
0.01
0.01
0.00
0.01
0.00
0.01
0.00
0.01
0.02
0.02
0.01
0.01
0.02
0.02
0.02
0.02
0.02
0.03
0.02
0.02
0.02
0.03
0.02
0.01
0.02
0.02
0.02
0.02
0.01
0.02
0.02
0.02
0.08
0.02
0.01
0.07
0.09
0.09
0.08
0.08
0.08
0.08
0.07
0.12
0.05
0.02
0.81
0.39
0.65
0.51
0.67
0.51
0.15
0.09
0.07
0.05
0.02
0.02
0.02
0.01
0.01
0.01
0.01
0.01
0.02
0.00
0.01
0.01
0.01
0.02
0.03
0.09
0.09
0.15
0.17
0.17
0.17
0.17
0.15
0.09
0.03
0.02
0.01
0.02
0.02
0.06
0.04
0.06
0.06
0.04
0.04
0.02
0.02
0.04
0.02
0.04
0.02
0.02
0.04
0.02
0.02
0.06
0.06
0.04
0.06
0.06
0.04
0.04
0.07
0.06
0.07
0.07
0.07
0.11
0.09
0.09
0.09
0.45
0.18
0.09
0.08
0.02
0.00
0.01
0.02
0.01
0.02
0.01
0.02
0.08
0.16
0.31
0.82
0.50
0.78
0.54
0.51
0.39
0.02
0.01
0.00
0.02
0.01
0.02
0.02
0.02
0.01
0.02
0.02
0.02
0.01
0.02
0.00
0.01
0.02
0.03
0.07
0.09
0.12
0.17
0.17
0.17
0.17
0.17
0.12
0.09
0.03
0.02
0.01
0.04
0.02
0.06
0.06
0.04
0.04
0.06
0.04
0.06
0.04
0.04
0.04
0.06
0.06
0.04
0.07
0.04
0.06
0.06
0.06
0.06
0.06
0.02
0.02
0.02
0.02
0.02
0.02
0.02
0.02
0.02
0.02
0.02
0.07
0.04
0.02
0.04
0.23
0.07
0.02
0.01
0.08
0.07
0.05
0.03
0.02
0.03
0.02
0.03
0.14
0.07
0.53
0.45
0.62
0.74
0.71
0.50
0.29
0.03
0.03
0.02
0.01
0.00
0.00
0.01
0.00
0.02
0.00
0.01
0.01
0.00
0.01
0.02
0.02
0.05
0.08
0.12
0.12
0.17
0.20
0.27
0.25
0.25
0.20
0.15
0.10
0.07
0.02
0.00
0.02
0.02
0.02
0.02
0.02
0.02
0.02
0.02
0.01
0.01
0.02
0.01
0.02
0.02
0.02
0.01
0.02
0.02
0.02
0.01
0.02
0.01
0.02
0.01
0.01
0.01
0.02
0.02
0.02
0.01
0.00
0.01
0.02
0.08
0.01
0.07
0.02
0.27
0.07
0.06
0.02
0.05
0.03
0.03
0.03
0.03
0.02
0.02
0.10
0.02
0.02
0.79
0.39
0.50
0.44
0.54
0.46
0.14
0.17
0.09
0.09
0.09
0.08
0.09
0.09
0.09
0.12
0.09
0.10
0.09
0.10
0.14
0.17
0.17
0.17
0.27
0.27
0.29
0.33
0.33
0.35
0.32
0.29
0.25
0.17
0.12
0.09
0.07
0.02
0.02
0.02
0.02
0.02
0.02
0.02
0.02
0.02
0.02
0.02
0.02
0.02
0.02
0.02
0.01
0.02
0.02
0.02
0.02
0.02
0.01
0.02
0.01
0.01
0.01
0.01
0.00
0.00
0.00
0.02
0.01
0.07
0.04
0.06
0.07
0.23
0.18
0.07
0.06
0.02
0.02
0.02
0.00
0.00
0.00
0.00
0.01
0.10
0.09
0.27
0.80
0.46
0.68
0.58
0.50
0.39
0.02
0.02
0.02
0.00
0.00
0.00
0.00
0.02
0.00
0.00
0.01
0.01
0.00
0.00
0.01
0.02
0.02
0.05
0.07
0.10
0.12
0.17
0.17
0.20
0.22
0.17
0.17
0.09
0.08
0.02
0.01
0.01
0.02
0.04
0.04
0.02
0.02
0.06
0.04
0.04
0.02
0.02
0.02
0.04
0.02
0.02
0.04
0.02
0.02
0.04
0.02
0.02
0.02
0.04
0.02
0.02
0.02
0.02
0.02
0.02
0.02
0.04
0.02
0.07
0.08
0.06
0.09
0.18
0.23
0.07
0.04
0.02
0.05
0.02
0.01
0.01
0.02
0.03
0.01
0.08
0.01
0.02
0.87
0.46
0.77
0.56
0.69
0.44
0.09
0.09
0.08
0.03
0.03
0.02
0.03
0.05
0.03
0.05
0.05
0.05
0.07
0.07
0.08
0.09
0.09
0.12
0.14
0.17
0.25
0.28
0.33
0.35
0.33
0.32
0.29
0.22
0.17
0.14
0.09
0.05
0.03
0.02
0.03
0.02
0.02
0.02
0.05
0.05
0.07
0.03
0.07
0.07
0.05
0.03
0.07
0.05
0.05
0.07
0.05
0.05
0.07
0.07
0.05
0.07
0.03
0.07
0.05
0.03
0.07
0.05
0.03
0.07
0.05
0.02
0.01
0.02
0.01
0.02
0.07
0.01
0.02
0.12
0.14
0.14
0.09
0.09
0.09
0.12
0.10
0.20
0.03
0.05
0.79
0.62
0.78
0.62
0.68
0.46
0.17
0.20
0.17
0.15
0.17
0.14
0.17
0.17
0.17
0.17
0.22
0.17
0.20
0.17
0.25
0.27
0.29
0.29
0.36
0.37
0.39
0.42
0.42
0.42
0.43
0.41
0.39
0.32
0.28
0.20
0.15
0.12
0.10
0.09
0.09
0.09
0.09
0.09
0.09
0.09
0.08
0.09
0.09
0.09
0.09
0.07
0.09
0.08
0.09
0.09
0.07
0.09
0.09
0.08
0.08
0.07
0.10
0.08
0.09
0.08
0.09
0.09
0.09
0.08
0.05
0.03
0.03
0.02
0.01
0.05
0.03
0.15
0.15
0.17
0.12
0.15
0.15
0.14
0.14
0.29
0.09
0.02
0.57
0.51
0.50
0.63
0.51
0.44
0.17
0.22
0.17
0.14
0.15
0.17
0.10
0.14
0.15
0.17
0.14
0.15
0.17
0.17
0.17
0.17
0.22
0.27
0.29
0.29
0.35
0.37
0.37
0.37
0.35
0.33
0.27
0.17
0.17
0.12
0.09
0.07
0.03
0.07
0.02
0.02
0.02
0.02
0.02
0.02
0.02
0.02
0.03
0.02
0.02
0.02
0.02
0.02
0.02
0.02
0.02
0.01
0.01
0.02
0.02
0.00
0.01
0.01
0.02
0.02
0.00
0.01
0.01
0.02
0.06
0.02
0.06
0.02
0.31
0.07
0.04
0.02
0.03
0.02
0.02
0.02
0.00
0.02
0.02
0.02
0.02
0.04
0.80
0.20
0.59
0.51
0.68
0.46
0.09
0.02
0.00
0.00
0.02
0.02
0.02
0.04
0.02
0.06
0.06
0.06
0.06
0.06
0.07
0.06
0.02
0.02
0.00
0.01
0.02
0.03
0.07
0.08
0.09
0.09
0.08
0.03
0.02
0.01
0.04
0.07
0.08
0.09
0.11
0.11
0.11
0.09
0.09
0.09
0.09
0.08
0.09
0.09
0.09
0.09
0.09
0.09
0.08
0.09
0.09
0.11
0.09
0.11
0.11
0.11
0.11
0.09
0.18
0.16
0.16
0.11
0.18
0.18
0.39
0.18
0.45
0.31
0.59
0.34
0.27
0.09
0.02
0.06
0.07
0.09
0.09
0.08
0.08
0.07
0.02
0.27
0.81
0.01
0.53
0.56
0.69
0.43
0.02
0.02
0.02
0.06
0.08
0.07
0.08
0.09
0.08
0.08
0.09
0.07
0.09
0.08
0.08
0.07
0.06
0.04
0.02
0.01
0.02
0.02
0.03
0.08
0.05
0.03
0.02
0.02
0.02
0.04
0.09
0.11
0.18
0.27
0.31
0.27
0.31
0.27
0.27
0.23
0.27
0.23
0.23
0.27
0.27
0.31
0.23
0.27
0.23
0.27
0.27
0.31
0.23
0.27
0.27
0.27
0.23
0.27
0.23
0.27
0.18
0.23
0.27
0.23
0.31
0.42
0.34
0.39
0.34
0.61
0.42
0.31
0.23
0.04
0.06
0.07
0.09
0.07
0.07
0.08
0.06
0.02
0.27
0.55
0.69
0.46
0.65
0.53
0.44
0.27
0.02
0.02
0.02
0.06
0.08
0.09
0.09
0.08
0.08
0.08
0.07
0.06
0.06
0.06
0.02
0.02
0.00
0.02
0.02
0.07
0.09
0.10
0.15
0.17
0.17
0.15
0.10
0.05
0.02
0.01
0.01
0.02
0.02
0.08
0.08
0.07
0.06
0.07
0.07
0.04
0.06
0.02
0.06
0.06
0.02
0.02
0.04
0.06
0.02
0.02
0.02
0.04
0.02
0.02
0.04
0.02
0.02
0.02
0.02
0.02
0.01
0.02
0.02
0.02
0.06
0.08
0.06
0.06
0.31
0.18
0.08
0.08
0.02
0.01
0.02
0.01
0.00
0.02
0.02
0.02
0.15
0.02
0.06
0.78
0.44
0.46
0.46
0.44
0.42
0.02
0.07
0.02
0.02
0.01
0.02
0.02
0.02
0.01
0.02
0.01
0.01
0.02
0.03
0.03
0.05
0.08
0.09
0.10
0.15
0.17
0.22
0.27
0.27
0.28
0.27
0.25
0.17
0.14
0.09
0.08
0.03
0.03
0.02
0.02
0.02
0.01
0.01
0.00
0.02
0.01
0.01
0.00
0.02
0.01
0.01
0.02
0.02
0.02
0.02
0.02
0.02
0.02
0.02
0.00
0.01
0.00
0.01
0.01
0.00
0.00
0.01
0.00
0.04
0.04
0.07
0.07
0.34
0.16
0.07
0.08
0.03
0.02
0.01
0.00
0.00
0.01
0.00
0.00
0.09
0.08
0.27
0.82
0.46
0.70
0.51
0.50
0.36
0.00
0.01
0.02
0.02
0.02
0.04
0.07
0.06
0.08
0.07
0.08
0.07
0.08
0.08
0.09
0.08
0.06
0.04
0.02
0.01
0.02
0.03
0.05
0.08
0.09
0.07
0.05
0.02
0.01
0.02
0.06
0.08
0.11
0.11
0.11
0.11
0.09
0.11
0.09
0.09
0.09
0.08
0.08
0.08
0.09
0.08
0.09
0.09
0.08
0.09
0.08
0.09
0.09
0.09
0.09
0.09
0.16
0.09
0.16
0.16
0.18
0.18
0.16
0.23
0.46
0.34
0.46
0.34
0.62
0.45
0.34
0.16
0.08
0.08
0.08
0.09
0.09
0.09
0.09
0.08
0.02
0.27
0.81
0.03
0.53
0.48
0.66
0.42
0.02
0.02
0.02
0.02
0.06
0.07
0.06
0.06
0.06
0.06
0.07
0.07
0.06
0.06
0.07
0.02
0.02
0.01
0.01
0.02
0.05
0.09
0.10
0.12
0.12
0.14
0.10
0.08
0.03
0.01
0.02
0.06
0.09
0.08
0.11
0.09
0.11
0.09
0.09
0.09
0.08
0.07
0.08
0.08
0.09
0.09
0.07
0.07
0.07
0.07
0.07
0.06
0.06
0.06
0.02
0.06
0.06
0.04
0.04
0.06
0.04
0.04
0.06
0.07
0.09
0.07
0.09
0.08
0.46
0.11
0.09
0.02
0.02
0.00
0.00
0.02
0.02
0.02
0.02
0.00
0.03
0.08
0.69
0.01
0.54
0.56
0.68
0.46
0.14
0.02
0.02
0.02
0.01
0.00
0.00
0.00
0.01
0.00
0.00
0.02
0.01
0.02
0.02
0.03
0.05
0.05
0.10
0.12
0.17
0.17
0.27
0.28
0.32
0.28
0.28
0.20
0.15
0.10
0.09
0.03
0.02
0.01
0.01
0.00
0.00
0.01
0.01
0.01
0.01
0.02
0.02
0.02
0.02
0.02
0.02
0.02
0.03
0.02
0.02
0.02
0.03
0.03
0.02
0.03
0.05
0.02
0.05
0.03
0.02
0.03
0.03
0.03
0.07
0.02
0.01
0.03
0.00
0.01
0.06
0.01
0.02
0.08
0.14
0.12
0.14
0.10
0.14
0.12
0.10
0.17
0.17
0.10
0.50
0.29
0.58
0.45
0.68
0.58
0.29
0.27
0.17
0.17
0.15
0.15
0.15
0.17
0.15
0.17
0.17
0.17
0.17
0.17
0.17
0.20
0.25
0.27
0.32
0.32
0.35
0.37
0.39
0.39
0.39
0.39
0.37
0.32
0.28
0.17
0.17
0.17
0.14
0.14
0.14
0.12
0.10
0.12
0.15
0.14
0.14
0.15
0.14
0.14
0.12
0.12
0.15
0.14
0.15
0.14
0.17
0.14
0.15
0.14
0.12
0.14
0.12
0.12
0.10
0.10
0.12
0.09
0.08
0.08
0.02
0.03
0.02
0.05
0.04
0.02
0.03
0.02
0.15
0.14
0.12
0.10
0.09
0.10
0.09
0.10
0.25
0.02
0.01
0.68
0.56
0.73
0.68
0.58
0.43
0.15
0.12
0.12
0.09
0.09
0.08
0.08
0.08
0.09
0.07
0.08
0.08
0.07
0.05
0.08
0.08
0.09
0.09
0.14
0.14
0.17
0.17
0.22
0.25
0.25
0.20
0.17
0.14
0.09
0.07
0.05
0.03
0.02
0.01
0.02
0.01
0.01
0.02
0.01
0.01
0.02
0.01
0.01
0.02
0.02
0.01
0.01
0.01
0.01
0.01
0.01
0.00
0.00
0.00
0.01
0.00
0.02
0.01
0.02
0.02
0.01
0.02
0.00
0.02
0.01
0.02
0.02
0.23
0.06
0.02
0.02
0.07
0.03
0.02
0.02
0.01
0.02
0.02
0.00
0.09
0.09
0.53
0.45
0.56
0.73
0.69
0.45
0.20
0.02
0.02
0.01
0.02
0.02
0.02
0.02
0.02
0.02
0.02
0.02
0.04
0.02
0.02
0.02
0.02
0.00
0.00
0.02
0.03
0.07
0.09
0.10
0.10
0.09
0.09
0.07
0.02
0.01
0.04
0.07
0.08
0.09
0.11
0.09
0.09
0.09
0.11
0.08
0.09
0.09
0.07
0.07
0.09
0.09
0.09
0.08
0.09
0.09
0.08
0.07
0.08
0.09
0.08
0.08
0.07
0.08
0.07
0.08
0.08
0.08
0.08
0.08
0.07
0.08
0.09
0.11
0.09
0.09
0.46
0.18
0.11
0.08
0.01
0.01
0.00
0.02
0.01
0.01
0.00
0.01
0.07
0.09
0.09
0.79
0.50
0.73
0.50
0.50
0.33
0.00
0.02
0.01
0.00
0.02
0.02
0.01
0.02
0.02
0.02
0.01
0.02
0.02
0.01
0.00
0.00
0.02
0.02
0.05
0.09
0.10
0.14
0.17
0.17
0.17
0.15
0.12
0.09
0.02
0.01
0.02
0.02
0.04
0.04
0.06
0.04
0.06
0.02
0.02
0.02
0.02
0.02
0.02
0.02
0.02
0.02
0.02
0.00
0.02
0.02
0.00
0.02
0.01
0.02
0.01
0.02
0.00
0.01
0.01
0.01
0.01
0.01
0.02
0.01
0.02
0.02
0.06
0.06
0.02
0.34
0.16
0.07
0.07
0.02
0.01
0.03
0.02
0.02
0.02
0.03
0.03
0.17
0.01
0.06
0.61
0.51
0.50
0.61
0.50
0.41
0.12
0.14
0.10
0.10
0.08
0.09
0.09
0.09
0.08
0.09
0.09
0.09
0.09
0.09
0.09
0.09
0.12
0.14
0.15
0.17
0.22
0.17
0.22
0.25
0.20
0.17
0.14
0.09
0.05
0.02
0.02
0.00
0.02
0.02
0.02
0.02
0.02
0.04
0.02
0.02
0.04
0.02
0.02
0.02
0.02
0.02
0.02
0.02
0.02
0.02
0.02
0.06
0.02
0.06
0.06
0.04
0.04
0.06
0.06
0.06
0.04
0.04
0.02
0.06
0.11
0.07
0.16
0.09
0.39
0.09
0.08
0.01
0.02
0.02
0.02
0.01
0.02
0.02
0.02
0.05
0.00
0.02
0.81
0.42
0.63
0.44
0.59
0.44
0.05
0.02
0.02
0.00
0.01
0.02
0.02
0.02
0.02
0.02
0.02
0.02
0.02
0.04
0.04
0.02
0.02
0.02
0.01
0.01
0.02
0.07
0.09
0.09
0.09
0.09
0.07
0.02
0.00
0.02
0.04
0.08
0.09
0.11
0.18
0.18
0.18
0.16
0.18
0.16
0.16
0.16
0.18
0.18
0.16
0.09
0.09
0.09
0.09
0.09
0.09
0.11
0.09
0.09
0.09
0.09
0.09
0.09
0.08
0.11
0.09
0.09
0.09
0.11
0.11
0.31
0.11
0.31
0.23
0.55
0.27
0.23
0.09
0.02
0.02
0.04
0.07
0.07
0.06
0.07
0.04
0.00
0.16
0.79
0.02
0.54
0.56
0.69
0.43
0.03
0.02
0.02
0.04
0.06
0.02
0.06
0.04
0.04
0.02
0.02
0.04
0.02
0.04
0.02
0.02
0.02
0.02
0.02
0.02
0.03
0.08
0.09
0.10
0.12
0.10
0.09
0.07
0.02
0.00
0.02
0.02
0.07
0.08
0.09
0.08
0.09
0.08
0.06
0.06
0.07
0.06
0.04
0.04
0.06
0.04
0.04
0.04
0.04
0.06
0.04
0.04
0.06
0.02
0.04
0.02
0.04
0.06
0.02
0.02
0.04
0.04
0.04
0.02
0.02
0.04
0.08
0.09
0.08
0.09
0.39
0.18
0.07
0.07
0.02
0.02
0.03
0.00
0.00
0.01
0.02
0.02
0.12
0.02
0.09
0.50
0.56
0.73
0.67
0.50
0.29
0.09
0.10
0.09
0.09
0.09
0.09
0.09
0.10
0.12
0.12
0.17
0.17
0.17
0.20
0.20
0.22
0.25
0.28
0.33
0.36
0.37
0.39
0.41
0.41
0.41
0.41
0.39
0.29
0.28
0.20
0.17
0.12
0.09
0.09
0.07
0.07
0.08
0.07
0.08
0.08
0.03
0.07
0.05
0.07
0.05
0.05
0.03
0.05
0.02
0.02
0.03
0.05
0.05
0.02
0.03
0.05
0.08
0.03
0.07
0.05
0.03
0.03
0.07
0.02
0.00
0.02
0.00
0.02
0.11
0.02
0.01
0.02
0.09
0.09
0.12
0.09
0.10
0.09
0.09
0.14
0.22
0.10
0.11
0.09
0.56
0.44
0.66
0.50
0.32
0.17
0.14
0.15
0.12
0.09
0.10
0.14
0.14
0.14
0.14
0.09
0.14
0.15
0.14
0.17
0.17
0.17
0.20
0.20
0.27
0.29
0.28
0.29
0.29
0.29
0.28
0.17
0.17
0.12
0.10
0.08
0.08
0.03
0.05
0.02
0.03
0.05
0.02
0.03
0.02
0.03
0.05
0.05
0.03
0.03
0.03
0.02
0.02
0.05
0.03
0.02
0.02
0.03
0.02
0.02
0.02
0.02
0.02
0.02
0.02
0.02
0.02
0.02
0.02
0.01
0.02
0.00
0.11
0.02
0.00
0.01
0.05
0.07
0.07
0.02
0.03
0.05
0.03
0.07
0.12
0.02
0.50
0.00
0.53
0.51
0.67
0.48
0.22
0.03
0.03
0.03
0.01
0.01
0.02
0.01
0.02
0.00
0.00
0.00
0.01
0.01
0.01
0.02
0.02
0.02
0.05
0.08
0.08
0.12
0.14
0.17
0.15
0.17
0.14
0.10
0.08
0.02
0.02
0.00
0.02
0.02
0.04
0.04
0.04
0.07
0.02
0.04
0.06
0.06
0.04
0.04
0.02
0.06
0.02
0.02
0.02
0.04
0.02
0.02
0.02
0.02
0.02
0.02
0.02
0.02
0.06
0.04
0.02
0.02
0.04
0.07
0.11
0.07
0.16
0.09
0.50
0.16
0.16
0.07
0.01
0.00
0.02
0.02
0.04
0.02
0.02
0.02
0.01
0.09
0.78
0.09
0.58
0.56
0.70
0.43
0.08
0.02
0.00
0.02
0.06
0.02
0.04
0.07
0.04
0.06
0.06
0.06
0.04
0.06
0.02
0.02
0.02
0.00
0.01
0.02
0.02
0.08
0.09
0.12
0.12
0.12
0.10
0.07
0.03
0.02
0.00
0.02
0.06
0.08
0.08
0.09
0.09
0.09
0.08
0.07
0.09
0.08
0.07
0.07
0.08
0.08
0.07
0.08
0.09
0.08
0.08
0.07
0.07
0.09
0.07
0.06
0.06
0.07
0.07
0.08
0.08
0.08
0.08
0.08
0.11
0.18
0.16
0.23
0.46
0.42
0.27
0.18
0.02
0.04
0.04
0.07
0.06
0.06
0.06
0.04
0.02
0.16
0.02
0.82
0.44
0.69
0.42
0.50
0.36
0.01
0.01
0.02
0.02
0.04
0.06
0.04
0.04
0.02
0.06
0.04
0.04
0.02
0.02
0.02
0.02
0.01
0.01
0.02
0.05
0.09
0.10
0.14
0.17
0.15
0.14
0.09
0.07
0.02
0.01
0.02
0.04
0.07
0.07
0.09
0.09
0.09
0.08
0.08
0.08
0.04
0.06
0.08
0.07
0.06
0.06
0.06
0.04
0.06
0.04
0.04
0.06
0.02
0.02
0.02
0.02
0.04
0.02
0.02
0.02
0.02
0.02
0.02
0.07
0.04
0.08
0.02
0.27
0.07
0.04
0.02
0.03
0.03
0.02
0.03
0.02
0.03
0.02
0.07
0.15
0.02
0.09
0.06
0.51
0.43
0.61
0.46
0.32
0.09
0.09
0.09
0.09
0.09
0.09
0.08
0.09
0.07
0.09
0.09
0.09
0.10
0.10
0.12
0.12
0.15
0.15
0.20
0.20
0.22
0.27
0.25
0.29
0.22
0.22
0.17
0.12
0.08
0.07
0.03
0.03
0.02
0.02
0.01
0.01
0.01
0.02
0.02
0.02
0.02
0.02
0.02
0.02
0.03
0.02
0.02
0.02
0.02
0.02
0.02
0.02
0.02
0.02
0.01
0.02
0.01
0.01
0.01
0.01
0.01
0.02
0.07
0.02
0.06
0.11
0.18
0.06
0.07
0.02
0.05
0.02
0.02
0.02
0.02
0.02
0.02
0.14
0.02
0.00
0.78
0.42
0.62
0.44
0.51
0.44
0.05
0.08
0.03
0.03
0.02
0.02
0.01
0.01
0.02
0.01
0.01
0.02
0.02
0.00
0.02
0.01
0.02
0.02
0.02
0.03
0.08
0.10
0.10
0.12
0.14
0.12
0.09
0.08
0.02
0.01
0.02
0.02
0.04
0.06
0.08
0.07
0.06
0.08
0.07
0.08
0.07
0.07
0.06
0.07
0.06
0.06
0.06
0.06
0.04
0.04
0.04
0.02
0.04
0.02
0.02
0.04
0.02
0.02
0.04
0.04
0.04
0.04
0.08
0.16
0.08
0.18
0.11
0.46
0.11
0.08
0.02
0.01
0.00
0.02
0.02
0.02
0.02
0.02
0.02
0.02
0.02
0.81
0.39
0.69
0.45
0.69
0.43
0.03
0.02
0.02
0.02
0.01
0.02
0.01
0.02
0.02
0.01
0.02
0.01
0.01
0.01
0.00
0.01
0.02
0.02
0.03
0.05
0.10
0.10
0.17
0.17
0.20
0.17
0.17
0.14
0.10
0.05
0.03
0.00
0.00
0.02
0.02
0.02
0.02
0.02
0.02
0.02
0.02
0.00
0.02
0.01
0.00
0.00
0.01
0.01
0.00
0.00
0.01
0.01
0.00
0.00
0.00
0.00
0.01
0.00
0.01
0.00
0.00
0.00
0.01
0.04
0.04
0.02
0.02
0.23
0.07
0.02
0.02
0.05
0.05
0.05
0.02
0.02
0.03
0.02
0.03
0.15
0.01
0.02
0.53
0.53
0.73
0.58
0.51
0.36
0.09
0.07
0.07
0.03
0.03
0.02
0.03
0.02
0.02
0.03
0.02
0.05
0.03
0.07
0.05
0.08
0.08
0.09
0.14
0.17
0.27
0.27
0.28
0.29
0.29
0.27
0.25
0.17
0.12
0.10
0.09
0.07
0.05
0.07
0.03
0.07
0.05
0.08
0.07
0.08
0.05
0.07
0.08
0.08
0.09
0.07
0.09
0.08
0.08
0.07
0.08
0.09
0.07
0.07
0.07
0.08
0.08
0.05
0.08
0.05
0.09
0.07
0.02
0.02
0.02
0.03
0.07
0.01
0.02
0.02
0.12
0.12
0.14
0.10
0.12
0.10
0.12
0.17
0.29
0.12
0.01
0.07
0.63
0.46
0.68
0.54
0.41
0.20
0.17
0.17
0.17
0.12
0.15
0.17
0.17
0.14
0.15
0.17
0.17
0.17
0.17
0.17
0.22
0.17
0.25
0.28
0.29
0.29
0.33
0.32
0.35
0.29
0.29
0.25
0.22
0.15
0.12
0.09
0.09
0.08
0.08
0.05
0.08
0.07
0.05
0.05
0.08
0.03
0.07
0.07
0.07
0.07
0.07
0.07
0.05
0.07
0.05
0.07
0.07
0.07
0.03
0.03
0.05
0.03
0.05
0.02
0.02
0.01
0.02
0.00
0.02
0.01
0.18
0.06
0.02
0.00
0.03
0.05
0.03
0.02
0.02
0.02
0.02
0.07
0.12
0.02
0.45
0.02
0.48
0.45
0.56
0.46
0.25
0.02
0.02
0.02
0.00
0.01
0.02
0.02
0.02
0.02
0.02
0.02
0.02
0.02
0.02
0.02
0.02
0.02
0.01
0.01
0.02
0.05
0.05
0.08
0.09
0.09
0.07
0.03
0.02
0.00
0.02
0.06
0.08
0.09
0.11
0.11
0.11
0.09
0.11
0.09
0.09
0.09
0.09
0.09
0.09
0.07
0.08
0.09
0.07
0.08
0.07
0.09
0.09
0.09
0.08
0.09
0.09
0.09
0.08
0.09
0.09
0.11
0.23
0.34
0.18
0.39
0.45
0.53
0.39
0.31
0.07
0.04
0.07
0.09
0.09
0.09
0.09
0.09
0.04
0.09
0.11
0.87
0.37
0.63
0.43
0.58
0.41
0.02
0.04
0.08
0.07
0.08
0.09
0.08
0.07
0.08
0.07
0.07
0.08
0.06
0.07
0.07
0.06
0.02
0.02
0.01
0.01
0.02
0.05
0.08
0.09
0.09
0.09
0.03
0.02
0.00
0.02
0.07
0.09
0.11
0.11
0.23
0.18
0.11
0.11
0.11
0.11
0.09
0.09
0.08
0.09
0.08
0.08
0.08
0.09
0.09
0.08
0.07
0.09
0.08
0.08
0.08
0.08
0.08
0.07
0.09
0.08
0.09
0.09
0.23
0.16
0.23
0.18
0.52
0.31
0.27
0.11
0.02
0.04
0.06
0.09
0.07
0.07
0.08
0.07
0.01
0.16
0.61
0.06
0.50
0.50
0.58
0.42
0.09
0.02
0.02
0.02
0.02
0.02
0.04
0.02
0.02
0.02
0.02
0.02
0.02
0.00
0.02
0.01
0.02
0.03
0.03
0.07
0.10
0.15
0.17
0.22
0.17
0.17
0.15
0.12
0.08
0.02
0.00
0.02
0.02
0.02
0.06
0.02
0.04
0.04
0.04
0.02
0.04
0.02
0.02
0.02
0.04
0.04
0.04
0.04
0.02
0.02
0.02
0.02
0.04
0.02
0.02
0.02
0.01
0.02
0.02
0.02
0.02
0.02
0.02
0.09
0.02
0.08
0.02
0.31
0.09
0.06
0.02
0.02
0.02
0.03
0.02
0.02
0.02
0.02
0.07
0.08
0.05
0.50
0.17
0.56
0.41
0.54
0.46
0.17
0.09
0.05
0.05
0.03
0.05
0.02
0.03
0.02
0.02
0.02
0.02
0.03
0.02
0.08
0.03
0.07
0.08
0.12
0.12
0.17
0.17
0.17
0.20
0.20
0.17
0.17
0.12
0.09
0.08
0.05
0.02
0.02
0.02
0.00
0.00
0.00
0.01
0.00
0.00
0.00
0.00
0.01
0.01
0.01
0.00
0.00
0.01
0.01
0.00
0.00
0.01
0.00
0.00
0.01
0.01
0.01
0.01
0.02
0.02
0.02
0.02
0.08
0.04
0.08
0.04
0.34
0.11
0.04
0.04
0.02
0.01
0.02
0.00
0.02
0.01
0.01
0.02
0.10
0.02
0.46
0.04
0.48
0.46
0.61
0.46
0.17
0.07
0.02
0.02
0.01
0.01
0.00
0.00
0.00
0.01
0.02
0.02
0.01
0.01
0.00
0.02
0.01
0.02
0.02
0.03
0.05
0.09
0.10
0.12
0.15
0.15
0.14
0.10
0.07
0.03
0.02
0.01
0.01
0.01
0.02
0.02
0.02
0.02
0.02
0.02
0.02
0.02
0.02
0.02
0.01
0.01
0.01
0.02
0.02
0.02
0.02
0.02
0.02
0.04
0.02
0.07
0.07
0.07
0.06
0.07
0.09
0.08
0.11
0.23
0.16
0.27
0.18
0.53
0.34
0.23
0.09
0.02
0.02
0.02
0.07
0.06
0.07
0.06
0.02
0.02
0.16
0.68
0.04
0.56
0.62
0.68
0.44
0.09
0.02
0.01
0.02
0.02
0.02
0.02
0.02
0.02
0.02
0.02
0.06
0.04
0.06
0.06
0.02
0.02
0.02
0.00
0.02
0.02
0.05
0.08
0.09
0.09
0.09
0.07
0.02
0.01
0.02
0.06
0.08
0.09
0.11
0.16
0.18
0.16
0.11
0.16
0.11
0.11
0.09
0.11
0.09
0.09
0.11
0.11
0.16
0.16
0.09
0.11
0.11
0.09
0.09
0.11
0.11
0.11
0.09
0.09
0.09
0.09
0.09
0.09
0.11
0.23
0.18
0.23
0.18
0.53
0.31
0.23
0.11
0.02
0.04
0.02
0.07
0.07
0.04
0.04
0.02
0.02
0.16
0.61
0.02
0.54
0.50
0.66
0.43
0.09
0.00
0.00
0.01
0.02
0.02
0.02
0.01
0.02
0.01
0.02
0.01
0.02
0.02
0.01
0.00
0.00
0.02
0.05
0.03
0.09
0.12
0.15
0.17
0.17
0.15
0.15
0.10
0.08
0.02
0.01
0.02
0.06
0.06
0.08
0.07
0.07
0.07
0.07
0.07
0.07
0.06
0.07
0.06
0.02
0.06
0.07
0.06
0.02
0.02
0.02
0.02
0.01
0.02
0.02
0.02
0.00
0.02
0.02
0.00
0.00
0.01
0.00
0.00
0.02
0.02
0.01
0.04
0.09
0.09
0.07
0.04
0.02
0.07
0.05
0.02
0.03
0.03
0.05
0.05
0.15
0.03
0.08
0.76
0.43
0.53
0.43
0.51
0.46
0.12
0.12
0.09
0.08
0.08
0.09
0.09
0.09
0.09
0.09
0.09
0.10
0.12
0.12
0.14
0.17
0.17
0.22
0.22
0.29
0.32
0.35
0.37
0.36
0.37
0.33
0.32
0.25
0.22
0.17
0.14
0.09
0.09
0.08
0.08
0.07
0.07
0.05
0.05
0.05
0.07
0.07
0.09
0.07
0.09
0.05
0.08
0.08
0.08
0.08
0.09
0.09
0.08
0.09
0.09
0.08
0.09
0.09
0.09
0.09
0.09
0.08
0.07
0.02
0.03
0.02
0.03
0.08
0.01
0.02
0.02
0.12
0.10
0.14
0.09
0.10
0.10
0.10
0.15
0.27
0.07
0.09
0.02
0.54
0.54
0.68
0.56
0.39
0.17
0.15
0.14
0.12
0.12
0.09
0.09
0.09
0.09
0.09
0.08
0.07
0.07
0.08
0.08
0.09
0.10
0.10
0.14
0.17
0.20
0.25
0.25
0.27
0.28
0.22
0.20
0.17
0.12
0.09
0.07
0.02
0.02
0.02
0.01
0.01
0.01
0.00
0.00
0.01
0.00
0.01
0.00
0.01
0.00
0.00
0.00
0.00
0.00
0.01
0.00
0.00
0.00
0.00
0.01
0.00
0.02
0.01
0.01
0.00
0.01
0.02
0.01
0.02
0.00
0.04
0.07
0.08
0.00
0.01
0.09
0.09
0.09
0.07
0.09
0.08
0.08
0.08
0.17
0.01
0.00
0.73
0.59
0.78
0.61
0.56
0.42
0.07
0.09
0.07
0.03
0.02
0.02
0.02
0.02
0.02
0.01
0.01
0.01
0.02
0.01
0.02
0.02
0.02
0.02
0.05
0.07
0.10
0.12
0.15
0.15
0.17
0.15
0.10
0.07
0.05
0.01
0.02
0.02
0.04
0.04
0.08
0.06
0.07
0.06
0.06
0.04
0.04
0.06
0.06
0.04
0.02
0.02
0.02
0.04
0.04
0.04
0.02
0.04
0.02
0.02
0.02
0.02
0.02
0.02
0.04
0.02
0.02
0.02
0.06
0.09
0.04
0.09
0.07
0.31
0.09
0.07
0.02
0.02
0.02
0.02
0.02
0.01
0.01
0.00
0.02
0.08
0.02
0.60
0.02
0.54
0.56
0.68
0.44
0.17
0.02
0.02
0.01
0.01
0.01
0.00
0.02
0.01
0.02
0.01
0.00
0.01
0.01
0.00
0.00
0.01
0.02
0.02
0.07
0.09
0.09
0.14
0.15
0.15
0.14
0.10
0.09
0.05
0.02
0.02
0.02
0.04
0.08
0.07
0.08
0.08
0.08
0.09
0.07
0.06
0.07
0.08
0.06
0.06
0.04
0.04
0.04
0.06
0.02
0.04
0.04
0.02
0.02
0.02
0.02
0.02
0.02
0.02
0.02
0.02
0.02
0.01
0.02
0.04
0.09
0.02
0.08
0.18
0.18
0.08
0.07
0.02
0.03
0.02
0.00
0.00
0.02
0.02
0.02
0.14
0.02
0.02
0.78
0.44
0.51
0.44
0.48
0.43
0.05
0.09
0.03
0.07
0.05
0.03
0.02
0.02
0.03
0.02
0.02
0.02
0.03
0.07
0.08
0.08
0.10
0.12
0.15
0.17
0.20
0.28
0.28
0.25
0.28
0.25
0.20
0.17
0.10
0.08
0.03
0.02
0.01
0.01
0.00
0.01
0.02
0.00
0.02
0.00
0.00
0.01
0.01
0.02
0.02
0.01
0.01
0.01
0.01
0.00
0.01
0.00
0.00
0.00
0.00
0.02
0.01
0.00
0.00
0.00
0.02
0.00
0.04
0.02
0.06
0.02
0.18
0.04
0.02
0.02
0.03
0.02
0.03
0.02
0.02
0.03
0.03
0.03
0.10
0.02
0.45
0.02
0.51
0.43
0.58
0.46
0.17
0.09
0.05
0.03
0.02
0.02
0.02
0.02
0.01
0.02
0.02
0.02
0.02
0.02
0.02
0.01
0.02
0.02
0.03
0.05
0.08
0.10
0.12
0.14
0.12
0.12
0.09
0.08
0.02
0.01
0.02
0.04
0.07
0.08
0.09
0.08
0.11
0.11
0.11
0.09
0.09
0.09
0.09
0.08
0.09
0.09
0.09
0.08
0.08
0.09
0.09
0.09
0.07
0.08
0.09
0.08
0.08
0.08
0.09
0.08
0.08
0.09
0.23
0.16
0.16
0.23
0.52
0.34
0.16
0.16
0.02
0.02
0.02
0.07
0.04
0.04
0.04
0.04
0.02
0.18
0.23
0.79
0.45
0.70
0.51
0.44
0.25
0.01
0.00
0.01
0.02
0.02
0.02
0.02
0.04
0.02
0.06
0.04
0.06
0.06
0.07
0.04
0.04
0.04
0.02
0.00
0.01
0.02
0.05
0.07
0.08
0.07
0.07
0.05
0.01
0.02
0.04
0.07
0.09
0.11
0.16
0.16
0.16
0.16
0.16
0.09
0.09
0.11
0.11
0.09
0.09
0.09
0.09
0.11
0.09
0.11
0.11
0.09
0.09
0.11
0.09
0.11
0.09
0.09
0.11
0.09
0.09
0.09
0.16
0.27
0.16
0.23
0.18
0.52
0.27
0.18
0.09
0.02
0.02
0.02
0.07
0.06
0.02
0.02
0.02
0.03
0.09
0.39
0.42
0.51
0.66
0.66
0.44
0.17
0.02
0.02
0.00
0.00
0.00
0.00
0.01
0.02
0.01
0.00
0.01
0.00
0.02
0.02
0.02
0.05
0.05
0.07
0.09
0.10
0.14
0.17
0.17
0.20
0.17
0.17
0.17
0.10
0.05
0.02
0.02
0.01
0.02
0.02
0.02
0.02
0.02
0.02
0.02
0.02
0.02
0.01
0.01
0.00
0.01
0.00
0.00
0.00
0.01
0.01
0.00
0.00
0.00
0.02
0.01
0.02
0.02
0.02
0.02
0.02
0.02
0.01
0.02
0.02
0.01
0.01
0.16
0.01
0.01
0.03
0.12
0.09
0.12
0.09
0.09
0.14
0.12
0.14
0.25
0.10
0.09
0.17
0.62
0.46
0.70
0.53
0.33
0.17
0.17
0.17
0.14
0.17
0.17
0.15
0.12
0.17
0.17
0.17
0.17
0.17
0.17
0.20
0.27
0.29
0.28
0.32
0.33
0.33
0.39
0.39
0.39
0.37
0.36
0.29
0.25
0.17
0.14
0.14
0.09
0.08
0.09
0.09
0.09
0.09
0.10
0.09
0.12
0.10
0.10
0.10
0.12
0.10
0.14
0.10
0.12
0.12
0.12
0.14
0.14
0.10
0.10
0.10
0.10
0.12
0.09
0.10
0.10
0.08
0.02
0.08
0.02
0.02
0.02
0.02
0.02
0.09
0.15
0.15
0.12
0.14
0.15
0.17
0.17
0.27
0.10
0.12
0.67
0.44
0.66
0.48
0.56
0.51
0.17
0.17
0.15
0.15
0.12
0.10
0.10
0.10
0.10
0.12
0.09
0.10
0.09
0.09
0.12
0.12
0.12
0.15
0.17
0.17
0.17
0.27
0.27
0.27
0.28
0.20
0.20
0.17
0.14
0.09
0.05
0.02
0.02
0.02
0.01
0.00
0.01
0.01
0.01
0.01
0.02
0.02
0.01
0.02
0.02
0.02
0.02
0.02
0.02
0.02
0.02
0.02
0.02
0.04
0.02
0.04
0.04
0.02
0.04
0.04
0.04
0.07
0.18
0.07
0.23
0.09
0.46
0.16
0.09
0.02
0.00
0.02
0.02
0.02
0.02
0.02
0.01
0.00
0.01
0.04
0.81
0.37
0.69
0.45
0.68
0.43
0.02
0.02
0.00
0.01
0.02
0.02
0.02
0.02
0.02
0.02
0.02
0.02
0.02
0.02
0.02
0.00
0.00
0.01
0.02
0.05
0.07
0.09
0.10
0.12
0.12
0.10
0.10
0.07
0.02
0.00
0.02
0.07
0.07
0.07
0.09
0.09
0.08
0.07
0.08
0.07
0.07
0.04
0.08
0.07
0.08
0.07
0.08
0.07
0.08
0.07
0.09
0.09
0.09
0.09
0.09
0.11
0.09
0.11
0.09
0.16
0.16
0.16
0.27
0.39
0.23
0.42
0.46
0.52
0.31
0.27
0.04
0.04
0.04
0.07
0.07
0.08
0.06
0.07
0.01
0.11
0.06
0.86
0.42
0.67
0.41
0.48
0.37
0.02
0.02
0.02
0.02
0.07
0.06
0.07
0.06
0.06
0.06
0.06
0.07
0.06
0.02
0.04
0.02
0.02
0.02
0.00
0.02
0.05
0.09
0.09
0.12
0.10
0.10
0.09
0.03
0.01
0.02
0.02
0.06
0.09
0.09
0.09
0.09
0.09
0.09
0.09
0.08
0.06
0.07
0.08
0.09
0.08
0.07
0.08
0.08
0.06
0.08
0.04
0.07
0.04
0.06
0.06
0.04
0.07
0.07
0.07
0.02
0.06
0.06
0.09
0.23
0.06
0.09
0.07
0.46
0.16
0.09
0.07
0.02
0.02
0.00
0.02
0.01
0.01
0.02
0.03
0.07
0.02
0.46
0.08
0.50
0.42
0.62
0.46
0.20
0.09
0.09
0.07
0.09
0.08
0.05
0.05
0.03
0.02
0.08
0.08
0.08
0.09
0.09
0.10
0.10
0.12
0.15
0.17
0.17
0.27
0.25
0.29
0.27
0.25
0.17
0.17
0.10
0.08
0.05
0.02
0.03
0.02
0.02
0.02
0.01
0.02
0.02
0.02
0.02
0.02
0.02
0.02
0.03
0.02
0.02
0.02
0.02
0.02
0.02
0.02
0.01
0.00
0.01
0.01
0.00
0.02
0.00
0.01
0.01
0.02
0.06
0.01
0.07
0.08
0.16
0.04
0.02
0.02
0.07
0.05
0.02
0.03
0.05
0.05
0.03
0.17
0.01
0.00
0.78
0.43
0.51
0.45
0.46
0.42
0.02
0.03
0.02
0.02
0.01
0.01
0.00
0.01
0.01
0.00
0.00
0.02
0.01
0.02
0.01
0.01
0.00
0.02
0.02
0.02
0.07
0.09
0.10
0.10
0.10
0.09
0.08
0.02
0.02
0.01
0.02
0.02
0.07
0.08
0.08
0.08
0.09
0.09
0.09
0.07
0.09
0.08
0.09
0.09
0.09
0.09
0.09
0.09
0.09
0.09
0.09
0.08
0.09
0.09
0.08
0.08
0.08
0.08
0.07
0.08
0.08
0.09
0.27
0.08
0.23
0.16
0.50
0.23
0.11
0.02
0.02
0.01
0.02
0.02
0.02
0.02
0.02
0.00
0.02
0.04
0.84
0.41
0.67
0.44
0.68
0.42
0.02
0.02
0.01
0.02
0.01
0.02
0.02
0.02
0.02
0.02
0.02
0.01
0.02
0.02
0.01
0.01
0.02
0.02
0.05
0.08
0.09
0.12
0.17
0.17
0.17
0.17
0.15
0.10
0.09
0.03
0.02
0.00
0.02
0.02
0.02
0.02
0.02
0.02
0.02
0.02
0.02
0.02
0.02
0.01
0.02
0.01
0.01
0.01
0.02
0.01
0.02
0.00
0.01
0.01
0.01
0.00
0.00
0.02
0.01
0.00
0.02
0.02
0.06
0.02
0.07
0.08
0.23
0.04
0.02
0.03
0.03
0.02
0.02
0.02
0.02
0.02
0.03
0.09
0.01
0.05
0.81
0.44
0.73
0.44
0.69
0.44
0.09
0.09
0.08
0.07
0.05
0.05
0.07
0.08
0.08
0.08
0.08
0.09
0.08
0.09
0.09
0.10
0.10
0.14
0.17
0.22
0.25
0.29
0.33
0.37
0.33
0.35
0.29
0.27
0.17
0.14
0.10
0.08
0.05
0.03
0.03
0.02
0.02
0.03
0.02
0.03
0.03
0.05
0.05
0.05
0.07
0.07
0.05
0.07
0.05
0.08
0.07
0.05
0.05
0.05
0.03
0.07
0.05
0.03
0.05
0.07
0.07
0.02
0.00
0.02
0.01
0.02
0.07
0.01
0.01
0.07
0.09
0.10
0.09
0.09
0.09
0.09
0.10
0.25
0.09
0.14
0.72
0.48
0.65
0.48
0.59
0.51
0.17
0.28
0.25
0.22
0.20
0.17
0.17
0.17
0.17
0.17
0.17
0.17
0.22
0.17
0.17
0.25
0.25
0.25
0.25
0.32
0.33
0.32
0.35
0.36
0.33
0.29
0.29
0.22
0.15
0.14
0.09
0.09
0.08
0.07
0.07
0.07
0.08
0.05
0.05
0.09
0.09
0.08
0.09
0.09
0.09
0.07
0.08
0.09
0.09
0.09
0.09
0.08
0.08
0.08
0.08
0.08
0.08
0.05
0.05
0.05
0.02
0.00
0.02
0.02
0.07
0.08
0.02
0.01
0.05
0.08
0.07
0.03
0.05
0.05
0.07
0.07
0.17
0.01
0.00
0.73
0.44
0.53
0.46
0.46
0.44
0.08
0.08
0.07
0.03
0.03
0.02
0.02
0.02
0.02
0.02
0.02
0.02
0.01
0.01
0.01
0.02
0.02
0.02
0.05
0.07
0.09
0.10
0.14
0.15
0.17
0.14
0.10
0.09
0.02
0.02
0.00
0.02
0.02
0.06
0.04
0.08
0.06
0.07
0.07
0.07
0.07
0.08
0.06
0.07
0.07
0.06
0.07
0.06
0.06
0.07
0.06
0.07
0.08
0.07
0.09
0.09
0.08
0.08
0.09
0.09
0.16
0.34
0.11
0.34
0.23
0.60
0.39
0.34
0.11
0.06
0.07
0.07
0.09
0.09
0.08
0.08
0.07
0.02
0.16
0.79
0.01
0.50
0.50
0.65
0.42
0.07
0.06
0.06
0.06
0.09
0.09
0.09
0.09
0.09
0.09
0.09
0.09
0.09
0.09
0.07
0.09
0.07
0.04
0.04
0.02
0.00
0.01
0.02
0.03
0.02
0.03
0.03
0.01
0.01
0.02
0.09
0.11
0.23
0.23
0.27
0.27
0.39
0.34
0.27
0.31
0.34
0.27
0.27
0.27
0.31
0.31
0.31
0.27
0.31
0.31
0.27
0.23
0.27
0.23
0.23
0.18
0.23
0.23
0.18
0.18
0.18
0.31
0.42
0.18
0.45
0.39
0.61
0.39
0.34
0.09
0.06
0.06
0.07
0.08
0.08
0.07
0.07
0.02
0.07
0.08
0.82
0.25
0.54
0.42
0.63
0.43
0.01
0.02
0.04
0.07
0.07
0.07
0.08
0.07
0.08
0.07
0.08
0.07
0.07
0.06
0.06
0.02
0.02
0.02
0.01
0.02
0.05
0.08
0.09
0.10
0.10
0.09
0.08
0.05
0.01
0.02
0.04
0.08
0.11
0.18
0.18
0.18
0.18
0.18
0.23
0.16
0.27
0.18
0.11
0.11
0.16
0.18
0.18
0.09
0.11
0.11
0.16
0.16
0.11
0.11
0.09
0.11
0.09
0.11
0.11
0.11
0.09
0.16
0.31
0.16
0.31
0.23
0.53
0.34
0.23
0.08
0.04
0.02
0.04
0.02
0.02
0.02
0.02
0.01
0.02
0.02
0.61
0.02
0.46
0.39
0.53
0.44
0.09
0.03
0.02
0.02
0.02
0.01
0.01
0.01
0.01
0.02
0.02
0.02
0.02
0.03
0.05
0.07
0.09
0.14
0.14
0.22
0.27
0.29
0.32
0.36
0.36
0.32
0.32
0.29
0.22
0.17
0.15
0.09
0.10
0.09
0.09
0.09
0.09
0.05
0.05
0.03
0.02
0.03
0.02
0.03
0.02
0.02
0.01
0.01
0.02
0.01
0.00
0.00
0.00
0.02
0.02
0.01
0.00
0.02
0.02
0.02
0.02
0.07
0.07
0.07
0.06
0.31
0.31
0.09
0.09
0.01
0.00
0.02
0.01
0.00
0.00
0.00
0.01
0.10
0.06
0.06
0.78
0.43
0.46
0.44
0.43
0.41
0.00
0.00
0.01
0.02
0.02
0.02
0.02
0.02
0.02
0.04
0.02
0.02
0.02
0.02
0.01
0.00
0.00
0.01
0.01
0.02
0.05
0.08
0.08
0.09
0.09
0.09
0.07
0.02
0.02
0.02
0.06
0.07
0.09
0.09
0.16
0.11
0.16
0.16
0.23
0.23
0.18
0.16
0.23
0.18
0.23
0.18
0.18
0.16
0.16
0.16
0.16
0.16
0.16
0.16
0.18
0.18
0.23
0.18
0.16
0.23
0.18
0.23
0.34
0.50
0.31
0.50
0.46
0.60
0.45
0.42
0.09
0.09
0.09
0.09
0.09
0.09
0.09
0.09
0.06
0.07
0.23
0.81
0.03
0.51
0.50
0.66
0.43
0.02
0.04
0.07
0.09
0.09
0.09
0.09
0.09
0.09
0.11
0.09
0.09
0.08
0.11
0.09
0.09
0.07
0.09
0.04
0.02
0.02
0.01
0.02
0.02
0.03
0.03
0.02
0.01
0.01
0.04
0.07
0.09
0.16
0.18
0.27
0.27
0.27
0.23
0.23
0.27
0.18
0.23
0.27
0.18
0.18
0.18
0.23
0.18
0.27
0.23
0.27
0.27
0.23
0.23
0.27
0.27
0.18
0.27
0.23
0.23
0.27
0.23
0.23
0.31
0.39
0.39
0.34
0.45
0.59
0.50
0.39
0.34
0.07
0.07
0.08
0.16
0.11
0.09
0.09
0.09
0.01
0.31
0.45
0.72
0.45
0.56
0.56
0.42
0.14
0.02
0.02
0.04
0.06
0.06
0.02
0.04
0.06
0.04
0.02
0.04
0.02
0.02
0.02
0.02
0.01
0.01
0.02
0.05
0.07
0.09
0.14
0.14
0.17
0.17
0.12
0.10
0.05
0.03
0.01
0.02
0.06
0.04
0.07
0.02
0.06
0.07
0.06
0.04
0.02
0.02
0.02
0.02
0.01
0.01
0.02
0.01
0.02
0.02
0.05
0.07
0.07
0.09
0.09
0.15
0.17
0.17
0.17
0.22
0.27
0.25
0.29
0.29
0.27
0.32
0.27
0.32
0.17
0.28
0.36
0.39
0.42
0.42
0.42
0.42
0.42
0.42
0.42
0.43
0.44
0.42
0.10
0.44
0.77
0.67
0.78
0.76
0.44
0.43
0.42
0.41
0.41
0.39
0.39
0.39
0.37
0.37
0.36
0.37
0.39
0.37
0.37
0.37
0.37
0.39
0.41
0.41
0.42
0.42
0.42
0.43
0.42
0.43
0.42
0.41
0.39
0.35
0.29
0.29
0.28
0.22
0.22
0.17
0.17
0.20
0.20
0.25
0.20
0.25
0.27
0.22
0.25
0.27
0.28
0.27
0.28
0.27
0.27
0.27
0.28
0.27
0.28
0.29
0.27
0.27
0.28
0.28
0.27
0.27
0.17
0.15
0.22
0.14
0.14
0.05
0.12
0.14
0.22
0.29
0.29
0.28
0.29
0.29
0.29
0.29
0.35
0.32
0.27
0.23
0.42
0.70
0.58
0.73
0.70
0.41
0.37
0.32
0.33
0.29
0.32
0.28
0.29
0.29
0.29
0.29
0.28
0.28
0.29
0.27
0.28
0.28
0.29
0.32
0.32
0.35
0.37
0.39
0.39
0.39
0.39
0.39
0.33
0.29
0.25
0.20
0.15
0.12
0.12
0.09
0.08
0.08
0.09
0.08
0.07
0.08
0.07
0.07
0.08
0.07
0.09
0.09
0.09
0.09
0.09
0.09
0.09
0.09
0.08
0.09
0.09
0.08
0.08
0.09
0.08
0.08
0.07
0.03
0.01
0.03
0.00
0.02
0.09
0.00
0.02
0.05
0.15
0.12
0.10
0.09
0.09
0.09
0.09
0.12
0.17
0.02
0.62
0.27
0.69
0.68
0.77
0.51
0.27
0.10
0.09
0.09
0.08
0.07
0.07
0.03
0.08
0.05
0.03
0.03
0.03
0.03
0.05
0.05
0.05
0.09
0.09
0.09
0.14
0.17
0.17
0.22
0.22
0.22
0.20
0.15
0.12
0.09
0.05
0.02
0.01
0.00
0.00
0.02
0.02
0.02
0.00
0.02
0.02
0.02
0.02
0.02
0.02
0.02
0.02
0.02
0.02
0.02
0.02
0.04
0.02
0.02
0.04
0.02
0.04
0.04
0.02
0.02
0.02
0.02
0.06
0.11
0.04
0.16
0.08
0.46
0.09
0.08
0.02
0.02
0.00
0.00
0.00
0.01
0.02
0.01
0.02
0.00
0.02
0.82
0.39
0.59
0.42
0.63
0.43
0.02
0.01
0.01
0.02
0.02
0.02
0.02
0.02
0.01
0.02
0.04
0.02
0.02
0.02
0.02
0.02
0.01
0.01
0.00
0.02
0.07
0.09
0.10
0.14
0.14
0.14
0.09
0.08
0.03
0.01
0.02
0.02
0.07
0.06
0.08
0.07
0.07
0.04
0.08
0.08
0.08
0.04
0.07
0.07
0.06
0.04
0.07
0.06
0.02
0.04
0.08
0.07
0.07
0.08
0.07
0.07
0.06
0.08
0.07
0.09
0.07
0.07
0.09
0.27
0.09
0.18
0.39
0.52
0.23
0.16
0.02
0.01
0.06
0.04
0.02
0.02
0.02
0.02
0.03
0.07
0.00
0.81
0.39
0.46
0.39
0.44
0.43
0.02
0.03
0.01
0.02
0.01
0.01
0.01
0.00
0.02
0.02
0.02
0.00
0.01
0.02
0.02
0.02
0.07
0.03
0.05
0.09
0.12
0.17
0.17
0.12
0.17
0.12
0.10
0.07
0.02
0.02
0.02
0.02
0.04
0.04
0.07
0.06
0.07
0.07
0.07
0.04
0.06
0.06
0.04
0.06
0.06
0.06
0.04
0.04
0.04
0.04
0.04
0.04
0.07
0.02
0.06
0.06
0.06
0.06
0.06
0.06
0.07
0.08
0.23
0.11
0.23
0.11
0.52
0.39
0.18
0.16
0.02
0.02
0.04
0.07
0.07
0.06
0.04
0.02
0.07
0.11
0.45
0.60
0.42
0.43
0.46
0.43
0.27
0.02
0.02
0.02
0.06
0.06
0.09
0.07
0.07
0.07
0.09
0.08
0.08
0.08
0.07
0.07
0.04
0.04
0.02
0.01
0.01
0.02
0.05
0.07
0.09
0.08
0.07
0.03
0.02
0.01
0.02
0.06
0.09
0.09
0.18
0.23
0.18
0.18
0.18
0.18
0.16
0.18
0.18
0.27
0.18
0.11
0.16
0.18
0.23
0.18
0.16
0.18
0.18
0.27
0.18
0.18
0.27
0.23
0.23
0.23
0.27
0.27
0.42
0.42
0.34
0.34
0.55
0.50
0.39
0.27
0.02
0.04
0.06
0.08
0.06
0.07
0.08
0.07
0.02
0.27
0.34
0.76
0.44
0.59
0.50
0.43
0.15
0.02
0.02
0.06
0.06
0.06
0.08
0.07
0.09
0.06
0.08
0.07
0.07
0.04
0.07
0.07
0.04
0.02
0.02
0.00
0.01
0.03
0.05
0.08
0.09
0.09
0.05
0.03
0.01
0.02
0.06
0.08
0.09
0.11
0.16
0.23
0.18
0.16
0.11
0.18
0.11
0.11
0.16
0.11
0.11
0.09
0.11
0.09
0.11
0.09
0.09
0.09
0.09
0.08
0.09
0.09
0.09
0.08
0.08
0.07
0.07
0.16
0.18
0.16
0.18
0.31
0.50
0.27
0.16
0.02
0.02
0.02
0.04
0.06
0.04
0.04
0.04
0.00
0.07
0.02
0.83
0.39
0.56
0.41
0.54
0.42
0.00
0.00
0.00
0.02
0.02
0.02
0.02
0.04
0.02
0.02
0.02
0.02
0.02
0.02
0.01
0.00
0.02
0.02
0.07
0.07
0.09
0.15
0.17
0.22
0.17
0.17
0.15
0.10
0.05
0.02
0.00
0.02
0.02
0.06
0.06
0.07
0.04
0.04
0.02
0.02
0.06
0.02
0.02
0.02
0.02
0.02
0.02
0.01
0.01
0.02
0.01
0.00
0.02
0.01
0.00
0.00
0.01
0.00
0.01
0.02
0.02
0.04
0.02
0.02
0.02
0.18
0.09
0.02
0.02
0.03
0.05
0.05
0.01
0.02
0.05
0.08
0.05
0.17
0.02
0.02
0.70
0.46
0.45
0.46
0.45
0.42
0.09
0.10
0.09
0.08
0.08
0.07
0.08
0.09
0.09
0.08
0.10
0.09
0.09
0.10
0.12
0.15
0.15
0.17
0.22
0.28
0.29
0.29
0.33
0.32
0.32
0.29
0.25
0.17
0.15
0.09
0.10
0.08
0.08
0.03
0.03
0.02
0.07
0.07
0.05
0.07
0.07
0.05
0.07
0.08
0.08
0.08
0.07
0.09
0.09
0.09
0.09
0.09
0.08
0.08
0.07
0.08
0.08
0.07
0.07
0.05
0.02
0.01
0.02
0.02
0.02
0.09
0.02
0.01
0.05
0.09
0.08
0.07
0.08
0.07
0.08
0.07
0.17
0.05
0.08
0.68
0.35
0.51
0.43
0.54
0.48
0.12
0.12
0.09
0.09
0.08
0.08
0.07
0.07
0.05
0.05
0.03
0.08
0.07
0.05
0.03
0.09
0.07
0.09
0.09
0.12
0.15
0.17
0.17
0.25
0.25
0.20
0.17
0.12
0.09
0.03
0.02
0.01
0.01
0.02
0.02
0.02
0.04
0.02
0.02
0.04
0.04
0.04
0.02
0.02
0.04
0.02
0.04
0.02
0.02
0.02
0.04
0.02
0.02
0.04
0.02
0.02
0.02
0.02
0.04
0.04
0.09
0.09
0.08
0.09
0.31
0.31
0.09
0.09
0.00
0.02
0.00
0.02
0.02
0.01
0.02
0.01
0.07
0.08
0.04
0.81
0.44
0.70
0.44
0.50
0.36
0.02
0.02
0.02
0.01
0.01
0.01
0.01
0.00
0.00
0.01
0.01
0.01
0.01
0.01
0.01
0.02
0.03
0.07
0.08
0.09
0.12
0.17
0.17
0.17
0.17
0.17
0.10
0.07
0.03
0.01
0.01
0.02
0.04
0.06
0.08
0.06
0.07
0.07
0.06
0.07
0.07
0.06
0.04
0.07
0.06
0.04
0.02
0.07
0.06
0.07
0.02
0.07
0.06
0.07
0.06
0.07
0.07
0.08
0.07
0.08
0.18
0.11
0.16
0.09
0.52
0.18
0.11
0.09
0.00
0.02
0.01
0.02
0.04
0.02
0.02
0.02
0.08
0.08
0.08
0.70
0.44
0.59
0.44
0.46
0.33
0.01
0.02
0.02
0.01
0.01
0.02
0.02
0.01
0.01
0.02
0.02
0.02
0.02
0.02
0.05
0.03
0.07
0.09
0.12
0.14
0.17
0.22
0.27
0.29
0.28
0.25
0.22
0.15
0.09
0.07
0.02
0.02
0.01
0.00
0.02
0.02
0.02
0.02
0.02
0.02
0.02
0.02
0.02
0.02
0.02
0.02
0.02
0.02
0.02
0.02
0.02
0.02
0.02
0.02
0.01
0.02
0.01
0.01
0.02
0.02
0.08
0.02
0.09
0.06
0.31
0.08
0.06
0.02
0.02
0.02
0.03
0.00
0.01
0.02
0.02
0.05
0.08
0.08
0.45
0.15
0.48
0.39
0.51
0.46
0.20
0.10
0.08
0.09
0.09
0.07
0.09
0.08
0.08
0.09
0.10
0.09
0.12
0.12
0.14
0.12
0.14
0.15
0.17
0.20
0.20
0.27
0.29
0.28
0.28
0.29
0.27
0.17
0.15
0.10
0.08
0.07
0.05
0.02
0.02
0.02
0.02
0.02
0.02
0.02
0.02
0.02
0.02
0.02
0.01
0.02
0.02
0.02
0.02
0.02
0.02
0.02
0.02
0.02
0.00
0.01
0.00
0.00
0.01
0.02
0.06
0.02
0.07
0.04
0.34
0.09
0.06
0.06
0.02
0.02
0.02
0.00
0.01
0.01
0.00
0.01
0.10
0.04
0.16
0.65
0.43
0.46
0.46
0.44
0.29
0.01
0.00
0.00
0.00
0.02
0.02
0.02
0.02
0.02
0.02
0.02
0.02
0.02
0.02
0.02
0.01
0.01
0.01
0.02
0.05
0.09
0.09
0.12
0.12
0.14
0.10
0.09
0.03
0.02
0.02
0.02
0.06
0.07
0.08
0.08
0.09
0.07
0.08
0.07
0.07
0.06
0.07
0.09
0.07
0.06
0.07
0.07
0.09
0.06
0.07
0.08
0.08
0.06
0.07
0.07
0.07
0.06
0.04
0.07
0.08
0.18
0.06
0.23
0.09
0.50
0.11
0.09
0.02
0.00
0.01
0.01
0.02
0.02
0.01
0.02
0.02
0.02
0.04
0.67
0.09
0.53
0.48
0.67
0.43
0.09
0.02
0.02
0.02
0.02
0.02
0.02
0.02
0.02
0.02
0.02
0.02
0.02
0.02
0.02
0.02
0.01
0.01
0.02
0.02
0.05
0.09
0.10
0.10
0.15
0.12
0.12
0.08
0.03
0.01
0.02
0.02
0.07
0.08
0.08
0.09
0.09
0.09
0.09
0.09
0.09
0.08
0.08
0.07
0.09
0.08
0.09
0.08
0.08
0.09
0.09
0.09
0.08
0.09
0.08
0.08
0.06
0.09
0.08
0.07
0.08
0.11
0.11
0.11
0.18
0.39
0.34
0.11
0.11
0.00
0.01
0.01
0.02
0.02
0.02
0.00
0.01
0.05
0.02
0.02
0.81
0.44
0.68
0.42
0.53
0.44
0.07
0.05
0.03
0.02
0.02
0.02
0.02
0.02
0.02
0.02
0.02
0.03
0.02
0.03
0.03
0.09
0.08
0.10
0.15
0.17
0.22
0.17
0.29
0.29
0.29
0.27
0.22
0.17
0.10
0.08
0.03
0.02
0.02
0.01
0.01
0.01
0.02
0.01
0.00
0.02
0.02
0.02
0.02
0.02
0.02
0.02
0.02
0.02
0.03
0.03
0.02
0.02
0.02
0.03
0.02
0.02
0.07
0.03
0.05
0.02
0.02
0.01
0.03
0.01
0.01
0.07
0.02
0.02
0.08
0.17
0.10
0.10
0.14
0.14
0.17
0.17
0.22
0.17
0.22
0.34
0.43
0.68
0.44
0.62
0.61
0.33
0.29
0.22
0.27
0.22
0.20
0.20
0.17
0.20
0.17
0.17
0.17
0.17
0.20
0.20
0.25
0.27
0.27
0.29
0.32
0.35
0.37
0.39
0.39
0.39
0.36
0.35
0.29
0.27
0.20
0.17
0.12
0.09
0.09
0.09
0.09
0.08
0.07
0.07
0.08
0.08
0.09
0.09
0.09
0.08
0.08
0.09
0.09
0.09
0.10
0.09
0.10
0.09
0.09
0.10
0.10
0.09
0.09
0.09
0.09
0.02
0.02
0.03
0.02
0.04
0.02
0.02
0.02
0.15
0.12
0.12
0.09
0.09
0.09
0.09
0.12
0.27
0.02
0.02
0.57
0.61
0.76
0.67
0.59
0.42
0.17
0.17
0.15
0.15
0.14
0.12
0.12
0.14
0.12
0.12
0.12
0.10
0.09
0.09
0.10
0.15
0.14
0.15
0.17
0.22
0.29
0.29
0.33
0.32
0.35
0.29
0.29
0.25
0.17
0.12
0.09
0.08
0.08
0.05
0.03
0.03
0.05
0.02
0.03
0.03
0.05
0.03
0.03
0.02
0.03
0.02
0.03
0.03
0.03
0.03
0.03
0.02
0.02
0.05
0.02
0.02
0.03
0.02
0.02
0.02
0.01
0.02
0.01
0.02
0.11
0.06
0.02
0.02
0.08
0.08
0.05
0.03
0.02
0.05
0.05
0.05
0.15
0.02
0.01
0.65
0.58
0.73
0.54
0.50
0.39
0.08
0.09
0.05
0.05
0.05
0.02
0.02
0.03
0.02
0.02
0.02
0.02
0.02
0.03
0.02
0.02
0.05
0.09
0.09
0.10
0.17
0.20
0.20
0.22
0.22
0.20
0.17
0.12
0.07
0.05
0.02
0.01
0.02
0.02
0.02
0.02
0.02
0.02
0.02
0.02
0.02
0.02
0.02
0.02
0.02
0.01
0.02
0.02
0.02
0.02
0.02
0.02
0.02
0.01
0.02
0.02
0.02
0.02
0.02
0.02
0.06
0.09
0.04
0.09
0.09
0.42
0.18
0.09
0.02
0.01
0.00
0.01
0.01
0.01
0.01
0.02
0.07
0.02
0.05
0.72
0.32
0.51
0.42
0.59
0.46
0.12
0.09
0.08
0.07
0.08
0.02
0.08
0.05
0.03
0.05
0.05
0.07
0.07
0.05
0.08
0.09
0.09
0.10
0.17
0.17
0.17
0.25
0.28
0.27
0.25
0.20
0.17
0.09
0.09
0.02
0.02
0.00
0.02
0.02
0.02
0.02
0.02
0.04
0.04
0.04
0.02
0.04
0.02
0.02
0.02
0.04
0.02
0.02
0.02
0.02
0.02
0.04
0.02
0.02
0.04
0.02
0.02
0.06
0.02
0.06
0.08
0.11
0.06
0.18
0.16
0.39
0.18
0.16
0.04
0.01
0.02
0.02
0.02
0.02
0.02
0.02
0.05
0.04
0.02
0.80
0.41
0.50
0.42
0.44
0.43
0.02
0.01
0.01
0.02
0.02
0.04
0.02
0.04
0.04
0.02
0.06
0.04
0.04
0.02
0.04
0.02
0.01
0.00
0.02
0.02
0.05
0.09
0.09
0.09
0.12
0.09
0.09
0.02
0.01
0.01
0.04
0.07
0.08
0.09
0.11
0.11
0.11
0.11
0.16
0.11
0.18
0.09
0.16
0.16
0.09
0.16
0.11
0.16
0.16
0.11
0.11
0.16
0.18
0.18
0.16
0.16
0.18
0.16
0.18
0.18
0.23
0.39
0.27
0.42
0.27
0.60
0.45
0.34
0.18
0.07
0.09
0.09
0.11
0.11
0.09
0.09
0.08
0.04
0.23
0.79
0.05
0.51
0.46
0.62
0.42
0.00
0.02
0.07
0.08
0.09
0.08
0.11
0.11
0.11
0.11
0.16
0.11
0.11
0.16
0.11
0.09
0.08
0.07
0.02
0.02
0.00
0.02
0.05
0.07
0.07
0.05
0.03
0.01
0.02
0.07
0.08
0.18
0.23
0.27
0.31
0.27
0.23
0.23
0.27
0.23
0.23
0.23
0.18
0.18
0.23
0.23
0.18
0.16
0.18
0.18
0.16
0.23
0.23
0.18
0.18
0.11
0.23
0.18
0.18
0.23
0.23
0.31
0.45
0.18
0.45
0.50
0.55
0.39
0.42
0.08
0.06
0.07
0.09
0.09
0.09
0.08
0.08
0.02
0.11
0.09
0.87
0.42
0.56
0.39
0.46
0.33
0.06
0.02
0.02
0.06
0.07
0.07
0.06
0.07
0.06
0.06
0.06
0.06
0.04
0.06
0.02
0.02
0.02
0.00
0.02
0.02
0.08
0.09
0.15
0.14
0.14
0.12
0.09
0.05
0.01
0.01
0.04
0.07
0.09
0.09
0.11
0.11
0.09
0.07
0.09
0.08
0.08
0.07
0.07
0.07
0.07
0.08
0.07
0.07
0.06
0.06
0.06
0.06
0.06
0.04
0.04
0.02
0.02
0.02
0.02
0.02
0.02
0.04
0.07
0.01
0.07
0.02
0.27
0.06
0.04
0.02
0.02
0.02
0.02
0.01
0.01
0.02
0.02
0.02
0.09
0.03
0.50
0.14
0.46
0.39
0.58
0.46
0.25
0.10
0.12
0.09
0.09
0.08
0.08
0.08
0.09
0.08
0.09
0.09
0.09
0.09
0.09
0.10
0.15
0.17
0.17
0.28
0.29
0.29
0.35
0.33
0.33
0.32
0.29
0.22
0.17
0.12
0.09
0.05
0.03
0.02
0.02
0.02
0.02
0.00
0.02
0.02
0.02
0.02
0.02
0.03
0.02
0.02
0.02
0.03
0.02
0.03
0.02
0.02
0.03
0.05
0.03
0.05
0.03
0.02
0.03
0.03
0.02
0.01
0.02
0.02
0.01
0.18
0.04
0.01
0.00
0.07
0.07
0.09
0.05
0.05
0.05
0.05
0.08
0.17
0.02
0.18
0.02
0.46
0.39
0.50
0.48
0.27
0.09
0.05
0.05
0.02
0.02
0.02
0.02
0.01
0.02
0.01
0.02
0.00
0.02
0.01
0.02
0.02
0.03
0.08
0.09
0.12
0.17
0.17
0.20
0.25
0.17
0.17
0.10
0.08
0.02
0.00
0.02
0.02
0.04
0.07
0.07
0.06
0.08
0.09
0.08
0.08
0.08
0.09
0.08
0.07
0.07
0.08
0.07
0.06
0.07
0.07
0.04
0.06
0.04
0.04
0.04
0.02
0.04
0.04
0.02
0.06
0.09
0.02
0.09
0.09
0.27
0.07
0.04
0.02
0.03
0.02
0.02
0.02
0.02
0.02
0.02
0.07
0.02
0.00
0.81
0.42
0.62
0.44
0.61
0.46
0.08
0.08
0.03
0.02
0.02
0.02
0.00
0.01
0.01
0.00
0.01
0.00
0.01
0.01
0.01
0.00
0.01
0.02
0.02
0.03
0.09
0.10
0.12
0.15
0.17
0.12
0.09
0.05
0.01
0.02
0.04
0.08
0.11
0.09
0.09
0.16
0.11
0.09
0.11
0.09
0.11
0.09
0.09
0.09
0.09
0.09
0.09
0.09
0.07
0.09
0.09
0.09
0.08
0.09
0.09
0.09
0.09
0.08
0.11
0.09
0.11
0.18
0.16
0.27
0.23
0.55
0.34
0.27
0.16
0.02
0.06
0.06
0.08
0.08
0.07
0.07
0.06
0.02
0.23
0.53
0.68
0.46
0.50
0.50
0.43
0.25
0.02
0.01
0.02
0.02
0.02
0.02
0.04
0.04
0.02
0.04
0.02
0.02
0.02
0.02
0.02
0.01
0.02
0.03
0.07
0.09
0.17
0.17
0.22
0.22
0.20
0.17
0.12
0.08
0.03
0.01
0.02
0.02
0.07
0.06
0.04
0.06
0.06
0.06
0.02
0.02
0.02
0.02
0.02
0.02
0.02
0.02
0.02
0.02
0.00
0.02
0.01
0.02
0.00
0.01
0.01
0.02
0.02
0.01
0.01
0.02
0.02
0.02
0.06
0.02
0.09
0.06
0.45
0.11
0.07
0.04
0.01
0.02
0.01
0.02
0.02
0.02
0.02
0.02
0.12
0.00
0.34
0.06
0.51
0.44
0.61
0.46
0.28
0.09
0.09
0.08
0.02
0.05
0.05
0.02
0.07
0.05
0.02
0.05
0.05
0.07
0.07
0.09
0.09
0.10
0.14
0.15
0.17
0.25
0.25
0.27
0.27
0.20
0.22
0.10
0.09
0.02
0.02
0.01
0.02
0.02
0.02
0.04
0.06
0.06
0.04
0.04
0.04
0.02
0.02
0.02
0.02
0.02
0.02
0.02
0.02
0.02
0.01
0.02
0.02
0.02
0.02
0.02
0.06
0.04
0.02
0.07
0.06
0.08
0.16
0.11
0.18
0.16
0.52
0.31
0.18
0.18
0.02
0.02
0.02
0.08
0.07
0.04
0.06
0.06
0.02
0.23
0.50
0.79
0.44
0.53
0.50
0.44
0.29
0.01
0.02
0.02
0.04
0.02
0.06
0.07
0.07
0.07
0.07
0.07
0.06
0.07
0.06
0.06
0.04
0.02
0.00
0.01
0.02
0.07
0.09
0.10
0.12
0.14
0.10
0.08
0.02
0.01
0.02
0.07
0.08
0.11
0.11
0.16
0.16
0.11
0.16
0.16
0.11
0.18
0.11
0.16
0.16
0.18
0.16
0.18
0.18
0.16
0.18
0.11
0.11
0.11
0.11
0.09
0.11
0.11
0.09
0.09
0.09
0.11
0.16
0.27
0.23
0.27
0.23
0.57
0.39
0.31
0.23
0.06
0.06
0.07
0.08
0.08
0.09
0.08
0.08
0.01
0.31
0.23
0.88
0.44
0.66
0.43
0.46
0.37
0.02
0.02
0.04
0.06
0.04
0.07
0.07
0.06
0.04
0.06
0.04
0.02
0.02
0.02
0.02
0.02
0.01
0.02
0.03
0.07
0.09
0.15
0.17
0.17
0.17
0.17
0.12
0.09
0.03
0.02
0.02
0.04
0.06
0.09
0.09
0.11
0.09
0.09
0.09
0.09
0.09
0.07
0.09
0.08
0.08
0.09
0.09
0.09
0.09
0.08
0.08
0.09
0.09
0.09
0.09
0.09
0.08
0.09
0.07
0.09
0.09
0.09
0.09
0.08
0.11
0.23
0.08
0.31
0.31
0.42
0.16
0.09
0.02
0.00
0.00
0.01
0.01
0.01
0.02
0.02
0.02
0.01
0.01
0.81
0.39
0.62
0.50
0.74
0.50
0.17
0.12
0.12
0.09
0.07
0.08
0.09
0.09
0.09
0.09
0.09
0.09
0.10
0.10
0.14
0.15
0.15
0.17
0.25
0.32
0.35
0.39
0.39
0.43
0.42
0.42
0.39
0.37
0.28
0.20
0.17
0.17
0.10
0.09
0.09
0.09
0.09
0.09
0.10
0.12
0.09
0.14
0.12
0.12
0.14
0.14
0.17
0.14
0.17
0.17
0.14
0.17
0.17
0.17
0.17
0.17
0.17
0.15
0.15
0.17
0.17
0.17
0.17
0.17
0.12
0.10
0.14
0.08
0.08
0.02
0.09
0.09
0.17
0.22
0.22
0.20
0.20
0.22
0.20
0.22
0.32
0.17
0.15
0.61
0.50
0.73
0.58
0.68
0.63
0.29
0.29
0.27
0.27
0.22
0.20
0.17
0.22
0.20
0.20
0.20
0.20
0.22
0.17
0.22
0.25
0.28
0.29
0.32
0.35
0.39
0.39
0.41
0.41
0.42
0.41
0.39
0.35
0.29
0.20
0.20
0.17
0.14
0.14
0.12
0.10
0.10
0.12
0.10
0.12
0.12
0.12
0.14
0.14
0.12
0.17
0.14
0.14
0.15
0.17
0.17
0.15
0.17
0.17
0.17
0.17
0.17
0.17
0.17
0.15
0.17
0.17
0.17
0.14
0.09
0.12
0.09
0.09
0.02
0.05
0.09
0.09
0.17
0.17
0.17
0.14
0.15
0.15
0.17
0.17
0.28
0.02
0.00
0.60
0.68
0.78
0.73
0.65
0.43
0.17
0.17
0.17
0.15
0.14
0.15
0.14
0.12
0.12
0.12
0.14
0.12
0.12
0.14
0.15
0.15
0.17
0.17
0.25
0.25
0.29
0.33
0.36
0.37
0.37
0.36
0.33
0.28
0.20
0.15
0.10
0.08
0.05
0.03
0.02
0.02
0.02
0.02
0.03
0.03
0.02
0.03
0.03
0.03
0.05
0.03
0.02
0.03
0.02
0.02
0.02
0.02
0.02
0.02
0.02
0.02
0.02
0.02
0.02
0.02
0.02
0.02
0.02
0.02
0.02
0.01
0.02
0.00
0.11
0.02
0.01
0.01
0.08
0.03
0.05
0.01
0.02
0.02
0.02
0.02
0.10
0.06
0.04
0.81
0.51
0.73
0.50
0.53
0.42
0.05
0.03
0.02
0.02
0.02
0.02
0.01
0.01
0.02
0.01
0.02
0.02
0.02
0.02
0.03
0.03
0.07
0.08
0.10
0.15
0.20
0.22
0.27
0.29
0.29
0.29
0.22
0.17
0.10
0.09
0.02
0.01
0.00
0.00
0.02
0.00
0.02
0.00
0.01
0.00
0.00
0.01
0.00
0.01
0.01
0.01
0.01
0.01
0.02
0.01
0.00
0.02
0.02
0.00
0.00
0.02
0.01
0.02
0.02
0.02
0.02
0.02
0.01
0.02
0.02
0.02
0.06
0.02
0.08
0.11
0.23
0.08
0.06
0.01
0.05
0.02
0.02
0.02
0.02
0.02
0.02
0.08
0.00
0.02
0.81
0.42
0.51
0.43
0.50
0.44
0.07
0.09
0.05
0.02
0.03
0.03
0.03
0.02
0.03
0.05
0.05
0.02
0.05
0.07
0.05
0.08
0.09
0.10
0.15
0.17
0.22
0.25
0.27
0.29
0.28
0.28
0.17
0.15
0.09
0.07
0.02
0.01
0.00
0.02
0.01
0.02
0.04
0.02
0.02
0.02
0.02
0.02
0.02
0.02
0.02
0.02
0.01
0.02
0.02
0.02
0.00
0.02
0.01
0.02
0.02
0.02
0.02
0.02
0.02
0.02
0.02
0.02
0.02
0.04
0.09
0.07
0.11
0.09
0.45
0.18
0.09
0.08
0.02
0.02
0.02
0.02
0.02
0.02
0.02
0.01
0.02
0.09
0.69
0.02
0.44
0.44
0.58
0.44
0.12
0.02
0.01
0.01
0.01
0.02
0.02
0.01
0.02
0.02
0.02
0.02
0.02
0.02
0.02
0.02
0.01
0.01
0.01
0.02
0.02
0.05
0.09
0.09
0.10
0.09
0.08
0.02
0.02
0.02
0.04
0.09
0.09
0.11
0.23
0.18
0.23
0.23
0.27
0.18
0.18
0.18
0.16
0.18
0.16
0.18
0.16
0.11
0.16
0.11
0.16
0.11
0.11
0.11
0.09
0.09
0.09
0.09
0.09
0.09
0.09
0.09
0.11
0.18
0.34
0.16
0.34
0.23
0.57
0.34
0.23
0.09
0.02
0.02
0.02
0.06
0.04
0.04
0.06
0.04
0.02
0.31
0.61
0.62
0.46
0.62
0.61
0.43
0.17
0.02
0.02
0.04
0.06
0.07
0.07
0.07
0.08
0.07
0.07
0.08
0.07
0.07
0.07
0.06
0.06
0.06
0.02
0.00
0.01
0.02
0.07
0.09
0.09
0.09
0.08
0.07
0.02
0.02
0.02
0.07
0.11
0.18
0.18
0.23
0.23
0.16
0.23
0.16
0.16
0.18
0.16
0.16
0.16
0.11
0.11
0.11
0.11
0.09
0.11
0.09
0.08
0.11
0.08
0.09
0.08
0.08
0.08
0.09
0.09
0.09
0.07
0.09
0.09
0.27
0.11
0.27
0.11
0.55
0.27
0.16
0.08
0.02
0.04
0.02
0.02
0.06
0.04
0.02
0.02
0.02
0.09
0.68
0.16
0.46
0.50
0.59
0.44
0.17
0.02
0.02
0.02
0.02
0.01
0.01
0.00
0.00
0.00
0.01
0.01
0.02
0.00
0.01
0.02
0.03
0.07
0.09
0.10
0.15
0.20
0.17
0.27
0.27
0.28
0.17
0.15
0.09
0.07
0.02
0.02
0.02
0.04
0.04
0.02
0.02
0.06
0.04
0.02
0.02
0.02
0.02
0.02
0.04
0.02
0.04
0.02
0.02
0.04
0.06
0.04
0.06
0.02
0.04
0.04
0.02
0.02
0.04
0.02
0.02
0.02
0.01
0.02
0.09
0.02
0.08
0.02
0.34
0.07
0.04
0.02
0.02
0.02
0.03
0.02
0.01
0.03
0.05
0.08
0.03
0.03
0.67
0.29
0.51
0.43
0.50
0.46
0.15
0.10
0.09
0.08
0.07
0.07
0.05
0.03
0.02
0.02
0.02
0.02
0.02
0.02
0.03
0.05
0.07
0.07
0.09
0.14
0.15
0.17
0.22
0.25
0.17
0.20
0.17
0.10
0.05
0.02
0.01
0.00
0.02
0.02
0.02
0.06
0.07
0.08
0.06
0.07
0.06
0.07
0.06
0.04
0.02
0.04
0.02
0.02
0.02
0.02
0.02
0.04
0.02
0.06
0.06
0.04
0.06
0.06
0.07
0.07
0.07
0.09
0.09
0.23
0.09
0.27
0.16
0.55
0.27
0.18
0.09
0.02
0.04
0.02
0.07
0.06
0.02
0.04
0.02
0.02
0.16
0.70
0.09
0.50
0.51
0.66
0.43
0.09
0.01
0.02
0.02
0.02
0.06
0.02
0.04
0.04
0.04
0.04
0.06
0.02
0.04
0.04
0.02
0.02
0.01
0.00
0.02
0.03
0.08
0.10
0.12
0.10
0.12
0.14
0.08
0.02
0.02
0.02
0.04
0.07
0.09
0.09
0.09
0.09
0.08
0.07
0.07
0.07
0.08
0.07
0.08
0.07
0.08
0.07
0.07
0.08
0.09
0.07
0.07
0.08
0.07
0.08
0.07
0.07
0.07
0.06
0.07
0.07
0.07
0.08
0.11
0.18
0.11
0.31
0.39
0.50
0.27
0.16
0.02
0.02
0.02
0.04
0.06
0.06
0.04
0.06
0.01
0.08
0.09
0.87
0.39
0.56
0.42
0.58
0.42
0.01
0.00
0.02
0.02
0.02
0.06
0.04
0.04
0.02
0.04
0.04
0.02
0.02
0.06
0.02
0.02
0.01
0.02
0.01
0.03
0.07
0.09
0.12
0.14
0.14
0.14
0.09
0.07
0.02
0.01
0.02
0.07
0.09
0.09
0.11
0.11
0.09
0.09
0.09
0.09
0.09
0.09
0.09
0.09
0.09
0.08
0.07
0.09
0.08
0.07
0.07
0.07
0.07
0.06
0.06
0.06
0.04
0.04
0.04
0.04
0.02
0.04
0.02
0.07
0.09
0.04
0.09
0.06
0.39
0.09
0.06
0.04
0.02
0.02
0.02
0.01
0.01
0.02
0.01
0.02
0.07
0.02
0.72
0.09
0.50
0.45
0.68
0.46
0.17
0.08
0.08
0.05
0.07
0.03
0.05
0.05
0.07
0.05
0.08
0.05
0.08
0.08
0.09
0.15
0.14
0.17
0.22
0.25
0.27
0.33
0.37
0.37
0.33
0.35
0.28
0.27
0.17
0.10
0.08
0.03
0.02
0.02
0.01
0.02
0.02
0.00
0.01
0.02
0.02
0.02
0.02
0.02
0.03
0.02
0.02
0.05
0.05
0.07
0.05
0.07
0.05
0.03
0.05
0.05
0.03
0.02
0.05
0.05
0.03
0.02
0.01
0.01
0.00
0.00
0.09
0.08
0.02
0.02
0.05
0.08
0.09
0.02
0.07
0.08
0.09
0.08
0.25
0.02
0.00
0.72
0.50
0.51
0.51
0.46
0.44
0.09
0.12
0.08
0.03
0.05
0.03
0.05
0.02
0.02
0.02
0.02
0.02
0.02
0.02
0.02
0.05
0.07
0.09
0.10
0.12
0.12
0.17
0.22
0.22
0.17
0.17
0.17
0.09
0.07
0.02
0.02
0.00
0.02
0.02
0.02
0.04
0.04
0.02
0.02
0.02
0.04
0.04
0.02
0.02
0.02
0.02
0.02
0.02
0.02
0.02
0.02
0.02
0.02
0.02
0.02
0.02
0.02
0.02
0.02
0.04
0.02
0.08
0.09
0.06
0.11
0.09
0.52
0.23
0.11
0.08
0.01
0.00
0.02
0.04
0.04
0.02
0.02
0.02
0.03
0.16
0.57
0.61
0.46
0.66
0.59
0.44
0.17
0.01
0.01
0.02
0.04
0.04
0.04
0.06
0.07
0.06
0.02
0.06
0.06
0.04
0.02
0.02
0.02
0.02
0.00
0.02
0.02
0.07
0.10
0.12
0.12
0.12
0.12
0.09
0.05
0.02
0.01
0.02
0.04
0.07
0.08
0.06
0.08
0.08
0.07
0.06
0.07
0.07
0.09
0.07
0.08
0.08
0.08
0.07
0.08
0.08
0.08
0.07
0.08
0.07
0.08
0.08
0.07
0.08
0.07
0.09
0.07
0.08
0.08
0.09
0.16
0.11
0.11
0.11
0.46
0.23
0.16
0.09
0.01
0.00
0.02
0.02
0.02
0.02
0.02
0.01
0.07
0.07
0.04
0.84
0.44
0.68
0.46
0.54
0.43
0.05
0.05
0.02
0.02
0.02
0.02
0.02
0.02
0.02
0.02
0.02
0.02
0.02
0.02
0.01
0.02
0.03
0.02
0.08
0.09
0.12
0.17
0.17
0.17
0.20
0.17
0.14
0.10
0.05
0.02
0.01
0.02
0.04
0.04
0.07
0.08
0.07
0.07
0.06
0.04
0.04
0.02
0.02
0.06
0.02
0.02
0.02
0.04
0.04
0.04
0.02
0.06
0.02
0.04
0.02
0.02
0.02
0.02
0.02
0.02
0.02
0.02
0.04
0.09
0.09
0.08
0.08
0.39
0.16
0.08
0.07
0.01
0.02
0.02
0.02
0.01
0.02
0.02
0.03
0.14
0.02
0.01
0.81
0.44
0.51
0.48
0.48
0.42
0.09
0.09
0.08
0.07
0.05
0.05
0.05
0.05
0.05
0.03
0.08
0.07
0.08
0.08
0.10
0.10
0.12
0.15
0.17
0.28
0.27
0.29
0.35
0.35
0.33
0.32
0.25
0.17
0.14
0.09
0.05
0.02
0.02
0.02
0.02
0.01
0.02
0.02
0.02
0.02
0.01
0.01
0.02
0.01
0.02
0.02
0.02
0.02
0.02
0.01
0.02
0.02
0.02
0.02
0.02
0.02
0.02
0.02
0.02
0.02
0.02
0.02
0.02
0.01
0.02
0.02
0.01
0.09
0.02
0.00
0.02
0.07
0.08
0.08
0.08
0.05
0.09
0.09
0.09
0.10
0.03
0.60
0.17
0.53
0.43
0.59
0.51
0.22
0.12
0.09
0.08
0.05
0.07
0.05
0.05
0.05
0.05
0.05
0.05
0.05
0.05
0.08
0.09
0.09
0.09
0.14
0.17
0.17
0.20
0.22
0.28
0.25
0.25
0.22
0.17
0.14
0.08
0.05
0.02
0.01
0.00
0.01
0.01
0.01
0.01
0.02
0.00
0.00
0.01
0.00
0.00
0.01
0.01
0.01
0.01
0.02
0.01
0.00
0.01
0.01
0.00
0.02
0.01
0.00
0.01
0.01
0.02
0.02
0.02
0.06
0.09
0.04
0.11
0.09
0.45
0.11
0.08
0.07
0.01
0.01
0.01
0.06
0.06
0.02
0.02
0.02
0.03
0.18
0.61
0.57
0.46
0.62
0.63
0.44
0.20
0.00
0.00
0.01
0.02
0.02
0.02
0.02
0.02
0.02
0.02
0.01
0.02
0.02
0.00
0.01
0.01
0.02
0.02
0.05
0.08
0.09
0.15
0.17
0.17
0.17
0.17
0.14
0.09
0.07
0.02
0.00
0.02
0.04
0.06
0.06
0.06
0.06
0.06
0.06
0.02
0.04
0.04
0.02
0.02
0.02
0.02
0.02
0.04
0.07
0.06
0.04
0.04
0.04
0.04
0.04
0.02
0.02
0.04
0.04
0.04
0.02
0.06
0.09
0.08
0.07
0.11
0.42
0.23
0.09
0.09
0.00
0.02
0.01
0.02
0.02
0.01
0.00
0.00
0.05
0.06
0.02
0.83
0.45
0.68
0.44
0.56
0.43
0.03
0.03
0.03
0.01
0.01
0.01
0.01
0.01
0.01
0.01
0.01
0.01
0.01
0.01
0.02
0.02
0.03
0.07
0.09
0.10
0.14
0.20
0.17
0.25
0.25
0.22
0.17
0.12
0.07
0.02
0.01
0.01
0.02
0.04
0.02
0.02
0.02
0.02
0.02
0.02
0.02
0.01
0.00
0.01
0.00
0.02
0.00
0.01
0.01
0.01
0.01
0.01
0.02
0.02
0.02
0.02
0.03
0.02
0.02
0.05
0.02
0.05
0.03
0.02
0.02
0.02
0.02
0.08
0.02
0.00
0.01
0.09
0.08
0.09
0.08
0.08
0.09
0.07
0.09
0.22
0.02
0.00
0.53
0.48
0.48
0.59
0.46
0.42
0.14
0.15
0.15
0.14
0.12
0.10
0.12
0.10
0.12
0.12
0.12
0.12
0.14
0.17
0.17
0.17
0.17
0.25
0.27
0.29
0.32
0.35
0.35
0.36
0.37
0.33
0.28
0.25
0.17
0.15
0.09
0.09
0.07
0.08
0.07
0.08
0.05
0.07
0.08
0.09
0.09
0.10
0.09
0.09
0.09
0.10
0.12
0.12
0.12
0.12
0.14
0.12
0.12
0.14
0.15
0.15
0.12
0.14
0.15
0.14
0.12
0.09
0.07
0.09
0.02
0.07
0.02
0.03
0.05
0.10
0.17
0.17
0.14
0.12
0.12
0.14
0.10
0.14
0.20
0.07
0.42
0.03
0.53
0.51
0.69
0.53
0.29
0.15
0.12
0.09
0.08
0.08
0.09
0.05
0.03
0.03
0.03
0.02
0.03
0.03
0.03
0.03
0.03
0.08
0.09
0.09
0.12
0.17
0.20
0.25
0.22
0.27
0.25
0.20
0.15
0.09
0.07
0.02
0.02
0.01
0.01
0.02
0.01
0.02
0.01
0.00
0.01
0.01
0.02
0.01
0.00
0.01
0.02
0.01
0.01
0.02
0.02
0.02
0.02
0.02
0.02
0.02
0.02
0.02
0.02
0.02
0.02
0.06
0.04
0.06
0.11
0.07
0.09
0.09
0.42
0.16
0.09
0.04
0.02
0.01
0.01
0.02
0.02
0.02
0.01
0.01
0.05
0.09
0.59
0.23
0.50
0.69
0.61
0.45
0.25
0.02
0.02
0.00
0.00
0.01
0.01
0.01
0.01
0.00
0.02
0.00
0.00
0.00
0.01
0.02
0.02
0.07
0.05
0.08
0.09
0.17
0.15
0.17
0.20
0.17
0.17
0.14
0.08
0.03
0.02
0.02
0.02
0.04
0.07
0.09
0.07
0.07
0.07
0.08
0.08
0.08
0.07
0.07
0.08
0.09
0.08
0.09
0.09
0.08
0.09
0.09
0.09
0.09
0.09
0.08
0.09
0.09
0.08
0.09
0.09
0.09
0.07
0.09
0.27
0.09
0.23
0.16
0.53
0.31
0.11
0.07
0.02
0.02
0.02
0.02
0.06
0.04
0.02
0.01
0.01
0.02
0.79
0.09
0.44
0.42
0.56
0.44
0.05
0.02
0.02
0.03
0.02
0.02
0.02
0.02
0.02
0.02
0.03
0.02
0.02
0.03
0.05
0.07
0.09
0.10
0.12
0.15
0.20
0.17
0.25
0.25
0.28
0.20
0.17
0.12
0.09
0.07
0.02
0.01
0.02
0.06
0.02
0.02
0.02
0.02
0.02
0.02
0.00
0.01
0.02
0.02
0.02
0.01
0.01
0.01
0.02
0.02
0.01
0.01
0.00
0.01
0.02
0.00
0.02
0.01
0.02
0.02
0.02
0.02
0.08
0.04
0.08
0.23
0.23
0.09
0.08
0.01
0.01
0.01
0.00
0.01
0.01
0.02
0.02
0.10
0.01
0.01
0.79
0.43
0.46
0.44
0.44
0.42
0.02
0.03
0.02
0.01
0.00
0.01
0.01
0.00
0.01
0.02
0.01
0.01
0.00
0.02
0.00
0.01
0.01
0.02
0.02
0.03
0.08
0.09
0.09
0.10
0.10
0.12
0.07
0.03
0.02
0.01
0.04
0.07
0.08
0.09
0.09
0.11
0.09
0.11
0.16
0.11
0.11
0.09
0.09
0.16
0.09
0.09
0.09
0.09
0.09
0.08
0.08
0.09
0.08
0.08
0.06
0.09
0.07
0.07
0.08
0.07
0.06
0.08
0.09
0.11
0.09
0.11
0.42
0.23
0.11
0.11
0.00
0.00
0.01
0.06
0.02
0.02
0.04
0.02
0.02
0.11
0.09
0.84
0.43
0.70
0.44
0.46
0.33
0.02
0.02
0.04
0.02
0.04
0.07
0.07
0.07
0.07
0.07
0.07
0.06
0.06
0.06
0.06
0.02
0.02
0.01
0.00
0.02
0.05
0.08
0.09
0.09
0.09
0.10
0.07
0.02
0.01
0.02
0.02
0.07
0.08
0.08
0.09
0.09
0.08
0.07
0.09
0.07
0.07
0.06
0.08
0.07
0.07
0.06
0.08
0.08
0.07
0.07
0.09
0.07
0.07
0.07
0.07
0.08
0.09
0.08
0.07
0.09
0.08
0.11
0.23
0.09
0.23
0.11
0.46
0.23
0.18
0.06
0.02
0.02
0.02
0.04
0.02
0.02
0.02
0.02
0.02
0.06
0.78
0.20
0.53
0.42
0.59
0.43
0.01
0.01
0.02
0.02
0.02
0.02
0.02
0.02
0.02
0.02
0.02
0.01
0.01
0.01
0.00
0.00
0.02
0.07
0.08
0.09
0.14
0.17
0.20
0.25
0.25
0.25
0.17
0.15
0.08
0.05
0.01
0.00
0.02
0.04
0.02
0.02
0.02
0.02
0.02
0.02
0.02
0.01
0.02
0.02
0.01
0.01
0.00
0.01
0.01
0.01
0.01
0.01
0.02
0.01
0.01
0.01
0.01
0.02
0.00
0.00
0.01
0.02
0.01
0.02
0.02
0.18
0.07
0.02
0.02
0.05
0.05
0.07
0.02
0.05
0.07
0.05
0.08
0.14
0.09
0.42
0.22
0.53
0.43
0.58
0.46
0.17
0.14
0.09
0.08
0.07
0.07
0.07
0.05
0.03
0.03
0.02
0.03
0.03
0.03
0.07
0.05
0.08
0.09
0.14
0.14
0.15
0.17
0.20
0.22
0.20
0.17
0.17
0.12
0.07
0.03
0.03
0.02
0.00
0.02
0.01
0.01
0.01
0.00
0.01
0.01
0.01
0.01
0.00
0.00
0.00
0.01
0.01
0.00
0.00
0.01
0.00
0.01
0.00
0.01
0.01
0.01
0.00
0.02
0.02
0.02
0.07
0.07
0.07
0.06
0.31
0.11
0.06
0.07
0.02
0.02
0.02
0.00
0.01
0.00
0.02
0.01
0.15
0.02
0.06
0.72
0.44
0.53
0.51
0.46
0.33
0.02
0.03
0.03
0.02
0.02
0.02
0.01
0.01
0.01
0.01
0.01
0.01
0.00
0.00
0.00
0.01
0.02
0.02
0.03
0.09
0.10
0.12
0.17
0.17
0.17
0.17
0.15
0.10
0.07
0.02
0.02
0.01
0.02
0.02
0.02
0.02
0.02
0.02
0.02
0.02
0.02
0.02
0.02
0.02
0.02
0.02
0.02
0.02
0.02
0.02
0.02
0.02
0.02
0.02
0.06
0.04
0.02
0.04
0.06
0.06
0.07
0.11
0.09
0.11
0.09
0.46
0.18
0.11
0.08
0.02
0.02
0.02
0.04
0.02
0.02
0.02
0.02
0.08
0.09
0.62
0.07
0.48
0.56
0.62
0.43
0.17
0.00
0.01
0.01
0.02
0.02
0.02
0.02
0.02
0.02
0.02
0.02
0.04
0.02
0.02
0.02
0.01
0.02
0.02
0.02
0.07
0.09
0.10
0.12
0.14
0.15
0.10
0.08
0.05
0.02
0.00
0.02
0.04
0.07
0.08
0.08
0.08
0.07
0.07
0.06
0.06
0.04
0.07
0.04
0.04
0.04
0.04
0.06
0.04
0.04
0.04
0.06
0.07
0.06
0.04
0.06
0.04
0.06
0.04
0.07
0.07
0.09
0.18
0.08
0.27
0.08
0.46
0.18
0.11
0.02
0.01
0.00
0.02
0.02
0.02
0.01
0.01
0.01
0.02
0.02
0.69
0.07
0.46
0.43
0.61
0.43
0.09
0.05
0.02
0.02
0.01
0.02
0.02
0.02
0.02
0.02
0.02
0.02
0.03
0.03
0.03
0.05
0.08
0.10
0.14
0.14
0.17
0.27
0.22
0.27
0.25
0.27
0.17
0.10
0.08
0.03
0.00
0.01
0.00
0.02
0.02
0.04
0.06
0.02
0.02
0.02
0.02
0.02
0.02
0.02
0.02
0.00
0.01
0.01
0.01
0.00
0.01
0.02
0.02
0.02
0.03
0.02
0.01
0.03
0.02
0.01
0.00
0.02
0.01
0.02
0.09
0.08
0.01
0.02
0.05
0.08
0.09
0.07
0.08
0.08
0.08
0.08
0.25
0.07
0.02
0.55
0.53
0.51
0.59
0.51
0.44
0.15
0.17
0.17
0.15
0.15
0.14
0.14
0.14
0.15
0.14
0.12
0.15
0.12
0.15
0.14
0.15
0.14
0.17
0.20
0.20
0.25
0.27
0.28
0.29
0.28
0.20
0.17
0.15
0.09
0.08
0.02
0.02
0.00
0.00
0.02
0.02
0.02
0.02
0.01
0.01
0.00
0.01
0.01
0.01
0.02
0.02
0.02
0.02
0.02
0.02
0.02
0.02
0.02
0.02
0.02
0.02
0.02
0.02
0.01
0.02
0.01
0.02
0.01
0.02
0.07
0.07
0.02
0.02
0.07
0.09
0.07
0.02
0.03
0.03
0.03
0.02
0.12
0.00
0.01
0.80
0.45
0.73
0.46
0.56
0.42
0.07
0.05
0.03
0.02
0.02
0.02
0.02
0.01
0.02
0.01
0.02
0.01
0.01
0.02
0.02
0.02
0.03
0.05
0.08
0.09
0.12
0.17
0.17
0.20
0.20
0.20
0.17
0.14
0.09
0.05
0.02
0.01
0.02
0.02
0.02
0.02
0.04
0.02
0.02
0.02
0.04
0.02
0.04
0.04
0.02
0.04
0.02
0.04
0.04
0.02
0.02
0.04
0.02
0.02
0.02
0.02
0.02
0.02
0.02
0.02
0.04
0.08
0.02
0.07
0.04
0.34
0.08
0.06
0.02
0.02
0.02
0.02
0.00
0.00
0.02
0.02
0.02
0.10
0.02
0.39
0.04
0.54
0.63
0.67
0.46
0.29
0.05
0.05
0.02
0.02
0.02
0.02
0.02
0.02
0.02
0.02
0.02
0.02
0.02
0.02
0.02
0.03
0.07
0.08
0.12
0.14
0.17
0.17
0.25
0.20
0.20
0.17
0.17
0.10
0.07
0.03
0.02
0.00
0.02
0.01
0.01
0.02
0.01
0.01
0.00
0.00
0.00
0.01
0.01
0.02
0.00
0.01
0.01
0.02
0.00
0.00
0.01
0.02
0.02
0.01
0.02
0.02
0.02
0.02
0.02
0.02
0.01
0.02
0.00
0.02
0.08
0.06
0.02
0.02
0.08
0.08
0.09
0.05
0.07
0.07
0.07
0.08
0.22
0.02
0.08
0.73
0.44
0.51
0.44
0.50
0.43
0.09
0.09
0.10
0.09
0.09
0.09
0.08
0.07
0.08
0.09
0.08
0.09
0.09
0.09
0.10
0.10
0.12
0.15
0.17
0.25
0.28
0.29
0.29
0.29
0.33
0.28
0.20
0.15
0.10
0.09
0.07
0.03
0.02
0.02
0.02
0.02
0.02
0.02
0.02
0.03
0.05
0.05
0.02
0.03
0.07
0.07
0.05
0.05
0.08
0.08
0.05
0.07
0.09
0.07
0.05
0.03
0.03
0.08
0.08
0.02
0.00
0.02
0.01
0.00
0.08
0.02
0.00
0.02
0.07
0.08
0.05
0.05
0.05
0.05
0.03
0.10
0.07
0.05
0.60
0.27
0.50
0.42
0.51
0.46
0.17
0.09
0.07
0.05
0.03
0.02
0.05
0.02
0.02
0.02
0.02
0.02
0.02
0.02
0.02
0.02
0.02
0.03
0.03
0.09
0.09
0.10
0.12
0.15
0.15
0.12
0.14
0.10
0.07
0.02
0.02
0.00
0.02
0.02
0.02
0.06
0.06
0.04
0.04
0.02
0.04
0.04
0.04
0.06
0.04
0.04
0.06
0.04
0.04
0.02
0.02
0.04
0.02
0.04
0.04
0.04
0.04
0.06
0.06
0.06
0.09
0.16
0.08
0.18
0.27
0.31
0.11
0.11
0.02
0.00
0.02
0.02
0.02
0.01
0.02
0.02
0.02
0.06
0.02
0.83
0.41
0.66
0.43
0.56
0.42
0.02
0.01
0.01
0.01
0.02
0.02
0.04
0.02
0.04
0.02
0.06
0.04
0.04
0.06
0.02
0.02
0.02
0.02
0.00
0.02
0.03
0.07
0.08
0.09
0.09
0.09
0.08
0.02
0.00
0.02
0.07
0.09
0.09
0.11
0.18
0.18
0.18
0.16
0.16
0.11
0.16
0.11
0.09
0.11
0.09
0.11
0.09
0.11
0.09
0.09
0.08
0.09
0.09
0.08
0.07
0.08
0.08
0.07
0.06
0.07
0.11
0.11
0.09
0.11
0.42
0.23
0.08
0.08
0.01
0.00
0.01
0.06
0.02
0.02
0.02
0.02
0.02
0.09
0.02
0.84
0.42
0.63
0.41
0.50
0.37
0.02
0.02
0.02
0.04
0.04
0.06
0.06
0.07
0.07
0.07
0.08
0.07
0.08
0.06
0.07
0.04
0.02
0.01
0.01
0.03
0.03
0.09
0.10
0.10
0.10
0.09
0.09
0.07
0.01
0.02
0.04
0.07
0.08
0.09
0.07
0.09
0.08
0.08
0.08
0.06
0.04
0.06
0.04
0.02
0.02
0.02
0.02
0.02
0.02
0.02
0.02
0.01
0.01
0.02
0.02
0.02
0.02
0.01
0.02
0.02
0.06
0.04
0.06
0.06
0.27
0.08
0.04
0.06
0.02
0.02
0.02
0.02
0.02
0.02
0.02
0.02
0.17
0.01
0.01
0.72
0.44
0.46
0.44
0.44
0.43
0.05
0.08
0.03
0.03
0.02
0.02
0.02
0.02
0.02
0.02
0.01
0.02
0.02
0.02
0.02
0.02
0.03
0.07
0.09
0.09
0.14
0.17
0.17
0.14
0.14
0.14
0.09
0.08
0.02
0.03
0.01
0.02
0.02
0.01
0.02
0.02
0.04
0.02
0.02
0.02
0.01
0.01
0.02
0.01
0.01
0.01
0.01
0.00
0.00
0.00
0.00
0.00
0.01
0.00
0.00
0.00
0.00
0.00
0.01
0.02
0.04
0.01
0.06
0.02
0.31
0.09
0.06
0.02
0.02
0.02
0.02
0.01
0.01
0.02
0.02
0.02
0.09
0.02
0.45
0.16
0.44
0.43
0.50
0.45
0.17
0.02
0.01
0.02
0.00
0.02
0.02
0.00
0.02
0.02
0.02
0.02
0.02
0.02
0.02
0.02
0.02
0.00
0.01
0.02
0.02
0.05
0.08
0.09
0.10
0.09
0.09
0.07
0.02
0.00
0.02
0.04
0.07
0.08
0.09
0.09
0.08
0.09
0.09
0.09
0.08
0.09
0.09
0.09
0.09
0.09
0.09
0.09
0.09
0.08
0.08
0.08
0.08
0.08
0.07
0.08
0.07
0.07
0.08
0.07
0.08
0.18
0.09
0.16
0.09
0.46
0.27
0.09
0.09
0.01
0.02
0.04
0.06
0.07
0.06
0.04
0.02
0.03
0.16
0.39
0.76
0.44
0.65
0.50
0.43
0.12
0.04
0.02
0.04
0.08
0.07
0.09
0.08
0.07
0.07
0.07
0.06
0.06
0.04
0.06
0.02
0.02
0.01
0.01
0.00
0.02
0.07
0.05
0.09
0.09
0.09
0.08
0.05
0.01
0.01
0.02
0.07
0.09
0.09
0.11
0.11
0.11
0.11
0.09
0.16
0.11
0.09
0.09
0.09
0.09
0.09
0.09
0.09
0.09
0.09
0.09
0.09
0.11
0.08
0.09
0.08
0.08
0.07
0.07
0.06
0.06
0.09
0.11
0.06
0.16
0.09
0.34
0.16
0.18
0.02
0.01
0.01
0.02
0.02
0.02
0.01
0.02
0.02
0.02
0.00
0.82
0.42
0.68
0.44
0.59
0.42
0.02
0.03
0.01
0.00
0.00
0.00
0.02
0.01
0.01
0.00
0.01
0.01
0.01
0.02
0.02
0.02
0.03
0.09
0.10
0.14
0.15
0.22
0.22
0.22
0.25
0.22
0.17
0.12
0.09
0.07
0.02
0.02
0.02
0.00
0.00
0.01
0.00
0.00
0.00
0.02
0.01
0.01
0.02
0.02
0.01
0.00
0.02
0.01
0.01
0.02
0.02
0.01
0.02
0.01
0.02
0.02
0.01
0.02
0.01
0.00
0.02
0.00
0.01
0.01
0.16
0.07
0.02
0.01
0.05
0.07
0.07
0.02
0.05
0.08
0.08
0.09
0.25
0.05
0.02
0.07
0.54
0.44
0.62
0.48
0.35
0.12
0.10
0.09
0.07
0.05
0.03
0.08
0.03
0.05
0.07
0.08
0.07
0.08
0.08
0.10
0.10
0.15
0.15
0.17
0.22
0.22
0.28
0.28
0.29
0.28
0.20
0.17
0.15
0.12
0.09
0.07
0.05
0.03
0.03
0.02
0.03
0.02
0.02
0.02
0.03
0.03
0.02
0.05
0.05
0.03
0.05
0.07
0.08
0.07
0.07
0.07
0.08
0.07
0.08
0.07
0.08
0.07
0.07
0.03
0.02
0.02
0.02
0.02
0.07
0.02
0.02
0.02
0.10
0.10
0.09
0.08
0.08
0.09
0.09
0.10
0.28
0.02
0.01
0.60
0.50
0.67
0.63
0.54
0.41
0.12
0.12
0.09
0.09
0.08
0.07
0.07
0.07
0.05
0.08
0.05
0.05
0.05
0.05
0.03
0.07
0.07
0.09
0.08
0.09
0.14
0.17
0.17
0.17
0.20
0.17
0.14
0.09
0.07
0.03
0.02
0.01
0.02
0.01
0.01
0.02
0.01
0.01
0.02
0.01
0.00
0.01
0.01
0.00
0.01
0.01
0.00
0.00
0.00
0.01
0.01
0.00
0.00
0.00
0.02
0.01
0.01
0.01
0.02
0.01
0.01
0.02
0.02
0.02
0.02
0.09
0.02
0.02
0.02
0.08
0.05
0.02
0.02
0.02
0.02
0.02
0.05
0.02
0.02
0.80
0.39
0.67
0.46
0.68
0.43
0.03
0.05
0.03
0.02
0.02
0.02
0.02
0.01
0.02
0.02
0.02
0.02
0.02
0.02
0.03
0.03
0.07
0.08
0.09
0.12
0.17
0.17
0.22
0.27
0.27
0.25
0.20
0.17
0.09
0.08
0.05
0.02
0.01
0.00
0.00
0.00
0.02
0.00
0.01
0.01
0.02
0.00
0.02
0.00
0.01
0.02
0.02
0.02
0.02
0.02
0.02
0.02
0.02
0.02
0.02
0.02
0.02
0.02
0.02
0.02
0.02
0.02
0.06
0.07
0.04
0.06
0.34
0.11
0.07
0.06
0.02
0.02
0.02
0.02
0.02
0.02
0.02
0.02
0.17
0.02
0.02
0.69
0.48
0.61
0.54
0.48
0.33
0.07
0.07
0.08
0.05
0.03
0.02
0.03
0.02
0.02
0.03
0.02
0.07
0.07
0.07
0.08
0.09
0.09
0.09
0.12
0.17
0.17
0.25
0.29
0.28
0.20
0.20
0.17
0.12
0.08
0.05
0.02
0.01
0.01
0.00
0.01
0.00
0.01
0.01
0.01
0.01
0.01
0.01
0.01
0.01
0.02
0.01
0.01
0.02
0.00
0.02
0.02
0.02
0.02
0.02
0.05
0.02
0.02
0.02
0.02
0.01
0.00
0.01
0.00
0.02
0.11
0.02
0.00
0.00
0.08
0.09
0.10
0.05
0.09
0.09
0.09
0.12
0.22
0.09
0.06
0.02
0.62
0.46
0.62
0.51
0.37
0.14
0.09
0.09
0.09
0.08
0.07
0.07
0.07
0.07
0.07
0.07
0.07
0.03
0.07
0.08
0.09
0.09
0.12
0.14
0.15
0.17
0.20
0.25
0.22
0.22
0.17
0.17
0.09
0.08
0.05
0.02
0.02
0.01
0.01
0.01
0.00
0.00
0.02
0.01
0.00
0.01
0.01
0.00
0.01
0.00
0.01
0.01
0.01
0.00
0.01
0.01
0.01
0.00
0.00
0.01
0.01
0.01
0.01
0.01
0.02
0.06
0.04
0.06
0.07
0.31
0.11
0.08
0.07
0.02
0.02
0.01
0.02
0.01
0.01
0.01
0.01
0.09
0.08
0.27
0.68
0.45
0.68
0.56
0.44
0.29
0.00
0.02
0.00
0.02
0.02
0.02
0.02
0.04
0.02
0.02
0.02
0.06
0.02
0.02
0.02
0.02
0.00
0.00
0.01
0.02
0.03
0.08
0.10
0.09
0.10
0.10
0.09
0.03
0.02
0.00
0.02
0.06
0.07
0.08
0.09
0.09
0.09
0.08
0.08
0.08
0.07
0.06
0.02
0.04
0.06
0.06
0.04
0.06
0.06
0.06
0.04
0.06
0.06
0.04
0.06
0.04
0.04
0.06
0.04
0.02
0.07
0.09
0.09
0.09
0.11
0.45
0.27
0.11
0.07
0.01
0.00
0.01
0.02
0.04
0.02
0.02
0.02
0.05
0.09
0.18
0.73
0.44
0.66
0.46
0.44
0.25
0.02
0.01
0.02
0.02
0.07
0.04
0.04
0.08
0.06
0.06
0.07
0.08
0.08
0.07
0.06
0.04
0.02
0.02
0.00
0.01
0.03
0.07
0.10
0.09
0.09
0.07
0.02
0.02
0.01
0.04
0.08
0.09
0.11
0.11
0.18
0.09
0.16
0.11
0.11
0.09
0.09
0.09
0.08
0.09
0.09
0.08
0.11
0.09
0.09
0.11
0.09
0.09
0.08
0.09
0.09
0.08
0.07
0.06
0.08
0.07
0.07
0.11
0.18
0.08
0.16
0.34
0.39
0.11
0.11
0.02
0.01
0.01
0.02
0.04
0.02
0.02
0.02
0.05
0.06
0.02
0.79
0.42
0.46
0.43
0.44
0.41
0.01
0.02
0.02
0.02
0.01
0.00
0.00
0.02
0.02
0.02
0.02
0.02
0.02
0.02
0.02
0.03
0.07
0.08
0.14
0.15
0.17
0.17
0.22
0.25
0.20
0.17
0.17
0.12
0.09
0.07
0.02
0.02
0.00
0.00
0.01
0.00
0.00
0.01
0.00
0.00
0.01
0.01
0.01
0.00
0.01
0.01
0.00
0.02
0.00
0.00
0.01
0.01
0.02
0.02
0.02
0.02
0.01
0.02
0.02
0.02
0.02
0.07
0.02
0.08
0.04
0.34
0.11
0.07
0.04
0.02
0.02
0.02
0.01
0.02
0.03
0.02
0.05
0.14
0.02
0.31
0.02
0.48
0.43
0.53
0.46
0.29
0.08
0.03
0.03
0.02
0.02
0.02
0.01
0.01
0.01
0.00
0.00
0.01
0.00
0.00
0.01
0.02
0.02
0.02
0.03
0.03
0.08
0.09
0.10
0.09
0.09
0.09
0.05
0.02
0.00
0.02
0.07
0.08
0.09
0.16
0.11
0.18
0.18
0.11
0.16
0.16
0.11
0.16
0.09
0.11
0.11
0.11
0.09
0.09
0.09
0.09
0.08
0.09
0.09
0.09
0.07
0.09
0.09
0.09
0.08
0.09
0.11
0.18
0.23
0.11
0.27
0.45
0.42
0.18
0.18
0.02
0.02
0.02
0.06
0.06
0.06
0.02
0.06
0.02
0.16
0.09
0.86
0.42
0.68
0.42
0.50
0.39
0.02
0.02
0.04
0.06
0.07
0.06
0.07
0.07
0.08
0.07
0.07
0.07
0.04
0.06
0.02
0.02
0.02
0.02
0.00
0.02
0.02
0.07
0.10
0.09
0.10
0.09
0.09
0.03
0.02
0.01
0.02
0.04
0.08
0.09
0.09
0.09
0.09
0.09
0.09
0.09
0.09
0.09
0.09
0.09
0.09
0.09
0.08
0.09
0.09
0.09
0.09
0.09
0.09
0.08
0.08
0.08
0.09
0.09
0.09
0.07
0.09
0.16
0.11
0.16
0.09
0.45
0.31
0.16
0.09
0.02
0.01
0.00
0.02
0.02
0.01
0.02
0.02
0.07
0.08
0.09
0.73
0.44
0.66
0.45
0.45
0.28
0.02
0.00
0.02
0.02
0.06
0.04
0.04
0.04
0.06
0.04
0.02
0.02
0.02
0.02
0.01
0.01
0.01
0.02
0.08
0.08
0.10
0.15
0.17
0.20
0.17
0.17
0.14
0.09
0.05
0.02
0.00
0.02
0.02
0.02
0.04
0.02
0.02
0.02
0.02
0.02
0.02
0.02
0.02
0.02
0.00
0.02
0.02
0.00
0.01
0.01
0.00
0.00
0.02
0.01
0.01
0.02
0.02
0.02
0.02
0.02
0.00
0.01
0.01
0.01
0.08
0.02
0.01
0.01
0.09
0.09
0.12
0.08
0.10
0.14
0.12
0.12
0.29
0.09
0.09
0.50
0.58
0.59
0.56
0.51
0.45
0.17
0.17
0.15
0.15
0.15
0.15
0.15
0.14
0.14
0.15
0.15
0.15
0.15
0.14
0.15
0.17
0.17
0.22
0.27
0.29
0.29
0.33
0.36
0.36
0.35
0.33
0.28
0.25
0.20
0.15
0.15
0.12
0.12
0.12
0.12
0.09
0.09
0.14
0.09
0.10
0.09
0.12
0.10
0.12
0.12
0.12
0.12
0.10
0.10
0.12
0.10
0.10
0.10
0.10
0.10
0.12
0.10
0.09
0.10
0.09
0.05
0.08
0.08
0.09
0.01
0.02
0.08
0.09
0.17
0.20
0.17
0.15
0.17
0.17
0.17
0.17
0.35
0.09
0.07
0.55
0.51
0.71
0.63
0.59
0.44
0.17
0.17
0.17
0.17
0.12
0.12
0.12
0.12
0.09
0.09
0.09
0.09
0.09
0.09
0.09
0.09
0.09
0.10
0.14
0.15
0.20
0.22
0.27
0.29
0.29
0.28
0.22
0.17
0.15
0.09
0.05
0.03
0.03
0.02
0.01
0.01
0.01
0.01
0.01
0.01
0.01
0.01
0.01
0.01
0.02
0.01
0.01
0.01
0.01
0.02
0.02
0.02
0.02
0.02
0.02
0.02
0.02
0.05
0.03
0.02
0.00
0.02
0.01
0.01
0.09
0.01
0.00
0.02
0.09
0.09
0.08
0.05
0.05
0.08
0.07
0.07
0.15
0.01
0.39
0.03
0.62
0.65
0.74
0.48
0.27
0.09
0.10
0.08
0.05
0.05
0.07
0.03
0.05
0.03
0.05
0.05
0.05
0.07
0.07
0.07
0.09
0.09
0.12
0.15
0.17
0.20
0.25
0.27
0.28
0.25
0.22
0.17
0.12
0.07
0.03
0.02
0.01
0.00
0.02
0.01
0.02
0.02
0.02
0.00
0.02
0.02
0.01
0.01
0.02
0.02
0.02
0.01
0.01
0.02
0.01
0.02
0.02
0.02
0.02
0.02
0.01
0.02
0.02
0.02
0.04
0.09
0.02
0.08
0.18
0.18
0.08
0.08
0.02
0.02
0.02
0.00
0.01
0.00
0.02
0.02
0.08
0.02
0.03
0.81
0.42
0.59
0.43
0.51
0.43
0.07
0.08
0.03
0.05
0.05
0.02
0.03
0.02
0.03
0.07
0.07
0.03
0.05
0.08
0.08
0.09
0.09
0.10
0.14
0.17
0.20
0.27
0.27
0.29
0.29
0.22
0.17
0.15
0.09
0.03
0.02
0.01
0.00
0.01
0.02
0.02
0.02
0.01
0.02
0.00
0.01
0.00
0.00
0.01
0.00
0.01
0.00
0.01
0.01
0.02
0.02
0.00
0.01
0.02
0.02
0.02
0.02
0.02
0.02
0.01
0.01
0.01
0.01
0.02
0.11
0.08
0.02
0.02
0.03
0.07
0.08
0.03
0.05
0.07
0.09
0.08
0.20
0.02
0.02
0.61
0.50
0.58
0.51
0.48
0.43
0.09
0.10
0.09
0.07
0.05
0.03
0.05
0.03
0.03
0.02
0.03
0.02
0.02
0.03
0.05
0.03
0.05
0.09
0.09
0.10
0.14
0.15
0.17
0.17
0.15
0.14
0.10
0.08
0.02
0.02
0.01
0.02
0.04
0.06
0.07
0.07
0.07
0.08
0.08
0.09
0.06
0.08
0.07
0.07
0.08
0.07
0.07
0.06
0.08
0.06
0.07
0.02
0.07
0.06
0.08
0.06
0.08
0.09
0.07
0.09
0.18
0.09
0.27
0.11
0.50
0.23
0.16
0.06
0.02
0.02
0.02
0.07
0.04
0.02
0.04
0.02
0.02
0.09
0.80
0.17
0.51
0.44
0.61
0.42
0.01
0.02
0.02
0.04
0.06
0.07
0.07
0.08
0.07
0.07
0.07
0.07
0.06
0.06
0.06
0.02
0.02
0.00
0.01
0.01
0.02
0.07
0.08
0.09
0.09
0.09
0.05
0.02
0.01
0.02
0.07
0.09
0.16
0.23
0.18
0.18
0.18
0.23
0.18
0.23
0.23
0.23
0.16
0.23
0.23
0.27
0.16
0.23
0.23
0.18
0.18
0.23
0.23
0.16
0.18
0.11
0.16
0.11
0.23
0.27
0.39
0.27
0.34
0.31
0.59
0.42
0.27
0.16
0.02
0.04
0.04
0.08
0.07
0.08
0.06
0.06
0.01
0.16
0.69
0.02
0.46
0.44
0.59
0.42
0.02
0.06
0.06
0.06
0.09
0.08
0.08
0.09
0.09
0.11
0.11
0.09
0.09
0.09
0.08
0.06
0.06
0.04
0.02
0.00
0.02
0.05
0.09
0.08
0.09
0.08
0.08
0.02
0.00
0.02
0.06
0.09
0.09
0.09
0.16
0.11
0.09
0.09
0.09
0.09
0.09
0.09
0.09
0.08
0.07
0.09
0.09
0.07
0.06
0.07
0.06
0.07
0.06
0.07
0.07
0.06
0.02
0.06
0.07
0.06
0.08
0.23
0.08
0.16
0.11
0.31
0.16
0.11
0.02
0.00
0.00
0.02
0.02
0.02
0.01
0.01
0.03
0.02
0.01
0.81
0.41
0.50
0.39
0.46
0.42
0.02
0.03
0.00
0.01
0.00
0.02
0.02
0.01
0.02
0.00
0.00
0.01
0.01
0.02
0.02
0.02
0.02
0.05
0.08
0.10
0.15
0.17
0.17
0.17
0.17
0.17
0.09
0.03
0.02
0.01
0.02
0.06
0.06
0.06
0.06
0.06
0.07
0.06
0.04
0.07
0.04
0.02
0.04
0.04
0.02
0.02
0.02
0.02
0.02
0.02
0.02
0.02
0.02
0.02
0.01
0.00
0.00
0.01
0.02
0.01
0.02
0.06
0.01
0.07
0.04
0.11
0.06
0.02
0.00
0.05
0.05
0.02
0.02
0.02
0.07
0.05
0.09
0.02
0.02
0.70
0.39
0.56
0.43
0.51
0.45
0.08
0.07
0.03
0.02
0.02
0.02
0.02
0.02
0.00
0.02
0.02
0.00
0.01
0.02
0.02
0.02
0.02
0.05
0.07
0.09
0.09
0.14
0.15
0.17
0.17
0.17
0.14
0.09
0.05
0.02
0.02
0.00
0.02
0.02
0.02
0.02
0.02
0.02
0.02
0.02
0.02
0.02
0.02
0.02
0.02
0.02
0.01
0.01
0.01
0.01
0.00
0.00
0.01
0.02
0.02
0.01
0.02
0.02
0.02
0.02
0.06
0.09
0.07
0.09
0.07
0.45
0.16
0.09
0.06
0.00
0.02
0.00
0.02
0.02
0.02
0.00
0.01
0.09
0.07
0.60
0.02
0.56
0.56
0.70
0.44
0.14
0.02
0.02
0.01
0.02
