0.01
0.00
0.00
0.00
0.00
0.00
0.01
0.01
0.01
0.01
0.01
0.00
0.00
0.03
0.00
0.00
0.00
0.00
0.00
0.00
0.01
0.01
0.01
0.01
0.01
0.01
0.01
0.01
0.00
0.01
0.00
0.00
0.00
0.01
0.00
0.00
0.00
0.00
0.01
0.01
0.04
0.00
0.14
0.09
0.20
0.16
0.04
0.00
0.09
0.09
0.09
0.05
0.06
0.09
0.09
0.09
0.12
0.27
0.64
0.66
0.78
0.82
0.66
0.64
0.54
0.05
0.05
0.01
0.00
0.00
0.00
0.04
0.06
0.09
0.14
0.16
0.17
0.17
0.20
0.23
0.27
0.34
0.40
0.45
0.47
0.50
0.50
0.49
0.48
0.47
0.41
0.31
0.20
0.14
0.04
0.03
0.00
0.00
0.00
0.04
0.03
0.07
0.04
0.06
0.03
0.03
0.03
0.04
0.03
0.06
0.04
0.06
0.04
0.06
0.06
0.07
0.04
0.03
0.04
0.03
0.03
0.04
0.03
0.00
0.01
0.01
0.00
0.01
0.01
0.01
0.01
0.01
0.01
0.00
0.01
0.00
0.03
0.09
0.04
0.15
0.14
0.21
0.14
0.03
0.00
0.03
0.05
0.03
0.01
0.01
0.01
0.01
0.05
0.01
0.45
0.74
0.48
0.81
0.79
0.64
0.57
0.42
0.06
0.01
0.01
0.01
0.00
0.00
0.03
0.06
0.06
0.09
0.12
0.14
0.15
0.17
0.17
0.19
0.21
0.23
0.29
0.29
0.38
0.31
0.31
0.29
0.25
0.23
0.17
0.12
0.00
0.01
0.00
0.01
0.01
0.00
0.01
0.01
0.00
0.00
0.00
0.01
0.01
0.01
0.01
0.01
0.03
0.00
0.00
0.00
0.00
0.00
0.00
0.00
0.00
0.01
0.01
0.01
0.01
0.00
0.00
0.00
0.01
0.01
0.01
0.03
0.05
0.03
0.06
0.05
0.06
0.06
0.03
0.00
0.01
0.00
0.03
0.06
0.15
0.03
0.00
0.09
0.24
0.15
0.15
0.12
0.12
0.12
0.12
0.12
0.01
0.44
0.78
0.62
0.70
0.64
0.64
0.57
0.24
0.12
0.03
0.03
0.01
0.01
0.01
0.01
0.00
0.01
0.01
0.00
0.01
0.00
0.04
0.03
0.06
0.07
0.06
0.06
0.09
0.09
0.07
0.07
0.03
0.00
0.03
0.01
0.00
0.00
0.01
0.03
0.01
0.01
0.00
0.01
0.00
0.01
0.01
0.01
0.01
0.01
0.01
0.00
0.01
0.00
0.01
0.01
0.00
0.01
0.00
0.01
0.00
0.01
0.00
0.01
0.01
0.01
0.01
0.01
0.03
0.05
0.09
0.06
0.12
0.12
0.15
0.12
0.12
0.06
0.05
0.12
0.01
0.00
0.03
0.00
0.03
0.15
0.36
0.32
0.34
0.36
0.29
0.34
0.32
0.34
0.00
0.20
0.69
0.57
0.67
0.63
0.63
0.60
0.42
0.15
0.12
0.06
0.03
0.00
0.01
0.01
0.00
0.01
0.01
0.03
0.03
0.00
0.06
0.04
0.07
0.12
0.14
0.16
0.16
0.16
0.17
0.16
0.15
0.15
0.06
0.00
0.00
0.01
0.01
0.03
0.05
0.03
0.01
0.01
0.00
0.01
0.00
0.01
0.01
0.01
0.01
0.01
0.01
0.01
0.01
0.01
0.01
0.00
0.00
0.00
0.00
0.00
0.00
0.01
0.00
0.01
0.00
0.01
0.01
0.01
0.01
0.03
0.01
0.01
0.01
0.01
0.01
0.00
0.01
0.04
0.03
0.17
0.07
0.01
0.00
0.12
0.15
0.12
0.12
0.15
0.19
0.19
0.15
0.15
0.17
0.62
0.74
0.76
0.82
0.67
0.63
0.58
0.09
0.05
0.01
0.01
0.01
0.03
0.04
0.07
0.09
0.15
0.15
0.17
0.19
0.23
0.25
0.31
0.38
0.41
0.44
0.47
0.48
0.49
0.49
0.48
0.45
0.41
0.29
0.20
0.12
0.04
0.00
0.01
0.01
0.00
0.00
0.03
0.03
0.03
0.03
0.00
0.00
0.00
0.00
0.00
0.00
0.00
0.00
0.00
0.00
0.00
0.00
0.03
0.00
0.00
0.00
0.00
0.00
0.00
0.01
0.01
0.01
0.01
0.01
0.01
0.00
0.00
0.01
0.00
0.01
0.00
0.01
0.00
0.01
0.03
0.00
0.12
0.15
0.17
0.07
0.03
0.01
0.06
0.09
0.03
0.05
0.01
0.05
0.01
0.05
0.00
0.51
0.78
0.64
0.82
0.75
0.64
0.57
0.09
0.00
0.01
0.00
0.04
0.07
0.06
0.09
0.14
0.15
0.15
0.17
0.17
0.17
0.19
0.21
0.23
0.27
0.27
0.29
0.34
0.34
0.34
0.31
0.29
0.23
0.19
0.16
0.07
0.01
0.00
0.00
0.00
0.00
0.00
0.01
0.01
0.00
0.00
0.03
0.00
0.00
0.01
0.00
0.00
0.00
0.00
0.00
0.00
0.00
0.03
0.03
0.03
0.00
0.00
0.00
0.00
0.00
0.01
0.01
0.01
0.01
0.01
0.01
0.01
0.00
0.00
0.00
0.01
0.01
0.00
0.01
0.00
0.04
0.04
0.09
0.16
0.17
0.06
0.00
0.01
0.06
0.09
0.05
0.05
0.06
0.06
0.06
0.09
0.01
0.45
0.76
0.58
0.75
0.68
0.63
0.58
0.19
0.09
0.01
0.01
0.01
0.01
0.01
0.00
0.03
0.06
0.07
0.12
0.06
0.12
0.12
0.16
0.16
0.16
0.16
0.17
0.19
0.17
0.17
0.17
0.14
0.15
0.09
0.06
0.01
0.00
0.01
0.01
0.00
0.00
0.00
0.00
0.00
0.00
0.01
0.00
0.00
0.00
0.00
0.00
0.00
0.01
0.00
0.01
0.00
0.01
0.00
0.01
0.01
0.01
0.00
0.00
0.00
0.01
0.00
0.00
0.01
0.00
0.00
0.00
0.01
0.00
0.00
0.00
0.00
0.00
0.00
0.00
0.04
0.00
0.04
0.06
0.16
0.17
0.07
0.00
0.01
0.12
0.06
0.03
0.06
0.09
0.09
0.09
0.15
0.01
0.34
0.72
0.57
0.68
0.64
0.63
0.59
0.42
0.12
0.06
0.05
0.01
0.00
0.00
0.01
0.00
0.00
0.03
0.03
0.03
0.07
0.07
0.09
0.12
0.12
0.15
0.17
0.17
0.19
0.20
0.17
0.17
0.17
0.16
0.09
0.04
0.01
0.00
0.00
0.01
0.00
0.00
0.01
0.00
0.00
0.00
0.01
0.01
0.00
0.00
0.00
0.01
0.00
0.01
0.01
0.00
0.01
0.00
0.01
0.01
0.01
0.01
0.01
0.01
0.01
0.01
0.01
0.00
0.00
0.00
0.00
0.01
0.01
0.01
0.00
0.01
0.00
0.01
0.01
0.06
0.03
0.14
0.09
0.19
0.15
0.04
0.00
0.06
0.09
0.09
0.01
0.05
0.06
0.03
0.06
0.03
0.29
0.66
0.76
0.70
0.82
0.66
0.64
0.55
0.00
0.00
0.01
0.03
0.06
0.07
0.09
0.15
0.17
0.17
0.17
0.21
0.23
0.27
0.31
0.39
0.40
0.44
0.47
0.48
0.50
0.51
0.54
0.50
0.47
0.44
0.38
0.25
0.17
0.07
0.00
0.00
0.00
0.00
0.00
0.03
0.04
0.00
0.04
0.04
0.06
0.04
0.04
0.04
0.06
0.06
0.07
0.07
0.07
0.06
0.07
0.07
0.06
0.09
0.04
0.03
0.04
0.00
0.01
0.01
0.01
0.01
0.00
0.00
0.00
0.00
0.00
0.00
0.00
0.00
0.00
0.01
0.01
0.01
0.01
0.04
0.00
0.09
0.04
0.17
0.07
0.00
0.01
0.09
0.12
0.09
0.05
0.03
0.05
0.03
0.05
0.05
0.40
0.66
0.48
0.77
0.82
0.63
0.60
0.45
0.00
0.01
0.00
0.03
0.03
0.04
0.07
0.14
0.14
0.16
0.16
0.17
0.17
0.19
0.19
0.23
0.23
0.29
0.31
0.39
0.40
0.38
0.39
0.34
0.31
0.27
0.19
0.15
0.07
0.00
0.01
0.00
0.01
0.01
0.01
0.00
0.01
0.00
0.00
0.00
0.01
0.01
0.01
0.01
0.00
0.00
0.00
0.00
0.00
0.00
0.00
0.00
0.01
0.01
0.00
0.01
0.01
0.01
0.01
0.01
0.01
0.03
0.03
0.03
0.06
0.06
0.05
0.09
0.06
0.06
0.05
0.05
0.03
0.05
0.03
0.03
0.01
0.01
0.00
0.03
0.06
0.14
0.00
0.00
0.06
0.15
0.19
0.19
0.19
0.15
0.24
0.19
0.29
0.19
0.23
0.66
0.01
0.76
0.78
0.64
0.60
0.50
0.19
0.19
0.12
0.05
0.05
0.01
0.01
0.01
0.01
0.01
0.01
0.00
0.00
0.00
0.03
0.03
0.04
0.07
0.06
0.06
0.07
0.09
0.06
0.04
0.03
0.00
0.01
0.01
0.03
0.09
0.12
0.15
0.09
0.09
0.06
0.05
0.03
0.05
0.05
0.03
0.06
0.03
0.03
0.06
0.01
0.01
0.01
0.01
0.01
0.01
0.01
0.00
0.01
0.01
0.01
0.03
0.01
0.01
0.06
0.09
0.06
0.09
0.09
0.05
0.06
0.09
0.06
0.09
0.09
0.06
0.06
0.06
0.09
0.06
0.06
0.00
0.01
0.01
0.00
0.12
0.04
0.01
0.01
0.19
0.29
0.24
0.19
0.19
0.24
0.24
0.32
0.40
0.07
0.60
0.68
0.63
0.67
0.64
0.62
0.57
0.15
0.19
0.12
0.09
0.06
0.03
0.01
0.00
0.01
0.00
0.00
0.01
0.00
0.03
0.06
0.03
0.03
0.06
0.09
0.12
0.12
0.14
0.15
0.14
0.14
0.09
0.06
0.00
0.00
0.01
0.03
0.05
0.05
0.03
0.05
0.03
0.01
0.01
0.01
0.00
0.00
0.00
0.00
0.01
0.00
0.00
0.00
0.00
0.00
0.00
0.00
0.00
0.01
0.00
0.00
0.00
0.01
0.00
0.01
0.01
0.00
0.01
0.00
0.01
0.00
0.01
0.00
0.00
0.00
0.00
0.01
0.01
0.00
0.01
0.03
0.01
0.07
0.03
0.17
0.04
0.01
0.01
0.24
0.19
0.19
0.12
0.12
0.12
0.12
0.12
0.01
0.44
0.74
0.56
0.78
0.77
0.63
0.57
0.19
0.00
0.01
0.00
0.04
0.07
0.09
0.14
0.16
0.15
0.17
0.19
0.19
0.23
0.25
0.29
0.34
0.39
0.41
0.46
0.46
0.48
0.48
0.48
0.47
0.41
0.38
0.23
0.17
0.09
0.03
0.01
0.01
0.01
0.01
0.00
0.00
0.03
0.00
0.00
0.00
0.00
0.00
0.01
0.01
0.00
0.01
0.00
0.00
0.03
0.00
0.00
0.03
0.00
0.00
0.00
0.00
0.01
0.01
0.01
0.00
0.01
0.01
0.00
0.00
0.00
0.00
0.00
0.00
0.00
0.01
0.00
0.01
0.00
0.00
0.00
0.01
0.04
0.03
0.17
0.12
0.00
0.01
0.12
0.15
0.12
0.09
0.06
0.12
0.06
0.09
0.06
0.19
0.56
0.78
0.68
0.82
0.65
0.64
0.56
0.09
0.05
0.01
0.00
0.01
0.03
0.03
0.06
0.06
0.09
0.14
0.14
0.17
0.17
0.20
0.20
0.23
0.27
0.31
0.38
0.40
0.40
0.39
0.38
0.31
0.27
0.20
0.17
0.07
0.00
0.00
0.00
0.00
0.00
0.01
0.01
0.01
0.01
0.00
0.01
0.00
0.01
0.00
0.01
0.00
0.00
0.03
0.00
0.03
0.03
0.04
0.06
0.04
0.06
0.03
0.03
0.00
0.00
0.00
0.00
0.01
0.01
0.00
0.01
0.00
0.00
0.00
0.00
0.01
0.01
0.01
0.03
0.03
0.01
0.00
0.00
0.00
0.03
0.06
0.12
0.00
0.01
0.15
0.29
0.29
0.19
0.19
0.24
0.24
0.24
0.29
0.01
0.38
0.76
0.61
0.75
0.66
0.62
0.58
0.40
0.19
0.15
0.06
0.06
0.03
0.03
0.01
0.00
0.00
0.00
0.00
0.01
0.00
0.00
0.03
0.06
0.04
0.06
0.12
0.09
0.12
0.07
0.06
0.06
0.04
0.03
0.01
0.01
0.01
0.12
0.09
0.12
0.06
0.05
0.06
0.03
0.03
0.01
0.03
0.03
0.05
0.05
0.05
0.01
0.05
0.03
0.01
0.01
0.01
0.01
0.01
0.00
0.01
0.05
0.01
0.01
0.01
0.01
0.01
0.03
0.03
0.01
0.06
0.05
0.05
0.05
0.09
0.06
0.09
0.06
0.06
0.03
0.00
0.03
0.00
0.01
0.14
0.04
0.00
0.01
0.19
0.24
0.24
0.15
0.24
0.24
0.29
0.29
0.29
0.16
0.66
0.03
0.67
0.66
0.63
0.61
0.50
0.12
0.12
0.06
0.05
0.01
0.01
0.01
0.01
0.01
0.01
0.00
0.00
0.07
0.06
0.09
0.14
0.16
0.17
0.17
0.20
0.21
0.21
0.19
0.17
0.17
0.15
0.09
0.00
0.00
0.03
0.05
0.05
0.06
0.06
0.06
0.09
0.05
0.05
0.01
0.03
0.03
0.03
0.03
0.01
0.01
0.01
0.01
0.01
0.00
0.01
0.00
0.01
0.01
0.01
0.01
0.01
0.01
0.01
0.01
0.01
0.01
0.01
0.01
0.01
0.01
0.03
0.01
0.03
0.01
0.01
0.00
0.00
0.00
0.09
0.07
0.17
0.14
0.03
0.03
0.06
0.09
0.06
0.05
0.06
0.09
0.05
0.09
0.06
0.29
0.67
0.59
0.77
0.82
0.64
0.62
0.54
0.01
0.01
0.01
0.01
0.03
0.03
0.07
0.09
0.12
0.15
0.16
0.17
0.17
0.20
0.27
0.27
0.34
0.40
0.40
0.45
0.48
0.50
0.50
0.48
0.46
0.41
0.34
0.20
0.15
0.04
0.00
0.01
0.01
0.01
0.00
0.00
0.00
0.03
0.00
0.00
0.03
0.00
0.00
0.03
0.03
0.03
0.06
0.06
0.04
0.06
0.04
0.06
0.06
0.04
0.03
0.06
0.04
0.03
0.00
0.00
0.01
0.00
0.01
0.01
0.01
0.00
0.00
0.00
0.00
0.00
0.00
0.00
0.03
0.01
0.09
0.06
0.17
0.07
0.01
0.00
0.12
0.19
0.12
0.12
0.12
0.12
0.12
0.12
0.12
0.29
0.64
0.21
0.81
0.82
0.64
0.60
0.48
0.05
0.05
0.00
0.01
0.01
0.01
0.00
0.04
0.06
0.09
0.09
0.14
0.15
0.17
0.19
0.21
0.23
0.27
0.31
0.38
0.40
0.40
0.39
0.39
0.31
0.27
0.19
0.15
0.04
0.00
0.00
0.00
0.00
0.01
0.01
0.01
0.01
0.01
0.01
0.00
0.01
0.01
0.01
0.00
0.00
0.01
0.00
0.00
0.01
0.00
0.00
0.03
0.01
0.00
0.01
0.00
0.00
0.00
0.01
0.00
0.00
0.01
0.01
0.01
0.01
0.00
0.00
0.01
0.00
0.00
0.00
0.00
0.00
0.00
0.00
0.01
0.03
0.01
0.07
0.06
0.17
0.09
0.01
0.00
0.15
0.12
0.12
0.06
0.05
0.06
0.12
0.09
0.05
0.38
0.72
0.47
0.75
0.71
0.63
0.58
0.40
0.09
0.06
0.01
0.01
0.00
0.01
0.00
0.01
0.01
0.00
0.00
0.00
0.04
0.04
0.07
0.09
0.14
0.12
0.15
0.14
0.16
0.15
0.15
0.09
0.07
0.06
0.00
0.01
0.01
0.01
0.06
0.05
0.06
0.01
0.00
0.01
0.01
0.00
0.00
0.01
0.00
0.00
0.01
0.01
0.01
0.00
0.00
0.00
0.00
0.00
0.00
0.00
0.00
0.00
0.01
0.00
0.00
0.00
0.00
0.01
0.03
0.03
0.05
0.05
0.05
0.05
0.05
0.05
0.06
0.05
0.01
0.01
0.00
0.01
0.07
0.07
0.01
0.00
0.12
0.24
0.12
0.12
0.12
0.15
0.24
0.15
0.29
0.00
0.34
0.74
0.60
0.67
0.64
0.64
0.58
0.32
0.15
0.09
0.05
0.01
0.00
0.01
0.00
0.01
0.00
0.00
0.06
0.06
0.09
0.09
0.14
0.15
0.17
0.17
0.17
0.17
0.19
0.19
0.19
0.17
0.17
0.14
0.03
0.00
0.00
0.01
0.05
0.05
0.05
0.05
0.03
0.01
0.03
0.01
0.05
0.01
0.01
0.01
0.01
0.01
0.01
0.01
0.01
0.00
0.00
0.00
0.00
0.00
0.00
0.00
0.00
0.00
0.01
0.00
0.01
0.01
0.01
0.00
0.00
0.01
0.00
0.00
0.00
0.00
0.00
0.00
0.00
0.00
0.01
0.06
0.00
0.09
0.07
0.19
0.14
0.04
0.00
0.06
0.12
0.03
0.06
0.05
0.03
0.05
0.03
0.01
0.31
0.66
0.76
0.69
0.82
0.64
0.64
0.56
0.00
0.01
0.01
0.00
0.06
0.07
0.09
0.09
0.12
0.16
0.17
0.17
0.17
0.21
0.25
0.29
0.38
0.40
0.45
0.47
0.49
0.51
0.54
0.51
0.49
0.45
0.41
0.27
0.19
0.14
0.06
0.00
0.04
0.03
0.06
0.06
0.06
0.06
0.09
0.07
0.07
0.06
0.06
0.06
0.04
0.06
0.07
0.06
0.06
0.07
0.07
0.06
0.09
0.06
0.06
0.04
0.04
0.04
0.04
0.00
0.00
0.00
0.00
0.01
0.00
0.01
0.01
0.01
0.00
0.01
0.00
0.01
0.00
0.00
0.00
0.04
0.00
0.12
0.15
0.17
0.04
0.00
0.01
0.12
0.12
0.12
0.06
0.09
0.06
0.06
0.09
0.00
0.45
0.76
0.62
0.81
0.75
0.64
0.58
0.29
0.06
0.03
0.01
0.01
0.01
0.01
0.00
0.03
0.04
0.07
0.07
0.14
0.15
0.16
0.17
0.17
0.21
0.21
0.27
0.27
0.31
0.34
0.29
0.25
0.23
0.17
0.15
0.07
0.00
0.00
0.01
0.01
0.01
0.00
0.00
0.01
0.01
0.01
0.00
0.00
0.00
0.00
0.00
0.00
0.01
0.01
0.01
0.00
0.00
0.00
0.00
0.00
0.00
0.00
0.00
0.00
0.00
0.00
0.01
0.01
0.01
0.01
0.03
0.01
0.05
0.01
0.01
0.01
0.03
0.03
0.03
0.05
0.00
0.00
0.00
0.04
0.01
0.15
0.06
0.00
0.01
0.24
0.24
0.29
0.12
0.15
0.15
0.15
0.19
0.29
0.21
0.62
0.47
0.69
0.77
0.63
0.60
0.53
0.09
0.12
0.06
0.05
0.01
0.00
0.00
0.01
0.01
0.00
0.03
0.04
0.00
0.03
0.03
0.06
0.06
0.06
0.04
0.12
0.07
0.09
0.04
0.07
0.00
0.00
0.01
0.00
0.05
0.05
0.06
0.06
0.05
0.03
0.01
0.01
0.00
0.00
0.00
0.01
0.01
0.00
0.00
0.01
0.00
0.00
0.00
0.01
0.00
0.01
0.00
0.01
0.01
0.00
0.00
0.01
0.01
0.03
0.01
0.01
0.01
0.01
0.03
0.05
0.05
0.05
0.05
0.03
0.03
0.06
0.01
0.00
0.01
0.03
0.00
0.14
0.07
0.00
0.01
0.12
0.19
0.12
0.19
0.12
0.15
0.15
0.24
0.29
0.07
0.45
0.75
0.62
0.66
0.63
0.64
0.57
0.24
0.29
0.09
0.06
0.03
0.01
0.00
0.01
0.00
0.01
0.01
0.00
0.00
0.03
0.04
0.03
0.04
0.09
0.14
0.15
0.16
0.17
0.17
0.16
0.17
0.16
0.15
0.07
0.04
0.00
0.01
0.00
0.00
0.00
0.00
0.01
0.01
0.01
0.01
0.00
0.00
0.01
0.00
0.00
0.00
0.01
0.01
0.01
0.00
0.01
0.01
0.01
0.01
0.00
0.01
0.01
0.01
0.01
0.00
0.00
0.00
0.01
0.00
0.01
0.00
0.00
0.00
0.00
0.01
0.01
0.06
0.03
0.07
0.12
0.17
0.17
0.07
0.03
0.00
0.05
0.05
0.01
0.01
0.05
0.05
0.03
0.06
0.09
0.50
0.78
0.64
0.78
0.75
0.63
0.58
0.39
0.06
0.06
0.03
0.01
0.00
0.00
0.01
0.00
0.00
0.00
0.03
0.04
0.04
0.09
0.15
0.15
0.17
0.17
0.20
0.25
0.31
0.29
0.29
0.25
0.21
0.17
0.16
0.07
0.01
0.01
0.03
0.03
0.03
0.01
0.01
0.00
0.00
0.00
0.00
0.00
0.00
0.00
0.00
0.01
0.01
0.01
0.00
0.01
0.01
0.01
0.00
0.01
0.00
0.00
0.00
0.00
0.01
0.01
0.01
0.01
0.01
0.01
0.01
0.01
0.01
0.00
0.00
0.01
0.01
0.01
0.01
0.04
0.03
0.04
0.09
0.17
0.16
0.07
0.00
0.01
0.06
0.05
0.03
0.01
0.01
0.01
0.00
0.00
0.12
0.57
0.81
0.64
0.77
0.67
0.63
0.56
0.05
0.01
0.00
0.03
0.07
0.07
0.09
0.09
0.12
0.16
0.16
0.16
0.17
0.19
0.20
0.25
0.27
0.29
0.31
0.38
0.40
0.41
0.41
0.40
0.38
0.29
0.27
0.20
0.16
0.07
0.04
0.00
0.03
0.00
0.04
0.06
0.07
0.06
0.04
0.06
0.04
0.04
0.03
0.03
0.04
0.03
0.03
0.04
0.04
0.00
0.03
0.03
0.04
0.03
0.03
0.00
0.03
0.03
0.03
0.00
0.00
0.00
0.01
0.00
0.03
0.00
0.00
0.00
0.00
0.00
0.00
0.00
0.01
0.00
0.00
0.03
0.09
0.03
0.15
0.14
0.21
0.15
0.03
0.00
0.06
0.09
0.05
0.03
0.01
0.03
0.03
0.05
0.06
0.38
0.68
0.17
0.69
0.73
0.63
0.58
0.45
0.03
0.06
0.05
0.00
0.00
0.00
0.00
0.03
0.00
0.03
0.06
0.07
0.09
0.12
0.09
0.09
0.15
0.14
0.16
0.15
0.17
0.14
0.16
0.15
0.15
0.14
0.09
0.00
0.01
0.00
0.01
0.00
0.00
0.01
0.01
0.01
0.00
0.00
0.00
0.01
0.00
0.00
0.01
0.00
0.00
0.01
0.01
0.00
0.01
0.01
0.01
0.01
0.01
0.00
0.00
0.00
0.00
0.00
0.01
0.01
0.01
0.01
0.01
0.03
0.05
0.03
0.05
0.09
0.05
0.06
0.00
0.00
0.00
0.01
0.15
0.07
0.00
0.01
0.12
0.15
0.15
0.12
0.15
0.12
0.12
0.09
0.24
0.09
0.41
0.76
0.59
0.66
0.63
0.65
0.58
0.29
0.12
0.03
0.00
0.01
0.00
0.00
0.03
0.04
0.06
0.06
0.09
0.07
0.14
0.16
0.16
0.17
0.17
0.17
0.20
0.21
0.23
0.23
0.21
0.20
0.19
0.17
0.14
0.07
0.00
0.01
0.01
0.01
0.01
0.00
0.00
0.00
0.00
0.00
0.00
0.03
0.03
0.04
0.04
0.04
0.04
0.04
0.03
0.03
0.04
0.03
0.00
0.03
0.00
0.00
0.00
0.03
0.03
0.00
0.00
0.00
0.01
0.00
0.00
0.00
0.00
0.00
0.00
0.00
0.03
0.07
0.09
0.12
0.14
0.19
0.19
0.09
0.06
0.00
0.06
0.01
0.01
0.01
0.01
0.03
0.03
0.01
0.17
0.61
0.81
0.62
0.82
0.68
0.63
0.58
0.05
0.01
0.01
0.00
0.01
0.00
0.03
0.06
0.04
0.09
0.12
0.15
0.16
0.17
0.19
0.21
0.23
0.31
0.34
0.40
0.41
0.46
0.46
0.46
0.41
0.39
0.27
0.19
0.14
0.04
0.01
0.01
0.00
0.01
0.00
0.00
0.03
0.00
0.00
0.00
0.00
0.03
0.00
0.00
0.00
0.03
0.00
0.03
0.03
0.04
0.03
0.04
0.06
0.04
0.03
0.03
0.00
0.00
0.00
0.00
0.00
0.01
0.01
0.01
0.00
0.01
0.01
0.01
0.01
0.00
0.01
0.06
0.03
0.07
0.06
0.17
0.15
0.04
0.00
0.05
0.12
0.09
0.03
0.06
0.05
0.05
0.06
0.12
0.09
0.51
0.80
0.63
0.81
0.68
0.62
0.57
0.09
0.05
0.01
0.01
0.00
0.00
0.00
0.04
0.04
0.06
0.07
0.14
0.15
0.17
0.17
0.17
0.20
0.23
0.25
0.29
0.31
0.31
0.29
0.29
0.23
0.20
0.17
0.12
0.04
0.01
0.00
0.01
0.01
0.00
0.01
0.01
0.01
0.01
0.00
0.01
0.00
0.01
0.01
0.01
0.01
0.01
0.01
0.01
0.00
0.00
0.00
0.00
0.00
0.00
0.00
0.00
0.00
0.01
0.01
0.01
0.00
0.00
0.00
0.00
0.01
0.01
0.01
0.01
0.01
0.01
0.03
0.03
0.03
0.03
0.05
0.01
0.01
0.00
0.01
0.01
0.12
0.00
0.01
0.01
0.32
0.34
0.32
0.19
0.19
0.19
0.19
0.19
0.32
0.16
0.50
0.72
0.73
0.81
0.64
0.62
0.55
0.09
0.15
0.06
0.06
0.01
0.01
0.00
0.01
0.00
0.01
0.01
0.00
0.00
0.00
0.04
0.06
0.06
0.07
0.09
0.09
0.12
0.07
0.04
0.03
0.03
0.00
0.01
0.01
0.06
0.12
0.12
0.09
0.09
0.03
0.03
0.03
0.01
0.00
0.01
0.01
0.01
0.03
0.01
0.06
0.01
0.01
0.05
0.05
0.03
0.03
0.01
0.01
0.03
0.05
0.01
0.05
0.06
0.05
0.06
0.09
0.09
0.09
0.05
0.06
0.06
0.09
0.06
0.06
0.06
0.09
0.06
0.00
0.03
0.00
0.01
0.14
0.04
0.01
0.01
0.12
0.24
0.12
0.12
0.15
0.19
0.19
0.24
0.36
0.14
0.60
0.71
0.64
0.66
0.63
0.61
0.57
0.12
0.24
0.09
0.09
0.03
0.03
0.01
0.01
0.01
0.00
0.01
0.01
0.01
0.01
0.00
0.00
0.00
0.00
0.03
0.04
0.04
0.06
0.00
0.03
0.04
0.01
0.01
0.01
0.03
0.09
0.09
0.12
0.09
0.05
0.09
0.09
0.03
0.01
0.03
0.01
0.00
0.01
0.00
0.00
0.00
0.00
0.01
0.00
0.00
0.00
0.00
0.00
0.00
0.00
0.00
0.00
0.00
0.00
0.01
0.01
0.00
0.00
0.00
0.01
0.01
0.01
0.01
0.01
0.00
0.00
0.00
0.00
0.06
0.00
0.17
0.09
0.00
0.00
0.15
0.12
0.12
0.06
0.09
0.12
0.09
0.12
0.12
0.27
0.67
0.49
0.69
0.75
0.64
0.60
0.50
0.03
0.03
0.01
0.01
0.01
0.00
0.03
0.07
0.06
0.12
0.14
0.16
0.17
0.17
0.20
0.23
0.27
0.31
0.38
0.41
0.40
0.45
0.44
0.40
0.40
0.34
0.25
0.17
0.09
0.03
0.01
0.01
0.01
0.00
0.00
0.00
0.01
0.03
0.00
0.00
0.03
0.00
0.00
0.03
0.04
0.06
0.06
0.04
0.07
0.06
0.09
0.07
0.07
0.04
0.06
0.04
0.04
0.04
0.04
0.03
0.00
0.03
0.00
0.03
0.00
0.00
0.01
0.01
0.00
0.03
0.09
0.06
0.14
0.12
0.20
0.17
0.09
0.03
0.05
0.05
0.05
0.01
0.01
0.01
0.03
0.01
0.01
0.27
0.64
0.79
0.67
0.82
0.65
0.64
0.55
0.01
0.01
0.00
0.01
0.00
0.04
0.06
0.06
0.07
0.14
0.15
0.16
0.17
0.17
0.21
0.25
0.29
0.34
0.39
0.41
0.40
0.44
0.41
0.40
0.39
0.29
0.21
0.17
0.12
0.00
0.01
0.00
0.00
0.01
0.00
0.00
0.00
0.00
0.00
0.00
0.00
0.00
0.00
0.00
0.00
0.03
0.03
0.04
0.06
0.04
0.04
0.03
0.04
0.04
0.06
0.00
0.03
0.04
0.00
0.00
0.00
0.00
0.01
0.01
0.00
0.01
0.00
0.00
0.00
0.01
0.00
0.00
0.00
0.01
0.07
0.07
0.17
0.03
0.01
0.09
0.24
0.24
0.24
0.15
0.15
0.19
0.19
0.24
0.05
0.40
0.76
0.64
0.81
0.71
0.64
0.58
0.15
0.06
0.03
0.00
0.01
0.00
0.00
0.00
0.04
0.04
0.09
0.12
0.15
0.15
0.17
0.17
0.19
0.23
0.25
0.27
0.29
0.27
0.29
0.27
0.27
0.20
0.17
0.12
0.03
0.01
0.00
0.01
0.00
0.00
0.00
0.01
0.01
0.01
0.01
0.01
0.00
0.00
0.01
0.01
0.01
0.00
0.01
0.00
0.00
0.00
0.00
0.00
0.01
0.00
0.00
0.01
0.01
0.01
0.01
0.00
0.01
0.00
0.01
0.00
0.00
0.00
0.01
0.01
0.01
0.01
0.00
0.03
0.00
0.04
0.03
0.17
0.04
0.00
0.00
0.15
0.24
0.19
0.15
0.09
0.12
0.19
0.19
0.32
0.17
0.67
0.27
0.66
0.67
0.64
0.60
0.50
0.24
0.24
0.15
0.15
0.12
0.06
0.05
0.03
0.03
0.05
0.03
0.01
0.00
0.01
0.00
0.01
0.01
0.01
0.00
0.03
0.03
0.00
0.00
0.00
0.00
0.01
0.01
0.01
0.06
0.09
0.06
0.09
0.09
0.03
0.05
0.03
0.01
0.00
0.01
0.01
0.00
0.00
0.00
0.01
0.01
0.00
0.01
0.00
0.00
0.00
0.00
0.00
0.01
0.00
0.01
0.00
0.01
0.01
0.01
0.01
0.01
0.01
0.03
0.01
0.05
0.05
0.01
0.03
0.05
0.03
0.05
0.01
0.01
0.00
0.00
0.15
0.06
0.00
0.00
0.15
0.15
0.15
0.15
0.12
0.12
0.15
0.15
0.24
0.17
0.67
0.20
0.66
0.67
0.63
0.61
0.54
0.06
0.12
0.05
0.03
0.01
0.00
0.01
0.01
0.01
0.00
0.04
0.04
0.07
0.09
0.15
0.16
0.17
0.17
0.21
0.25
0.27
0.29
0.31
0.29
0.27
0.23
0.17
0.14
0.06
0.01
0.00
0.00
0.00
0.00
0.00
0.00
0.01
0.01
0.01
0.01
0.01
0.01
0.01
0.01
0.00
0.00
0.01
0.00
0.00
0.00
0.00
0.00
0.01
0.00
0.01
0.01
0.01
0.01
0.01
0.00
0.00
0.00
0.00
0.00
0.00
0.01
0.01
0.00
0.00
0.00
0.03
0.00
0.06
0.06
0.17
0.12
0.00
0.01
0.12
0.12
0.09
0.06
0.06
0.06
0.12
0.06
0.05
0.21
0.63
0.76
0.73
0.82
0.66
0.63
0.56
0.03
0.06
0.01
0.00
0.01
0.00
0.03
0.04
0.04
0.07
0.09
0.14
0.17
0.16
0.17
0.21
0.25
0.25
0.31
0.39
0.39
0.41
0.40
0.38
0.34
0.29
0.23
0.17
0.06
0.00
0.00
0.00
0.00
0.01
0.01
0.00
0.01
0.01
0.01
0.01
0.01
0.01
0.01
0.00
0.01
0.01
0.01
0.01
0.01
0.01
0.01
0.01
0.01
0.01
0.01
0.00
0.01
0.01
0.00
0.01
0.00
0.01
0.01
0.00
0.01
0.00
0.01
0.01
0.01
0.03
0.01
0.01
0.00
0.01
0.06
0.09
0.16
0.03
0.00
0.05
0.15
0.12
0.12
0.09
0.09
0.09
0.12
0.12
0.00
0.41
0.76
0.61
0.81
0.75
0.64
0.58
0.29
0.12
0.06
0.01
0.00
0.01
0.01
0.01
0.00
0.03
0.06
0.07
0.09
0.09
0.14
0.15
0.16
0.17
0.17
0.17
0.19
0.21
0.20
0.20
0.17
0.17
0.12
0.12
0.00
0.00
0.01
0.03
0.06
0.01
0.01
0.00
0.00
0.01
0.01
0.00
0.00
0.01
0.00
0.01
0.01
0.00
0.00
0.01
0.01
0.00
0.01
0.00
0.00
0.01
0.01
0.00
0.00
0.00
0.01
0.01
0.01
0.01
0.03
0.01
0.05
0.06
0.03
0.05
0.06
0.09
0.06
0.00
0.01
0.01
0.00
0.00
0.12
0.00
0.00
0.06
0.32
0.24
0.32
0.15
0.15
0.19
0.19
0.24
0.34
0.20
0.66
0.31
0.69
0.75
0.63
0.60
0.54
0.19
0.19
0.15
0.09
0.03
0.03
0.01
0.01
0.01
0.00
0.01
0.01
0.01
0.01
0.03
0.04
0.04
0.06
0.06
0.06
0.06
0.06
0.06
0.06
0.03
0.00
0.01
0.01
0.03
0.03
0.06
0.12
0.06
0.09
0.05
0.01
0.01
0.03
0.01
0.01
0.01
0.01
0.01
0.01
0.05
0.05
0.03
0.01
0.01
0.01
0.01
0.06
0.01
0.01
0.05
0.03
0.05
0.06
0.05
0.05
0.05
0.06
0.06
0.12
0.06
0.06
0.12
0.15
0.06
0.01
0.01
0.00
0.01
0.09
0.06
0.01
0.01
0.15
0.29
0.19
0.15
0.15
0.19
0.24
0.15
0.29
0.01
0.21
0.70
0.47
0.66
0.63
0.64
0.61
0.47
0.24
0.15
0.15
0.12
0.06
0.06
0.01
0.01
0.00
0.00
0.01
0.01
0.00
0.04
0.06
0.07
0.09
0.14
0.16
0.17
0.17
0.17
0.16
0.17
0.17
0.12
0.09
0.03
0.01
0.00
0.01
0.00
0.00
0.00
0.00
0.00
0.01
0.01
0.00
0.00
0.01
0.01
0.00
0.01
0.01
0.01
0.01
0.00
0.01
0.01
0.01
0.00
0.00
0.00
0.00
0.00
0.01
0.00
0.00
0.00
0.00
0.01
0.00
0.00
0.00
0.00
0.00
0.00
0.00
0.04
0.00
0.12
0.09
0.17
0.07
0.00
0.00
0.12
0.12
0.12
0.06
0.06
0.12
0.05
0.09
0.01
0.41
0.72
0.00
0.78
0.82
0.64
0.59
0.44
0.00
0.00
0.01
0.03
0.06
0.09
0.12
0.12
0.15
0.17
0.17
0.19
0.20
0.23
0.25
0.31
0.34
0.40
0.44
0.46
0.47
0.48
0.47
0.46
0.45
0.39
0.27
0.17
0.14
0.03
0.00
0.01
0.00
0.01
0.00
0.00
0.00
0.00
0.00
0.01
0.01
0.01
0.01
0.01
0.01
0.00
0.00
0.00
0.00
0.00
0.00
0.01
0.00
0.00
0.00
0.01
0.00
0.01
0.01
0.01
0.00
0.00
0.00
0.00
0.00
0.00
0.00
0.00
0.01
0.01
0.00
0.00
0.00
0.00
0.04
0.15
0.14
0.03
0.00
0.12
0.19
0.15
0.12
0.06
0.09
0.09
0.06
0.09
0.04
0.50
0.79
0.64
0.81
0.69
0.64
0.57
0.12
0.05
0.03
0.00
0.00
0.00
0.00
0.03
0.04
0.04
0.04
0.09
0.09
0.14
0.16
0.16
0.17
0.17
0.21
0.23
0.27
0.25
0.23
0.25
0.21
0.20
0.17
0.14
0.00
0.01
0.00
0.00
0.00
0.00
0.00
0.00
0.00
0.03
0.00
0.00
0.00
0.00
0.00
0.00
0.00
0.03
0.03
0.03
0.03
0.04
0.06
0.03
0.01
0.01
0.04
0.19
0.06
0.29
0.49
0.64
0.89
0.93
0.94
0.96
0.96
0.98
0.96
0.90
0.49
0.29
0.01
0.24
0.36
0.36
0.44
0.45
0.48
0.43
0.50
0.55
0.57
0.58
0.60
0.62
0.62
0.64
0.64
0.63
0.63
0.64
0.64
0.63
0.64
0.61
0.58
0.56
0.48
0.34
0.12
0.01
0.01
0.01
0.00
0.00
0.01
0.00
0.01
0.01
0.01
0.01
0.01
0.00
0.01
0.01
0.01
0.01
0.00
0.01
0.00
0.00
0.00
0.01
0.01
0.00
0.01
0.01
0.01
0.01
0.01
0.01
0.01
0.01
0.00
0.01
0.01
0.01
0.01
0.01
0.00
0.01
0.00
0.00
0.00
0.01
0.00
0.00
0.00
0.00
0.01
0.01
0.01
0.01
0.01
0.01
0.00
0.01
0.01
0.03
0.01
0.01
0.03
0.05
0.03
0.05
0.03
0.05
0.05
0.06
0.01
0.01
0.00
0.00
0.00
0.16
0.03
0.03
0.00
0.12
0.09
0.09
0.12
0.09
0.12
0.09
0.12
0.00
0.20
0.74
0.57
0.64
0.63
0.65
0.59
0.39
0.24
0.09
0.06
0.03
0.03
0.01
0.00
0.00
0.00
0.01
0.01
0.01
0.01
0.03
0.00
0.00
0.00
0.06
0.07
0.12
0.14
0.16
0.17
0.19
0.20
0.23
0.21
0.16
0.03
0.01
0.01
0.05
0.05
0.05
0.06
0.01
0.01
0.01
0.00
0.00
0.00
0.00
0.00
0.01
0.00
0.00
0.00
0.01
0.00
0.00
0.00
0.00
0.01
0.36
0.50
0.58
0.54
0.16
0.88
0.98
1.00
1.00
1.00
1.00
0.96
0.96
1.00
0.98
0.95
0.86
0.40
0.15
0.50
0.57
0.58
0.60
0.62
0.62
0.64
0.64
0.64
0.63
0.64
0.66
0.73
0.78
0.82
0.84
0.86
0.86
0.86
0.86
0.86
0.85
0.82
0.74
0.63
0.64
0.57
0.54
0.43
0.34
0.19
0.12
0.12
0.06
0.09
0.03
0.01
0.01
0.01
0.01
0.01
0.01
0.01
0.00
0.01
0.01
0.00
0.01
0.00
0.00
0.00
0.01
0.00
0.00
0.00
0.00
0.00
0.01
0.00
0.00
0.01
0.00
0.01
0.00
0.01
0.01
0.01
0.01
0.00
0.01
0.01
0.01
0.01
0.00
0.01
0.01
0.01
0.01
0.01
0.01
0.01
0.01
0.01
0.03
0.01
0.01
0.01
0.06
0.04
0.17
0.06
0.04
0.01
0.12
0.12
0.19
0.15
0.12
0.12
0.12
0.12
0.24
0.25
0.59
0.34
0.77
0.82
0.64
0.61
0.47
0.05
0.05
0.01
0.01
0.00
0.00
0.03
0.06
0.09
0.09
0.16
0.17
0.17
0.20
0.23
0.27
0.31
0.40
0.44
0.47
0.48
0.54
0.56
0.59
0.60
0.57
0.50
0.45
0.29
0.17
0.06
0.01
0.00
0.01
0.00
0.00
0.01
0.01
0.01
0.01
0.01
0.01
0.01
0.01
0.00
0.00
0.01
0.00
0.01
0.00
0.01
0.00
0.01
0.01
0.01
0.00
0.01
0.00
0.00
0.01
0.00
0.01
0.01
0.00
0.00
0.00
0.04
0.00
0.17
0.09
0.00
0.01
0.12
0.12
0.12
0.09
0.09
0.09
0.12
0.12
0.19
0.31
0.68
0.00
0.81
0.82
0.64
0.59
0.46
0.05
0.03
0.01
0.01
0.01
0.01
0.00
0.04
0.00
0.06
0.07
0.09
0.14
0.16
0.17
0.17
0.17
0.19
0.23
0.25
0.25
0.25
0.27
0.20
0.20
0.17
0.12
0.03
0.00
0.01
0.01
0.01
0.01
0.00
0.00
0.00
0.00
0.01
0.00
0.00
0.01
0.00
0.00
0.01
0.00
0.00
0.01
0.00
0.00
0.00
0.00
0.00
0.00
0.01
0.00
0.00
0.01
0.01
0.12
0.00
0.17
0.16
0.39
0.17
0.57
0.59
0.23
0.75
0.88
0.95
0.96
0.96
0.96
0.88
0.57
0.03
0.01
0.42
0.36
0.43
0.44
0.48
0.50
0.53
0.54
0.54
0.56
0.58
0.57
0.60
0.62
0.64
0.64
0.63
0.64
0.64
0.63
0.64
0.65
0.61
0.57
0.56
0.50
0.40
0.19
0.05
0.03
0.01
0.01
0.00
0.00
0.00
0.00
0.01
0.00
0.00
0.01
0.00
0.00
0.00
0.01
0.00
0.01
0.01
0.00
0.00
0.01
0.00
0.01
0.03
0.01
0.01
0.06
0.05
0.06
0.06
0.03
0.05
0.06
0.09
0.06
0.09
0.06
0.06
0.12
0.06
0.06
0.09
0.05
0.06
0.06
0.05
0.05
0.03
0.03
0.01
0.01
0.00
0.00
0.14
0.04
0.01
0.00
0.12
0.15
0.15
0.12
0.12
0.19
0.12
0.19
0.34
0.12
0.59
0.50
0.64
0.64
0.62
0.60
0.55
0.19
0.15
0.09
0.03
0.01
0.01
0.01
0.01
0.00
0.01
0.01
0.00
0.00
0.00
0.00
0.03
0.04
0.04
0.06
0.07
0.14
0.15
0.16
0.17
0.17
0.17
0.17
0.12
0.03
0.00
0.03
0.12
0.06
0.09
0.06
0.03
0.05
0.01
0.01
0.01
0.01
0.01
0.01
0.01
0.00
0.00
0.00
0.00
0.00
0.00
0.01
0.01
0.01
0.01
0.00
0.00
0.01
0.00
0.01
0.01
0.00
0.04
0.03
0.12
0.17
0.17
0.14
0.03
0.00
0.03
0.06
0.03
0.05
0.09
0.06
0.06
0.09
0.01
0.31
0.75
0.54
0.77
0.73
0.64
0.59
0.44
0.09
0.05
0.01
0.00
0.01
0.01
0.01
0.03
0.03
0.06
0.12
0.12
0.15
0.17
0.19
0.21
0.25
0.34
0.39
0.41
0.46
0.46
0.45
0.40
0.38
0.25
0.17
0.12
0.03
0.01
0.00
0.00
0.00
0.00
0.01
0.01
0.01
0.01
0.01
0.01
0.00
0.01
0.01
0.00
0.01
0.01
0.01
0.01
0.01
0.00
0.01
0.00
0.00
0.01
0.01
0.00
0.00
0.00
0.03
0.00
0.00
0.07
0.14
0.12
0.16
0.19
0.20
0.16
0.12
0.01
0.01
0.01
0.00
0.00
0.00
0.00
0.00
0.00
0.07
0.56
0.80
0.63
0.82
0.75
0.63
0.58
0.12
0.01
0.00
0.01
0.00
0.03
0.06
0.07
0.14
0.09
0.15
0.17
0.17
0.17
0.19
0.23
0.25
0.27
0.31
0.39
0.39
0.40
0.38
0.34
0.31
0.27
0.19
0.14
0.06
0.01
0.01
0.00
0.00
0.00
0.01
0.01
0.00
0.00
0.01
0.01
0.01
0.00
0.00
0.00
0.01
0.01
0.01
0.01
0.01
0.00
0.00
0.00
0.00
0.00
0.00
0.00
0.03
0.01
0.01
0.01
0.01
0.01
0.01
0.00
0.01
0.03
0.00
0.07
0.06
0.17
0.14
0.00
0.01
0.09
0.12
0.12
0.09
0.06
0.06
0.09
0.06
0.06
0.14
0.54
0.79
0.64
0.82
0.67
0.62
0.58
0.06
0.06
0.01
0.00
0.01
0.01
0.00
0.00
0.04
0.06
0.07
0.09
0.12
0.15
0.16
0.16
0.17
0.17
0.19
0.17
0.20
0.19
0.17
0.17
0.17
0.12
0.07
0.03
0.01
0.03
0.05
0.05
0.03
0.01
0.01
0.01
0.01
0.01
0.00
0.00
0.03
0.01
0.03
0.01
0.01
0.01
0.01
0.01
0.00
0.00
0.01
0.01
0.00
0.00
0.01
0.00
0.01
0.01
0.00
0.00
0.00
0.00
0.00
0.00
0.00
0.00
0.00
0.03
0.04
0.07
0.16
0.16
0.07
0.00
0.01
0.06
0.06
0.06
0.09
0.06
0.09
0.12
0.12
0.03
0.23
0.71
0.43
0.69
0.66
0.63
0.59
0.43
0.12
0.06
0.05
0.01
0.03
0.00
0.01
0.01
0.01
0.01
0.00
0.00
0.00
0.03
0.04
0.04
0.06
0.06
0.06
0.06
0.07
0.06
0.03
0.00
0.03
0.00
0.01
0.01
0.05
0.03
0.03
0.03
0.01
0.05
0.03
0.01
0.01
0.01
0.01
0.01
0.01
0.00
0.00
0.01
0.00
0.01
0.01
0.01
0.01
0.00
0.00
0.01
0.01
0.00
0.01
0.01
0.00
0.01
0.00
0.01
0.01
0.01
0.01
0.03
0.01
0.00
0.00
0.00
0.00
0.16
0.12
0.01
0.01
0.12
0.15
0.15
0.12
0.15
0.12
0.19
0.15
0.15
0.09
0.48
0.75
0.64
0.73
0.64
0.64
0.58
0.15
0.12
0.03
0.01
0.00
0.01
0.01
0.00
0.03
0.00
0.06
0.09
0.14
0.15
0.17
0.19
0.20
0.23
0.27
0.34
0.40
0.39
0.40
0.40
0.34
0.34
0.23
0.17
0.09
0.03
0.03
0.00
0.00
0.00
0.00
0.00
0.00
0.00
0.04
0.03
0.03
0.03
0.00
0.00
0.04
0.04
0.03
0.06
0.03
0.04
0.06
0.04
0.03
0.03
0.00
0.00
0.00
0.00
0.00
0.01
0.01
0.00
0.01
0.00
0.01
0.00
0.00
0.00
0.06
0.00
0.06
0.04
0.17
0.12
0.00
0.01
0.12
0.19
0.24
0.12
0.12
0.15
0.19
0.15
0.12
0.17
0.60
0.76
0.70
0.83
0.75
0.64
0.58
0.15
0.12
0.06
0.01
0.00
0.01
0.00
0.00
0.03
0.04
0.07
0.12
0.15
0.15
0.17
0.19
0.21
0.25
0.34
0.38
0.38
0.40
0.39
0.38
0.34
0.27
0.19
0.17
0.06
0.00
0.01
0.00
0.00
0.00
0.00
0.01
0.00
0.00
0.00
0.01
0.00
0.00
0.01
0.01
0.01
0.01
0.01
0.00
0.00
0.00
0.03
0.00
0.00
0.00
0.00
0.00
0.01
0.01
0.00
0.00
0.00
0.00
0.00
0.00
0.01
0.01
0.01
0.01
0.01
0.01
0.01
0.00
0.00
0.00
0.00
0.03
0.15
0.09
0.00
0.01
0.15
0.15
0.12
0.12
0.09
0.09
0.12
0.09
0.12
0.06
0.51
0.78
0.64
0.82
0.69
0.64
0.58
0.12
0.06
0.05
0.01
0.00
0.01
0.00
0.00
0.03
0.06
0.04
0.06
0.14
0.15
0.16
0.17
0.17
0.20
0.23
0.27
0.25
0.25
0.25
0.23
0.21
0.19
0.16
0.09
0.00
0.00
0.01
0.01
0.03
0.03
0.01
0.01
0.01
0.00
0.00
0.01
0.01
0.03
0.01
0.01
0.00
0.00
0.00
0.00
0.01
0.01
0.00
0.01
0.01
0.01
0.01
0.01
0.00
0.00
0.00
0.01
0.01
0.01
0.00
0.01
0.01
0.05
0.03
0.03
0.01
0.05
0.03
0.09
0.06
0.01
0.00
0.03
0.01
0.00
0.09
0.00
0.03
0.09
0.39
0.36
0.39
0.32
0.29
0.34
0.34
0.34
0.34
0.20
0.62
0.27
0.75
0.77
0.64
0.61
0.54
0.19
0.24
0.19
0.12
0.09
0.03
0.01
0.01
0.01
0.00
0.00
0.01
0.01
0.01
0.00
0.04
0.04
0.07
0.06
0.07
0.06
0.06
0.07
0.06
0.00
0.00
0.00
0.00
0.01
0.03
0.03
0.03
0.03
0.06
0.01
0.01
0.01
0.01
0.01
0.03
0.03
0.03
0.03
0.01
0.03
0.05
0.01
0.00
0.01
0.01
0.01
0.03
0.01
0.01
0.05
0.03
0.03
0.06
0.03
0.01
0.05
0.05
0.05
0.06
0.05
0.03
0.05
0.03
0.03
0.01
0.00
0.01
0.04
0.03
0.16
0.07
0.00
0.01
0.12
0.12
0.12
0.06
0.09
0.09
0.12
0.12
0.19
0.20
0.68
0.49
0.66
0.66
0.63
0.61
0.55
0.06
0.06
0.01
0.01
0.00
0.01
0.00
0.03
0.03
0.07
0.06
0.07
0.12
0.15
0.14
0.16
0.17
0.16
0.19
0.19
0.21
0.19
0.20
0.17
0.19
0.17
0.15
0.09
0.04
0.01
0.00
0.01
0.00
0.00
0.00
0.01
0.01
0.00
0.00
0.01
0.00
0.00
0.04
0.03
0.04
0.04
0.03
0.03
0.03
0.04
0.03
0.04
0.00
0.00
0.00
0.03
0.00
0.00
0.00
0.00
0.00
0.00
0.01
0.01
0.01
0.01
0.01
0.01
0.00
0.03
0.14
0.06
0.17
0.14
0.27
0.17
0.12
0.03
0.03
0.05
0.01
0.01
0.01
0.03
0.05
0.03
0.01
0.29
0.66
0.76
0.76
0.82
0.67
0.64
0.55
0.01
0.00
0.01
0.00
0.04
0.09
0.12
0.14
0.16
0.17
0.17
0.20
0.21
0.23
0.31
0.34
0.39
0.44
0.45
0.47
0.50
0.49
0.51
0.48
0.46
0.41
0.31
0.23
0.15
0.09
0.00
0.01
0.00
0.01
0.00
0.00
0.00
0.00
0.00
0.00
0.00
0.01
0.00
0.00
0.03
0.00
0.03
0.03
0.04
0.04
0.03
0.04
0.04
0.04
0.03
0.03
0.00
0.03
0.00
0.03
0.03
0.00
0.00
0.03
0.03
0.00
0.00
0.00
0.00
0.00
0.00
0.04
0.09
0.03
0.15
0.15
0.21
0.12
0.03
0.00
0.12
0.09
0.06
0.03
0.05
0.05
0.06
0.05
0.01
0.46
0.74
0.57
0.82
0.82
0.65
0.57
0.36
0.03
0.03
0.00
0.01
0.00
0.03
0.03
0.06
0.07
0.09
0.15
0.14
0.16
0.17
0.17
0.17
0.20
0.23
0.27
0.31
0.34
0.31
0.31
0.27
0.20
0.17
0.15
0.06
0.00
0.00
0.00
0.01
0.01
0.01
0.01
0.01
0.01
0.01
0.01
0.01
0.01
0.00
0.01
0.01
0.01
0.01
0.00
0.00
0.00
0.00
0.00
0.01
0.00
0.01
0.01
0.00
0.01
0.00
0.01
0.00
0.00
0.01
0.01
0.01
0.00
0.01
0.00
0.00
0.01
0.01
0.00
0.00
0.03
0.01
0.07
0.06
0.17
0.06
0.01
0.00
0.15
0.15
0.12
0.06
0.06
0.09
0.09
0.09
0.05
0.40
0.72
0.43
0.77
0.77
0.64
0.58
0.44
0.09
0.06
0.03
0.01
0.01
0.00
0.00
0.00
0.00
0.00
0.00
0.00
0.04
0.07
0.09
0.12
0.14
0.14
0.14
0.15
0.15
0.15
0.12
0.07
0.06
0.04
0.00
0.01
0.01
0.05
0.05
0.03
0.05
0.01
0.00
0.01
0.01
0.01
0.00
0.00
0.00
0.01
0.01
0.01
0.01
0.01
0.00
0.01
0.03
0.01
0.01
0.01
0.03
0.01
0.03
0.03
0.05
0.05
0.05
0.06
0.05
0.05
0.03
0.06
0.05
0.06
0.05
0.05
0.03
0.01
0.01
0.01
0.00
0.01
0.16
0.06
0.00
0.01
0.19
0.15
0.12
0.12
0.12
0.15
0.15
0.12
0.29
0.17
0.66
0.54
0.64
0.66
0.63
0.60
0.54
0.12
0.15
0.09
0.01
0.01
0.00
0.00
0.01
0.01
0.00
0.00
0.00
0.00
0.03
0.04
0.06
0.07
0.07
0.14
0.14
0.14
0.12
0.16
0.14
0.15
0.09
0.04
0.03
0.01
0.00
0.01
0.01
0.01
0.01
0.00
0.00
0.00
0.00
0.00
0.01
0.01
0.01
0.01
0.01
0.01
0.00
0.00
0.00
0.01
0.00
0.00
0.00
0.00
0.00
0.00
0.01
0.00
0.01
0.00
0.01
0.01
0.01
0.01
0.01
0.01
0.01
0.01
0.01
0.00
0.03
0.00
0.12
0.07
0.17
0.07
0.03
0.01
0.09
0.09
0.09
0.05
0.03
0.06
0.03
0.09
0.00
0.40
0.72
0.48
0.78
0.77
0.64
0.58
0.42
0.01
0.00
0.00
0.00
0.00
0.04
0.06
0.12
0.12
0.14
0.15
0.16
0.17
0.20
0.21
0.25
0.29
0.34
0.40
0.44
0.45
0.44
0.45
0.40
0.39
0.27
0.20
0.14
0.06
0.00
0.01
0.00
0.00
0.00
0.01
0.01
0.01
0.01
0.01
0.01
0.01
0.00
0.01
0.00
0.01
0.01
0.00
0.01
0.00
0.01
0.00
0.01
0.00
0.00
0.01
0.00
0.00
0.00
0.00
0.01
0.01
0.01
0.01
0.03
0.01
0.03
0.05
0.01
0.01
0.01
0.00
0.01
0.01
0.06
0.07
0.16
0.03
0.01
0.06
0.19
0.15
0.12
0.09
0.12
0.12
0.12
0.12
0.00
0.46
0.76
0.64
0.82
0.77
0.66
0.57
0.34
0.12
0.05
0.01
0.00
0.00
0.01
0.00
0.04
0.06
0.09
0.12
0.14
0.16
0.17
0.19
0.20
0.21
0.25
0.31
0.31
0.34
0.34
0.34
0.27
0.23
0.17
0.14
0.03
0.00
0.01
0.05
0.01
0.01
0.01
0.01
0.01
0.00
0.00
0.01
0.01
0.01
0.01
0.00
0.01
0.01
0.01
0.01
0.01
0.00
0.00
0.00
0.01
0.00
0.00
0.00
0.01
0.00
0.01
0.01
0.00
0.00
0.01
0.00
0.00
0.00
0.00
0.01
0.00
0.00
0.00
0.00
0.00
0.01
0.01
0.01
0.01
0.01
0.01
0.01
0.01
0.01
0.00
0.00
0.15
0.04
0.01
0.00
0.15
0.15
0.15
0.12
0.06
0.06
0.12
0.12
0.12
0.23
0.59
0.70
0.70
0.77
0.63
0.61
0.53
0.03
0.09
0.03
0.01
0.00
0.01
0.00
0.00
0.03
0.00
0.03
0.04
0.09
0.09
0.09
0.07
0.09
0.09
0.14
0.14
0.12
0.14
0.09
0.06
0.04
0.03
0.00
0.01
0.01
0.06
0.06
0.05
0.05
0.03
0.01
0.01
0.00
0.00
0.01
0.00
0.00
0.01
0.00
0.00
0.00
0.00
0.01
0.00
0.00
0.01
0.00
0.01
0.01
0.01
0.01
0.00
0.00
0.01
0.00
0.01
0.00
0.01
0.01
0.01
0.03
0.01
0.01
0.01
0.00
0.03
0.00
0.00
0.00
0.00
0.00
0.15
0.12
0.03
0.00
0.09
0.12
0.12
0.09
0.12
0.12
0.15
0.15
0.24
0.12
0.51
0.76
0.64
0.66
0.63
0.61
0.58
0.12
0.15
0.12
0.03
0.03
0.03
0.01
0.01
0.00
0.00
0.01
0.01
0.01
0.00
0.03
0.03
0.03
0.04
0.04
0.06
0.07
0.09
0.07
0.06
0.04
0.03
0.00
0.01
0.01
0.01
0.01
0.03
0.03
0.01
0.01
0.01
0.00
0.00
0.00
0.00
0.00
0.00
0.00
0.01
0.01
0.01
0.01
0.01
0.01
0.00
0.00
0.00
0.01
0.01
0.00
0.00
0.00
0.01
0.01
0.01
0.01
0.01
0.00
0.01
0.01
0.01
0.01
0.00
0.01
0.00
0.01
0.06
0.04
0.17
0.09
0.03
0.01
0.09
0.12
0.09
0.05
0.05
0.05
0.09
0.05
0.09
0.31
0.70
0.50
0.69
0.75
0.64
0.60
0.54
0.01
0.03
0.00
0.01
0.00
0.03
0.04
0.04
0.04
0.07
0.09
0.15
0.16
0.17
0.17
0.21
0.25
0.34
0.38
0.41
0.44
0.46
0.45
0.45
0.41
0.38
0.25
0.17
0.07
0.00
0.01
0.00
0.00
0.00
0.00
0.01
0.01
0.01
0.01
0.00
0.00
0.00
0.01
0.00
0.00
0.03
0.03
0.03
0.03
0.03
0.04
0.03
0.03
0.04
0.04
0.00
0.03
0.03
0.03
0.00
0.00
0.00
0.00
0.00
0.00
0.00
0.00
0.00
0.00
0.09
0.04
0.15
0.12
0.21
0.15
0.06
0.03
0.03
0.03
0.03
0.01
0.01
0.01
0.01
0.00
0.01
0.31
0.67
0.75
0.77
0.82
0.64
0.65
0.54
0.00
0.00
0.01
0.00
0.03
0.06
0.07
0.12
0.14
0.14
0.16
0.15
0.17
0.19
0.23
0.23
0.27
0.31
0.38
0.39
0.41
0.41
0.40
0.40
0.38
0.27
0.21
0.16
0.04
0.00
0.01
0.00
0.00
0.01
0.00
0.00
0.00
0.00
0.00
0.00
0.01
0.01
0.01
0.01
0.01
0.01
0.00
0.00
0.00
0.00
0.03
0.00
0.00
0.00
0.00
0.00
0.00
0.00
0.01
0.01
0.01
0.01
0.01
0.00
0.01
0.00
0.00
0.00
0.01
0.00
0.00
0.01
0.03
0.00
0.09
0.07
0.17
0.07
0.01
0.00
0.12
0.12
0.09
0.05
0.06
0.06
0.06
0.09
0.09
0.34
0.66
0.29
0.77
0.82
0.63
0.59
0.46
0.01
0.03
0.00
0.01
0.00
0.03
0.03
0.06
0.07
0.07
0.09
0.09
0.14
0.14
0.17
0.17
0.17
0.19
0.21
0.25
0.27
0.29
0.25
0.25
0.21
0.19
0.17
0.09
0.00
0.01
0.00
0.01
0.01
0.01
0.01
0.00
0.00
0.00
0.00
0.00
0.01
0.01
0.01
0.00
0.00
0.00
0.01
0.00
0.00
0.00
0.00
0.00
0.00
0.00
0.00
0.01
0.01
0.00
0.00
0.01
0.01
0.00
0.01
0.00
0.01
0.01
0.03
0.05
0.03
0.05
0.01
0.01
0.00
0.01
0.03
0.12
0.09
0.00
0.00
0.12
0.19
0.15
0.12
0.09
0.15
0.12
0.12
0.15
0.09
0.49
0.80
0.64
0.75
0.64
0.63
0.57
0.15
0.15
0.09
0.06
0.01
0.01
0.01
0.00
0.01
0.01
0.01
0.00
0.00
0.03
0.04
0.06
0.06
0.06
0.07
0.09
0.14
0.09
0.09
0.04
0.03
0.03
0.00
0.01
0.00
0.03
0.05
0.06
0.03
0.01
0.00
0.00
0.01
0.00
0.00
0.01
0.00
0.00
0.00
0.00
0.01
0.01
0.00
0.00
0.01
0.01
0.00
0.01
0.00
0.01
0.01
0.00
0.00
0.00
0.00
0.00
0.00
0.00
0.00
0.00
0.00
0.00
0.01
0.01
0.03
0.03
0.09
0.03
0.17
0.14
0.04
0.03
0.05
0.06
0.09
0.09
0.05
0.06
0.09
0.09
0.19
0.15
0.54
0.76
0.64
0.67
0.63
0.63
0.58
0.12
0.12
0.05
0.01
0.01
0.01
0.01
0.00
0.00
0.03
0.03
0.04
0.06
0.09
0.12
0.14
0.15
0.15
0.16
0.17
0.17
0.20
0.17
0.17
0.17
0.17
0.15
0.09
0.00
0.01
0.00
0.00
0.00
0.01
0.00
0.01
0.01
0.00
0.01
0.00
0.01
0.00
0.01
0.01
0.01
0.01
0.01
0.01
0.01
0.00
0.01
0.01
0.01
0.01
0.01
0.01
0.01
0.01
0.01
0.00
0.00
0.00
0.00
0.00
0.00
0.00
0.00
0.01
0.00
0.04
0.03
0.12
0.09
0.19
0.12
0.03
0.00
0.06
0.12
0.05
0.03
0.05
0.06
0.06
0.06
0.05
0.39
0.71
0.39
0.77
0.82
0.64
0.61
0.54
0.00
0.03
0.00
0.01
0.03
0.04
0.07
0.09
0.09
0.15
0.17
0.17
0.19
0.20
0.21
0.29
0.34
0.39
0.44
0.45
0.47
0.48
0.49
0.48
0.46
0.40
0.29
0.19
0.16
0.07
0.03
0.00
0.00
0.00
0.00
0.04
0.03
0.04
0.04
0.04
0.04
0.06
0.06
0.06
0.07
0.07
0.07
0.07
0.12
0.12
0.09
0.07
0.14
0.09
0.07
0.07
0.07
0.04
0.06
0.04
0.03
0.03
0.00
0.00
0.00
0.00
0.00
0.01
0.00
0.00
0.07
0.03
0.09
0.09
0.17
0.04
0.01
0.01
0.12
0.12
0.12
0.09
0.05
0.09
0.05
0.09
0.01
0.46
0.76
0.58
0.82
0.77
0.64
0.57
0.12
0.00
0.00
0.00
0.03
0.06
0.07
0.12
0.14
0.15
0.16
0.16
0.17
0.19
0.23
0.25
0.25
0.27
0.39
0.40
0.41
0.44
0.41
0.38
0.38
0.27
0.25
0.17
0.14
0.00
0.01
0.01
0.01
0.01
0.00
0.00
0.03
0.00
0.00
0.03
0.00
0.00
0.00
0.00
0.00
0.03
0.00
0.00
0.04
0.03
0.03
0.03
0.03
0.03
0.03
0.00
0.00
0.00
0.01
0.01
0.01
0.01
0.01
0.01
0.01
0.00
0.00
0.01
0.01
0.00
0.00
0.00
0.00
0.03
0.00
0.04
0.06
0.17
0.12
0.03
0.00
0.12
0.12
0.12
0.12
0.06
0.06
0.12
0.06
0.09
0.15
0.51
0.77
0.67
0.82
0.63
0.63
0.57
0.09
0.06
0.06
0.01
0.01
0.00
0.01
0.01
0.00
0.00
0.00
0.04
0.06
0.04
0.07
0.09
0.09
0.14
0.14
0.12
0.12
0.14
0.14
0.14
0.07
0.06
0.00
0.01
0.00
0.01
0.03
0.01
0.01
0.01
0.00
0.01
0.00
0.01
0.01
0.00
0.00
0.01
0.00
0.00
0.01
0.00
0.00
0.01
0.01
0.00
0.00
0.01
0.01
0.01
0.01
0.01
0.00
0.00
0.00
0.01
0.00
0.00
0.01
0.01
0.03
0.01
0.01
0.01
0.01
0.01
0.03
0.01
0.00
0.00
0.03
0.00
0.14
0.06
0.01
0.01
0.12
0.24
0.09
0.12
0.12
0.15
0.12
0.12
0.15
0.06
0.44
0.76
0.61
0.66
0.63
0.65
0.58
0.24
0.15
0.09
0.05
0.03
0.00
0.00
0.00
0.01
0.01
0.00
0.01
0.03
0.03
0.06
0.06
0.04
0.09
0.12
0.07
0.09
0.12
0.12
0.07
0.09
0.07
0.04
0.01
0.00
0.01
0.01
0.01
0.01
0.01
0.01
0.01
0.00
0.00
0.00
0.00
0.00
0.00
0.00
0.00
0.00
0.00
0.00
0.00
0.00
0.01
0.01
0.00
0.01
0.00
0.00
0.00
0.00
0.00
0.00
0.00
0.00
0.00
0.00
0.00
0.01
0.00
0.00
0.00
0.00
0.00
0.00
0.03
0.00
0.09
0.14
0.17
0.07
0.03
0.01
0.12
0.06
0.09
0.03
0.06
0.09
0.06
0.12
0.01
0.40
0.72
0.57
0.75
0.66
0.63
0.58
0.24
0.05
0.00
0.00
0.00
0.00
0.03
0.06
0.09
0.14
0.14
0.17
0.16
0.19
0.20
0.23
0.29
0.31
0.38
0.39
0.44
0.44
0.44
0.44
0.39
0.31
0.25
0.17
0.09
0.03
0.00
0.01
0.01
0.01
0.00
0.00
0.00
0.00
0.00
0.00
0.00
0.00
0.00
0.00
0.00
0.00
0.00
0.00
0.00
0.00
0.03
0.00
0.01
0.00
0.01
0.01
0.01
0.01
0.01
0.01
0.00
0.01
0.01
0.00
0.00
0.01
0.00
0.01
0.00
0.01
0.04
0.01
0.07
0.03
0.17
0.04
0.01
0.01
0.29
0.24
0.15
0.15
0.12
0.15
0.15
0.15
0.12
0.38
0.67
0.09
0.82
0.82
0.65
0.60
0.47
0.06
0.12
0.01
0.00
0.01
0.00
0.00
0.00
0.06
0.12
0.12
0.16
0.16
0.16
0.19
0.21
0.25
0.29
0.34
0.34
0.39
0.39
0.39
0.31
0.29
0.20
0.17
0.12
0.04
0.00
0.01
0.00
0.00
0.01
0.01
0.01
0.01
0.00
0.01
0.00
0.01
0.01
0.00
0.01
0.01
0.00
0.00
0.00
0.00
0.01
0.01
0.00
0.01
0.01
0.01
0.01
0.00
0.00
0.00
0.00
0.00
0.01
0.01
0.00
0.01
0.01
0.01
0.01
0.01
0.00
0.00
0.01
0.07
0.04
0.17
0.04
0.01
0.05
0.24
0.19
0.24
0.15
0.15
0.24
0.29
0.39
0.19
0.41
0.76
0.16
0.78
0.77
0.63
0.58
0.43
0.15
0.12
0.12
0.06
0.05
0.01
0.01
0.01
0.00
0.01
0.01
0.01
0.00
0.03
0.04
0.04
0.06
0.07
0.12
0.12
0.14
0.09
0.07
0.04
0.00
0.01
0.00
0.05
0.09
0.12
0.09
0.06
0.01
0.05
0.00
0.00
0.01
0.00
0.01
0.00
0.01
0.01
0.00
0.01
0.01
0.01
0.01
0.00
0.01
0.00
0.01
0.00
0.00
0.00
0.01
0.01
0.01
0.01
0.01
0.03
0.01
0.03
0.03
0.06
0.03
0.06
0.03
0.05
0.05
0.09
0.05
0.01
0.00
0.01
0.00
0.00
0.09
0.12
0.00
0.00
0.12
0.29
0.19
0.24
0.12
0.12
0.19
0.19
0.19
0.06
0.47
0.80
0.64
0.75
0.63
0.63
0.58
0.19
0.12
0.09
0.03
0.01
0.01
0.00
0.01
0.01
0.01
0.00
0.00
0.00
0.04
0.06
0.07
0.06
0.07
0.09
0.07
0.09
0.09
0.07
0.09
0.03
0.03
0.01
0.01
0.01
0.03
0.06
0.03
0.03
0.01
0.01
0.01
0.01
0.01
0.01
0.01
0.01
0.01
0.01
0.01
0.03
0.01
0.00
0.00
0.00
0.01
0.01
0.00
0.01
0.00
0.01
0.01
0.01
0.03
0.05
0.05
0.06
0.01
0.05
0.06
0.05
0.03
0.03
0.01
0.00
0.01
0.01
0.04
0.14
0.12
0.04
0.01
0.06
0.12
0.15
0.12
0.15
0.32
0.19
0.01
0.00
0.23
0.62
0.81
0.42
0.66
0.57
0.58
0.57
0.34
0.24
0.12
0.15
0.12
0.12
0.06
0.09
0.06
0.06
0.05
0.05
0.09
0.01
0.06
0.05
0.05
0.09
0.12
0.09
0.09
0.12
0.19
0.19
0.29
0.29
0.24
0.19
0.19
0.15
0.12
0.05
0.01
0.00
0.01
0.01
0.01
0.00
0.00
0.00
0.00
0.00
0.00
0.00
0.00
0.00
0.00
0.01
0.01
0.00
0.01
0.01
0.01
0.01
0.00
0.01
0.01
0.01
0.01
0.00
0.00
0.00
0.00
0.00
0.01
0.01
0.00
0.00
0.01
0.00
0.04
0.06
0.12
0.17
0.17
0.12
0.07
0.00
0.03
0.01
0.00
0.01
0.01
0.01
0.01
0.03
0.12
0.54
0.77
0.60
0.77
0.74
0.63
0.57
0.12
0.00
0.01
0.00
0.06
0.09
0.14
0.14
0.15
0.16
0.17
0.19
0.21
0.27
0.27
0.38
0.39
0.46
0.48
0.50
0.56
0.57
0.60
0.59
0.57
0.51
0.46
0.38
0.23
0.17
0.12
0.07
0.03
0.04
0.04
0.06
0.06
0.07
0.06
0.06
0.04
0.07
0.06
0.06
0.07
0.07
0.07
0.09
0.12
0.12
0.14
0.09
0.12
0.09
0.09
0.09
0.09
0.06
0.07
0.04
0.04
0.03
0.00
0.04
0.00
0.00
0.00
0.00
0.00
0.00
0.03
0.09
0.06
0.14
0.14
0.21
0.17
0.07
0.06
0.01
0.03
0.03
0.01
0.01
0.01
0.01
0.01
0.01
0.29
0.66
0.76
0.75
0.82
0.65
0.63
0.54
0.01
0.01
0.01
0.00
0.06
0.07
0.09
0.12
0.15
0.15
0.17
0.16
0.17
0.20
0.23
0.21
0.29
0.29
0.38
0.39
0.40
0.40
0.39
0.39
0.31
0.31
0.21
0.16
0.09
0.00
0.00
0.01
0.00
0.00
0.04
0.03
0.06
0.06
0.06
0.06
0.04
0.03
0.04
0.06
0.06
0.04
0.07
0.04
0.06
0.07
0.06
0.07
0.06
0.06
0.06
0.04
0.04
0.03
0.00
0.00
0.00
0.00
0.00
0.01
0.01
0.01
0.01
0.01
0.01
0.01
0.03
0.04
0.00
0.12
0.15
0.19
0.07
0.03
0.00
0.06
0.09
0.06
0.03
0.05
0.06
0.05
0.06
0.06
0.40
0.72
0.40
0.81
0.77
0.64
0.57
0.40
0.09
0.06
0.01
0.00
0.00
0.00
0.01
0.00
0.03
0.00
0.03
0.03
0.07
0.07
0.09
0.09
0.12
0.14
0.12
0.15
0.14
0.12
0.09
0.07
0.07
0.00
0.03
0.01
0.01
0.01
0.05
0.03
0.01
0.01
0.01
0.00
0.00
0.00
0.00
0.00
0.01
0.00
0.00
0.00
0.00
0.00
0.01
0.00
0.00
0.01
0.00
0.01
0.00
0.01
0.01
0.00
0.01
0.03
0.01
0.03
0.01
0.03
0.01
0.05
0.01
0.03
0.09
0.06
0.03
0.03
0.01
0.00
0.00
0.01
0.12
0.09
0.00
0.00
0.12
0.19
0.15
0.24
0.19
0.29
0.19
0.34
0.29
0.01
0.20
0.71
0.54
0.67
0.63
0.63
0.60
0.42
0.29
0.15
0.09
0.06
0.01
0.03
0.00
0.00
0.01
0.01
0.00
0.00
0.00
0.03
0.06
0.04
0.07
0.07
0.14
0.14
0.14
0.14
0.15
0.14
0.14
0.06
0.06
0.00
0.01
0.00
0.01
0.01
0.01
0.00
0.00
0.00
0.00
0.00
0.00
0.00
0.01
0.00
0.00
0.01
0.01
0.01
0.00
0.01
0.01
0.01
0.03
0.01
0.03
0.03
0.01
0.01
0.05
0.01
0.01
0.03
0.03
0.05
0.05
0.05
0.01
0.03
0.01
0.01
0.01
0.01
0.03
0.04
0.17
0.12
0.00
0.01
0.06
0.09
0.09
0.06
0.12
0.12
0.12
0.05
0.12
0.00
0.39
0.75
0.57
0.77
0.70
0.63
0.59
0.40
0.03
0.03
0.00
0.01
0.00
0.00
0.04
0.07
0.09
0.12
0.15
0.16
0.17
0.20
0.23
0.27
0.31
0.38
0.41
0.45
0.46
0.48
0.47
0.46
0.44
0.39
0.25
0.17
0.12
0.03
0.00
0.01
0.01
0.00
0.01
0.01
0.00
0.01
0.01
0.00
0.01
0.01
0.01
0.01
0.00
0.00
0.00
0.04
0.00
0.03
0.03
0.00
0.00
0.00
0.01
0.00
0.00
0.00
0.01
0.00
0.00
0.00
0.00
0.01
0.01
0.03
0.03
0.01
0.01
0.01
0.01
0.00
0.01
0.00
0.15
0.07
0.00
0.00
0.15
0.24
0.12
0.12
0.09
0.12
0.12
0.09
0.06
0.17
0.60
0.78
0.69
0.82
0.66
0.63
0.56
0.06
0.12
0.01
0.00
0.01
0.01
0.00
0.00
0.03
0.04
0.07
0.12
0.09
0.14
0.16
0.17
0.19
0.21
0.23
0.29
0.27
0.31
0.29
0.27
0.23
0.20
0.16
0.07
0.00
0.01
0.01
0.01
0.01
0.00
0.00
0.00
0.00
0.00
0.01
0.00
0.00
0.00
0.00
0.00
0.00
0.01
0.00
0.01
0.01
0.01
0.01
0.01
0.00
0.01
0.01
0.01
0.01
0.01
0.01
0.00
0.00
0.01
0.01
0.01
0.01
0.01
0.01
0.01
0.03
0.01
0.03
0.01
0.01
0.00
0.01
0.00
0.04
0.04
0.15
0.03
0.00
0.05
0.24
0.19
0.12
0.12
0.15
0.12
0.12
0.15
0.12
0.38
0.70
0.46
0.81
0.82
0.63
0.58
0.42
0.06
0.05
0.01
0.00
0.01
0.01
0.00
0.03
0.06
0.04
0.06
0.09
0.12
0.14
0.16
0.17
0.17
0.21
0.20
0.25
0.27
0.25
0.21
0.21
0.17
0.17
0.12
0.06
0.01
0.01
0.01
0.03
0.01
0.01
0.01
0.00
0.00
0.01
0.01
0.01
0.00
0.00
0.00
0.01
0.01
0.01
0.01
0.01
0.00
0.00
0.01
0.00
0.01
0.01
0.00
0.01
0.01
0.01
0.00
0.01
0.03
0.05
0.03
0.05
0.03
0.05
0.05
0.09
0.06
0.06
0.05
0.09
0.09
0.12
0.12
0.03
0.01
0.05
0.00
0.01
0.07
0.01
0.01
0.06
0.29
0.39
0.34
0.32
0.24
0.32
0.34
0.32
0.34
0.12
0.48
0.75
0.64
0.70
0.64
0.64
0.57
0.24
0.24
0.12
0.09
0.03
0.01
0.01
0.00
0.00
0.00
0.01
0.01
0.01
0.01
0.01
0.01
0.00
0.00
0.00
0.00
0.00
0.00
0.00
0.01
0.01
0.00
0.01
0.03
0.05
0.06
0.09
0.12
0.12
0.12
0.09
0.09
0.09
0.05
0.06
0.06
0.03
0.05
0.05
0.05
0.06
0.12
0.06
0.05
0.03
0.05
0.01
0.09
0.03
0.01
0.06
0.05
0.05
0.05
0.06
0.05
0.05
0.06
0.06
0.06
0.09
0.06
0.06
0.09
0.12
0.09
0.12
0.09
0.05
0.00
0.05
0.01
0.01
0.06
0.00
0.01
0.05
0.29
0.34
0.32
0.24
0.24
0.32
0.32
0.32
0.32
0.16
0.63
0.25
0.68
0.69
0.64
0.61
0.54
0.15
0.15
0.09
0.03
0.01
0.00
0.00
0.01
0.01
0.00
0.04
0.07
0.09
0.14
0.15
0.17
0.20
0.21
0.27
0.29
0.38
0.40
0.40
0.40
0.34
0.31
0.19
0.16
0.06
0.00
0.01
0.01
0.00
0.01
0.01
0.00
0.00
0.00
0.01
0.00
0.00
0.00
0.03
0.00
0.01
0.00
0.00
0.03
0.00
0.00
0.00
0.00
0.00
0.00
0.00
0.01
0.01
0.01
0.01
0.01
0.01
0.01
0.01
0.00
0.00
0.00
0.00
0.00
0.01
0.00
0.00
0.00
0.04
0.00
0.07
0.06
0.17
0.14
0.00
0.00
0.06
0.12
0.09
0.05
0.05
0.06
0.09
0.09
0.05
0.31
0.64
0.68
0.77
0.82
0.64
0.65
0.54
0.01
0.03
0.00
0.01
0.00
0.06
0.07
0.09
0.12
0.14
0.16
0.17
0.17
0.20
0.21
0.25
0.29
0.38
0.40
0.40
0.41
0.44
0.45
0.41
0.40
0.39
0.19
0.14
0.15
0.00
0.03
0.01
0.00
0.00
0.01
0.00
0.00
0.00
0.03
0.00
0.04
0.00
0.03
0.03
0.00
0.03
0.03
0.04
0.04
0.04
0.04
0.03
0.03
0.03
0.03
0.00
0.00
0.01
0.00
0.01
0.01
0.00
0.00
0.00
0.01
0.00
0.00
0.00
0.00
0.00
0.00
0.00
0.00
0.00
0.00
0.00
0.03
0.04
0.16
0.14
0.03
0.01
0.06
0.15
0.06
0.09
0.05
0.06
0.09
0.06
0.03
0.12
0.51
0.80
0.63
0.82
0.66
0.63
0.55
0.06
0.09
0.03
0.00
0.01
0.01
0.06
0.01
0.15
0.12
0.06
0.06
0.12
0.12
0.15
0.17
0.17
0.20
0.21
0.23
0.23
0.25
0.27
0.25
0.19
0.17
0.17
0.09
0.03
0.01
0.01
0.01
0.01
0.00
0.00
0.01
0.01
0.01
0.01
0.01
0.01
0.01
0.01
0.00
0.01
0.03
0.00
0.04
0.03
0.06
0.03
0.00
0.01
0.12
0.19
0.45
0.44
0.21
0.86
0.95
0.99
1.00
0.98
0.96
0.96
0.98
0.99
0.95
0.76
0.38
0.07
0.49
0.43
0.49
0.53
0.56
0.56
0.58
0.55
0.57
0.60
0.62
0.64
0.63
0.63
0.63
0.65
0.67
0.73
0.76
0.76
0.75
0.69
0.64
0.64
0.64
0.58
0.56
0.47
0.34
0.15
0.12
0.06
0.05
0.06
0.05
0.05
0.01
0.01
0.01
0.01
0.01
0.03
0.03
0.03
0.03
0.03
0.03
0.06
0.03
0.03
0.03
0.05
0.03
0.03
0.05
0.05
0.05
0.05
0.05
0.01
0.03
0.05
0.03
0.05
0.05
0.01
0.01
0.01
0.01
0.01
0.01
0.00
0.01
0.01
0.01
0.01
0.01
0.00
0.01
0.06
0.01
0.01
0.01
0.01
0.03
0.03
0.00
0.05
0.03
0.01
0.01
0.01
0.03
0.05
0.03
0.03
0.06
0.05
0.05
0.06
0.06
0.09
0.01
0.00
0.01
0.01
0.03
0.07
0.01
0.00
0.05
0.15
0.24
0.19
0.19
0.15
0.29
0.29
0.39
0.01
0.34
0.71
0.64
0.66
0.64
0.62
0.57
0.29
0.29
0.09
0.05
0.00
0.00
0.01
0.01
0.00
0.03
0.06
0.06
0.04
0.07
0.14
0.12
0.15
0.17
0.17
0.19
0.20
0.27
0.31
0.38
0.40
0.40
0.41
0.34
0.23
0.17
0.06
0.01
0.00
0.01
0.01
0.00
0.00
0.01
0.00
0.01
0.00
0.01
0.00
0.00
0.03
0.00
0.00
0.03
0.03
0.04
0.03
0.03
0.00
0.29
0.47
0.56
0.40
0.66
0.94
1.00
1.00
1.00
1.00
1.00
0.96
0.98
1.00
0.96
0.90
0.78
0.01
0.42
0.50
0.54
0.55
0.59
0.60
0.62
0.65
0.64
0.64
0.63
0.64
0.67
0.75
0.78
0.82
0.84
0.86
0.86
0.86
0.86
0.86
0.84
0.82
0.67
0.64
0.62
0.58
0.50
0.42
0.24
0.15
0.09
0.06
0.05
0.05
0.01
0.01
0.01
0.01
0.01
0.01
0.01
0.01
0.01
0.01
0.01
0.01
0.01
0.01
0.01
0.01
0.01
0.01
0.00
0.00
0.00
0.00
0.00
0.01
0.01
0.00
0.00
0.01
0.01
0.01
0.03
0.03
0.01
0.01
0.05
0.05
0.05
0.05
0.01
0.05
0.03
0.06
0.05
0.06
0.01
0.03
0.03
0.03
0.05
0.05
0.06
0.05
0.05
0.03
0.05
0.03
0.05
0.03
0.00
0.00
0.03
0.00
0.16
0.04
0.01
0.01
0.12
0.19
0.24
0.19
0.12
0.15
0.15
0.19
0.15
0.27
0.62
0.01
0.81
0.82
0.64
0.60
0.45
0.06
0.05
0.01
0.01
0.00
0.03
0.03
0.06
0.09
0.12
0.15
0.17
0.17
0.19
0.19
0.23
0.31
0.31
0.38
0.45
0.47
0.50
0.51
0.56
0.57
0.56
0.49
0.41
0.21
0.14
0.00
0.01
0.09
0.05
0.03
0.01
0.05
0.03
0.01
0.01
0.01
0.01
0.01
0.01
0.00
0.00
0.00
0.01
0.00
0.00
0.00
0.00
0.01
0.00
0.00
0.00
0.01
0.00
0.01
0.00
0.01
0.01
0.03
0.05
0.01
0.00
0.01
0.00
0.00
0.06
0.15
0.04
0.01
0.05
0.19
0.19
0.12
0.15
0.19
0.24
0.29
0.29
0.19
0.27
0.68
0.34
0.78
0.76
0.64
0.59
0.46
0.19
0.24
0.12
0.06
0.06
0.03
0.03
0.03
0.01
0.00
0.01
0.01
0.01
0.01
0.00
0.04
0.06
0.07
0.09
0.09
0.09
0.12
0.14
0.09
0.09
0.03
0.00
0.00
0.03
0.06
0.05
0.06
0.01
0.03
0.01
0.01
0.01
0.01
0.03
0.01
0.03
0.01
0.01
0.01
0.01
0.01
0.00
0.01
0.01
0.01
0.01
0.01
0.00
0.01
0.01
0.01
0.01
0.03
0.01
0.01
0.05
0.05
0.05
0.03
0.00
0.01
0.01
0.03
0.00
0.16
0.07
0.01
0.01
0.15
0.15
0.19
0.09
0.12
0.15
0.12
0.15
0.36
0.17
0.64
0.54
0.66
0.66
0.64
0.60
0.54
0.19
0.12
0.12
0.05
0.01
0.00
0.00
0.01
0.01
0.01
0.03
0.04
0.06
0.09
0.12
0.12
0.16
0.17
0.19
0.21
0.21
0.21
0.23
0.23
0.21
0.19
0.17
0.09
0.04
0.01
0.00
0.00
0.00
0.00
0.01
0.01
0.01
0.01
0.01
0.01
0.01
0.01
0.01
0.01
0.01
0.01
0.01
0.01
0.00
0.00
0.01
0.00
0.00
0.01
0.01
0.00
0.00
0.00
0.00
0.00
0.00
0.00
0.00
0.00
0.00
0.00
0.01
0.04
0.00
0.09
0.09
0.17
0.15
0.00
0.01
0.09
0.09
0.09
0.06
0.05
0.06
0.06
0.03
0.03
0.34
0.69
0.75
0.77
0.82
0.66
0.65
0.55
0.00
0.01
0.01
0.00
0.06
0.07
0.09
0.12
0.14
0.16
0.17
0.17
0.20
0.20
0.23
0.31
0.34
0.41
0.44
0.47
0.48
0.50
0.51
0.50
0.49
0.46
0.38
0.25
0.17
0.12
0.06
0.04
0.00
0.03
0.06
0.04
0.07
0.06
0.04
0.04
0.06
0.04
0.04
0.03
0.03
0.06
0.06
0.06
0.07
0.07
0.06
0.09
0.09
0.07
0.09
0.07
0.06
0.06
0.06
0.04
0.03
0.00
0.00
0.00
0.00
0.01
0.00
0.01
0.00
0.09
0.04
0.15
0.15
0.19
0.12
0.00
0.01
0.06
0.09
0.05
0.01
0.03
0.01
0.01
0.03
0.03
0.44
0.70
0.06
0.82
0.82
0.64
0.59
0.45
0.01
0.00
0.01
0.00
0.03
0.04
0.06
0.09
0.12
0.15
0.15
0.16
0.17
0.19
0.20
0.25
0.25
0.29
0.34
0.38
0.39
0.40
0.38
0.34
0.29
0.25
0.19
0.12
0.03
0.00
0.00
0.00
0.00
0.00
0.00
0.01
0.01
0.01
0.01
0.01
0.00
0.01
0.01
0.01
0.01
0.00
0.01
0.03
0.00
0.00
0.03
0.00
0.03
0.00
0.00
0.00
0.00
0.00
0.01
0.01
0.00
0.00
0.01
0.00
0.00
0.00
0.00
0.00
0.01
0.00
0.00
0.00
0.01
0.01
0.01
0.04
0.12
0.09
0.00
0.00
0.06
0.15
0.12
0.12
0.09
0.12
0.12
0.12
0.12
0.03
0.41
0.74
0.58
0.78
0.75
0.63
0.58
0.40
0.12
0.06
0.05
0.01
0.00
0.00
0.00
0.01
0.00
0.00
0.00
0.00
0.04
0.06
0.07
0.09
0.15
0.12
0.15
0.17
0.16
0.15
0.12
0.09
0.09
0.07
0.06
0.01
0.01
0.00
0.00
0.01
0.00
0.00
0.01
0.00
0.00
0.00
0.01
0.00
0.00
0.00
0.00
0.00
0.00
0.01
0.00
0.01
0.01
0.00
0.00
0.01
0.01
0.00
0.00
0.00
0.01
0.01
0.00
0.00
0.01
0.00
0.00
0.01
0.00
0.03
0.01
0.03
0.00
0.01
0.05
0.03
0.00
0.00
0.00
0.01
0.14
0.07
0.00
0.00
0.06
0.12
0.15
0.12
0.12
0.12
0.19
0.15
0.15
0.04
0.44
0.75
0.60
0.69
0.64
0.64
0.59
0.39
0.09
0.06
0.03
0.01
0.00
0.00
0.00
0.00
0.00
0.00
0.03
0.04
0.06
0.09
0.09
0.14
0.15
0.15
0.17
0.17
0.19
0.17
0.19
0.17
0.17
0.15
0.09
0.00
0.01
0.01
0.01
0.01
0.01
0.01
0.01
0.01
0.01
0.00
0.00
0.00
0.00
0.01
0.01
0.01
0.01
0.01
0.00
0.01
0.01
0.00
0.01
0.01
0.00
0.01
0.00
0.00
0.00
0.01
0.00
0.01
0.00
0.01
0.01
0.01
0.01
0.01
0.01
0.00
0.01
0.01
0.04
0.04
0.07
0.09
0.19
0.17
0.07
0.03
0.03
0.06
0.03
0.01
0.01
0.03
0.05
0.03
0.01
0.21
0.66
0.79
0.67
0.82
0.66
0.64
0.55
0.01
0.00
0.01
0.00
0.06
0.06
0.09
0.12
0.15
0.16
0.17
0.17
0.17
0.20
0.25
0.31
0.34
0.40
0.41
0.46
0.47
0.49
0.48
0.46
0.46
0.39
0.31
0.21
0.15
0.04
0.03
0.01
0.01
0.00
0.00
0.00
0.00
0.00
0.03
0.03
0.00
0.03
0.00
0.00
0.00
0.00
0.03
0.03
0.03
0.00
0.03
0.03
0.04
0.03
0.00
0.00
0.00
0.00
0.03
0.00
0.01
0.01
0.00
0.01
0.01
0.00
0.01
0.00
0.00
0.01
0.00
0.00
0.01
0.00
0.03
0.03
0.09
0.15
0.17
0.07
0.00
0.01
0.06
0.06
0.06
0.03
0.05
0.05
0.03
0.06
0.01
0.49
0.75
0.59
0.82
0.77
0.65
0.58
0.36
0.01
0.01
0.01
0.01
0.03
0.03
0.12
0.12
0.12
0.14
0.16
0.17
0.17
0.19
0.21
0.23
0.25
0.29
0.31
0.39
0.39
0.39
0.34
0.31
0.25
0.21
0.17
0.07
0.00
0.00
0.01
0.01
0.00
0.00
0.01
0.01
0.01
0.01
0.01
0.01
0.01
0.01
0.01
0.00
0.00
0.00
0.03
0.00
0.00
0.06
0.03
0.03
0.03
0.03
0.00
0.00
0.00
0.00
0.00
0.01
0.01
0.01
0.01
0.01
0.01
0.00
0.00
0.00
0.00
0.00
0.01
0.00
0.01
0.00
0.01
0.01
0.04
0.01
0.06
0.06
0.17
0.06
0.00
0.00
0.12
0.12
0.12
0.05
0.05
0.06
0.06
0.06
0.06
0.39
0.67
0.41
0.75
0.78
0.63
0.59
0.50
0.03
0.06
0.01
0.00
0.00
0.00
0.00
0.03
0.03
0.06
0.06
0.07
0.12
0.12
0.09
0.12
0.16
0.16
0.16
0.17
0.17
0.17
0.17
0.16
0.15
0.06
0.06
0.00
0.01
0.00
0.01
0.03
0.03
0.00
0.00
0.00
0.01
0.00
0.00
0.00
0.00
0.01
0.00
0.00
0.00
0.01
0.00
0.01
0.01
0.01
0.00
0.01
0.00
0.00
0.01
0.01
0.00
0.01
0.01
0.01
0.01
0.03
0.03
0.03
0.05
0.03
0.05
0.09
0.09
0.05
0.03
0.06
0.03
0.01
0.03
0.01
0.01
0.00
0.03
0.06
0.07
0.00
0.00
0.09
0.12
0.19
0.15
0.19
0.15
0.19
0.15
0.29
0.04
0.40
0.75
0.62
0.66
0.64
0.64
0.58
0.24
0.12
0.05
0.03
0.01
0.00
0.01
0.00
0.00
0.00
0.00
0.03
0.06
0.07
0.09
0.14
0.14
0.15
0.16
0.17
0.19
0.19
0.19
0.19
0.17
0.17
0.12
0.07
0.01
0.00
0.01
0.01
0.01
0.01
0.01
0.00
0.01
0.01
0.01
0.00
0.00
0.03
0.00
0.00
0.00
0.03
0.00
0.06
0.03
0.06
0.03
0.00
0.00
0.03
0.03
0.00
0.03
0.00
0.00
0.00
0.00
0.00
0.00
0.00
0.01
0.01
0.01
0.00
0.01
0.01
0.01
0.01
0.01
0.01
0.00
0.07
0.00
0.14
0.09
0.19
0.09
0.03
0.00
0.09
0.12
0.09
0.06
0.06
0.09
0.09
0.09
0.00
0.46
0.75
0.57
0.81
0.79
0.64
0.57
0.36
0.01
0.01
0.00
0.00
0.03
0.03
0.06
0.07
0.09
0.14
0.14
0.15
0.17
0.17
0.20
0.25
0.29
0.31
0.40
0.40
0.44
0.45
0.44
0.40
0.39
0.25
0.20
0.15
0.04
0.01
0.00
0.00
0.00
0.01
0.01
0.01
0.00
0.00
0.00
0.03
0.00
0.00
0.00
0.00
0.03
0.04
0.06
0.04
0.04
0.03
0.07
0.06
0.06
0.03
0.03
0.00
0.00
0.01
0.01
0.00
0.00
0.01
0.01
0.01
0.01
0.03
0.05
0.06
0.05
0.05
0.05
0.05
0.05
0.06
0.06
0.06
0.05
0.01
0.00
0.01
0.00
0.06
0.06
0.01
0.00
0.12
0.19
0.15
0.12
0.09
0.09
0.12
0.09
0.09
0.14
0.50
0.79
0.64
0.81
0.66
0.63
0.57
0.12
0.12
0.06
0.03
0.00
0.00
0.00
0.01
0.00
0.03
0.03
0.04
0.07
0.09
0.12
0.15
0.16
0.17
0.17
0.19
0.20
0.23
0.23
0.20
0.19
0.17
0.14
0.04
0.01
0.01
0.06
0.05
0.06
0.03
0.01
0.00
0.00
0.01
0.00
0.01
0.01
0.00
0.01
0.01
0.01
0.01
0.00
0.01
0.00
0.00
0.00
0.00
0.00
0.00
0.01
0.00
0.01
0.01
0.01
0.00
0.00
0.00
0.00
0.01
0.01
0.01
0.05
0.05
0.06
0.09
0.05
0.12
0.09
0.12
0.12
0.09
0.12
0.12
0.12
0.00
0.06
0.01
0.00
0.07
0.01
0.03
0.12
0.32
0.29
0.29
0.19
0.15
0.29
0.12
0.19
0.09
0.27
0.71
0.53
0.75
0.73
0.63
0.58
0.42
0.15
0.12
0.06
0.03
0.01
0.01
0.01
0.01
0.01
0.01
0.01
0.03
0.00
0.03
0.04
0.04
0.06
0.09
0.07
0.07
0.12
0.09
0.07
0.09
0.03
0.03
0.00
0.00
0.05
0.05
0.06
0.06
0.01
0.01
0.00
0.00
0.00
0.00
0.00
0.00
0.01
0.01
0.00
0.01
0.00
0.00
0.00
0.00
0.00
0.00
0.01
0.00
0.00
0.00
0.01
0.01
0.01
0.01
0.05
0.01
0.06
0.05
0.03
0.06
0.06
0.12
0.15
0.12
0.09
0.12
0.09
0.09
0.01
0.01
0.00
0.00
0.07
0.07
0.00
0.01
0.15
0.15
0.15
0.12
0.24
0.15
0.15
0.12
0.29
0.07
0.47
0.76
0.64
0.66
0.63
0.62
0.57
0.19
0.12
0.09
0.06
0.01
0.01
0.00
0.01
0.01
0.00
0.01
0.01
0.00
0.00
0.03
0.00
0.04
0.04
0.07
0.12
0.12
0.14
0.09
0.09
0.07
0.07
0.06
0.00
0.00
0.00
0.01
0.01
0.01
0.01
0.00
0.01
0.00
0.01
0.01
0.01
0.00
0.01
0.01
0.01
0.00
0.00
0.01
0.01
0.01
0.01
0.01
0.01
0.01
0.00
0.01
0.00
0.01
0.01
0.00
0.01
0.01
0.01
0.00
0.01
0.01
0.01
0.01
0.01
0.01
0.01
0.01
0.00
0.00
0.00
0.00
0.07
0.15
0.16
0.03
0.00
0.03
0.12
0.12
0.09
0.09
0.06
0.09
0.06
0.06
0.06
0.50
0.78
0.64
0.78
0.67
0.63
0.57
0.12
0.05
0.01
0.00
0.01
0.00
0.03
0.04
0.06
0.12
0.14
0.14
0.17
0.17
0.19
0.20
0.25
0.29
0.31
0.39
0.41
0.44
0.44
0.41
0.41
0.39
0.29
0.20
0.14
0.06
0.01
0.01
0.01
0.01
0.00
0.00
0.03
0.04
0.04
0.04
0.03
0.00
0.00
0.03
0.00
0.03
0.04
0.03
0.04
0.04
0.06
0.07
0.09
0.07
0.04
0.07
0.07
0.06
0.04
0.03
0.01
0.00
0.01
0.01
0.00
0.01
0.01
0.00
0.01
0.01
0.01
0.01
0.03
0.01
0.00
0.01
0.00
0.03
0.00
0.14
0.00
0.00
0.06
0.24
0.29
0.15
0.12
0.09
0.12
0.12
0.15
0.01
0.44
0.76
0.61
0.78
0.71
0.64
0.57
0.12
0.03
0.01
0.01
0.01
0.00
0.00
0.06
0.06
0.06
0.09
0.15
0.16
0.17
0.17
0.17
0.21
0.23
0.27
0.31
0.31
0.31
0.38
0.31
0.29
0.25
0.19
0.14
0.04
0.01
0.00
0.00
0.01
0.01
0.00
0.00
0.01
0.01
0.01
0.01
0.01
0.00
0.00
0.00
0.00
0.01
0.01
0.01
0.01
0.00
0.00
0.00
0.00
0.00
0.00
0.00
0.00
0.01
0.01
0.01
0.01
0.01
0.00
0.00
0.00
0.00
0.01
0.00
0.01
0.01
0.01
0.01
0.00
0.00
0.00
0.00
0.03
0.06
0.17
0.14
0.03
0.00
0.09
0.09
0.06
0.05
0.01
0.03
0.03
0.03
0.03
0.17
0.54
0.80
0.63
0.77
0.64
0.64
0.57
0.09
0.09
0.01
0.01
0.01
0.00
0.00
0.00
0.00
0.03
0.03
0.04
0.00
0.06
0.04
0.07
0.07
0.12
0.12
0.15
0.14
0.14
0.15
0.14
0.09
0.04
0.00
0.01
0.01
0.06
0.06
0.12
0.09
0.06
0.03
0.01
0.01
0.01
0.01
0.00
0.03
0.01
0.03
0.03
0.03
0.03
0.00
0.00
0.00
0.01
0.00
0.00
0.00
0.00
0.00
0.00
0.00
0.01
0.01
0.00
0.00
0.00
0.00
0.00
0.00
0.00
0.01
0.01
0.01
0.01
0.01
0.01
0.00
0.00
0.00
0.00
0.16
0.12
0.00
0.01
0.12
0.19
0.12
0.06
0.12
0.12
0.15
0.12
0.32
0.12
0.48
0.76
0.64
0.66
0.62
0.62
0.57
0.19
0.34
0.19
0.12
0.05
0.05
0.01
0.00
0.01
0.00
0.00
0.00
0.00
0.03
0.00
0.04
0.06
0.09
0.06
0.09
0.09
0.09
0.12
0.07
0.06
0.03
0.03
0.00
0.00
0.01
0.01
0.01
0.01
0.01
0.01
0.00
0.01
0.00
0.01
0.01
0.00
0.01
0.00
0.00
0.00
0.00
0.00
0.00
0.00
0.01
0.00
0.01
0.01
0.01
0.01
0.01
0.01
0.01
0.01
0.01
0.01
0.03
0.03
0.06
0.01
0.03
0.03
0.05
0.03
0.09
0.05
0.01
0.01
0.00
0.03
0.00
0.14
0.03
0.01
0.01
0.19
0.24
0.12
0.09
0.09
0.12
0.12
0.12
0.12
0.31
0.68
0.20
0.74
0.77
0.64
0.59
0.47
0.01
0.01
0.00
0.01
0.00
0.03
0.03
0.06
0.07
0.07
0.09
0.12
0.15
0.16
0.17
0.19
0.21
0.25
0.27
0.31
0.34
0.34
0.34
0.38
0.27
0.23
0.17
0.12
0.03
0.00
0.00
0.01
0.01
0.01
0.00
0.01
0.01
0.01
0.00
0.01
0.00
0.00
0.01
0.00
0.00
0.00
0.00
0.03
0.00
0.04
0.03
0.00
0.00
0.04
0.00
0.03
0.00
0.01
0.01
0.00
0.01
0.01
0.01
0.01
0.01
0.01
0.01
0.01
0.01
0.00
0.01
0.01
0.00
0.07
0.03
0.14
0.12
0.19
0.07
0.01
0.01
0.12
0.12
0.09
0.09
0.09
0.09
0.09
0.12
0.01
0.41
0.72
0.54
0.77
0.77
0.64
0.57
0.34
0.03
0.01
0.01
0.01
0.00
0.03
0.04
0.06
0.07
0.14
0.12
0.16
0.17
0.17
0.20
0.21
0.23
0.29
0.27
0.34
0.34
0.34
0.31
0.31
0.27
0.20
0.17
0.12
0.00
0.01
0.01
0.01
0.03
0.01
0.00
0.00
0.00
0.00
0.00
0.00
0.00
0.00
0.00
0.01
0.01
0.00
0.01
0.01
0.00
0.00
0.00
0.00
0.00
0.00
0.00
0.00
0.01
0.01
0.01
0.00
0.00
0.00
0.01
0.01
0.01
0.01
0.03
0.03
0.05
0.05
0.05
0.06
0.05
0.01
0.00
0.00
0.00
0.00
0.15
0.04
0.00
0.01
0.29
0.24
0.29
0.12
0.15
0.15
0.24
0.19
0.32
0.17
0.56
0.68
0.68
0.78
0.63
0.63
0.57
0.19
0.32
0.19
0.06
0.06
0.05
0.03
0.01
0.01
0.00
0.00
0.01
0.00
0.01
0.00
0.01
0.00
0.00
0.03
0.04
0.07
0.04
0.07
0.06
0.04
0.03
0.00
0.00
0.01
0.01
0.03
0.06
0.03
0.01
0.00
0.01
0.01
0.00
0.01
0.00
0.00
0.01
0.01
0.01
0.01
0.01
0.01
0.01
0.01
0.01
0.01
0.01
0.01
0.01
0.01
0.00
0.00
0.00
0.00
0.01
0.00
0.01
0.01
0.01
0.01
0.01
0.01
0.05
0.03
0.03
0.01
0.00
0.00
0.00
0.01
0.07
0.09
0.00
0.00
0.12
0.19
0.12
0.15
0.15
0.12
0.15
0.12
0.15
0.00
0.27
0.74
0.55
0.66
0.63
0.64
0.59
0.40
0.15
0.12
0.06
0.00
0.00
0.00
0.00
0.01
0.01
0.00
0.03
0.04
0.06
0.04
0.07
0.07
0.07
0.14
0.14
0.14
0.15
0.15
0.14
0.14
0.12
0.07
0.06
0.03
0.01
0.00
0.00
0.00
0.00
0.01
0.01
0.01
0.01
0.01
0.01
0.01
0.03
0.00
0.00
0.00
0.00
0.00
0.03
0.00
0.03
0.00
0.03
0.03
0.00
0.00
0.00
0.01
0.00
0.01
0.01
0.01
0.01
0.01
0.01
0.01
0.00
0.00
0.00
0.00
0.00
0.00
0.04
0.01
0.12
0.07
0.17
0.07
0.03
0.00
0.12
0.12
0.06
0.05
0.03
0.06
0.05
0.09
0.01
0.44
0.72
0.36
0.77
0.77
0.64
0.58
0.39
0.01
0.01
0.00
0.00
0.03
0.07
0.07
0.09
0.14
0.15
0.17
0.17
0.19
0.21
0.25
0.27
0.34
0.38
0.40
0.44
0.45
0.45
0.44
0.46
0.41
0.34
0.27
0.17
0.09
0.04
0.03
0.00
0.03
0.03
0.04
0.06
0.06
0.06
0.07
0.04
0.06
0.07
0.06
0.06
0.07
0.06
0.06
0.09
0.07
0.07
0.07
0.04
0.06
0.06
0.04
0.00
0.03
0.00
0.00
0.00
0.00
0.01
0.00
0.01
0.00
0.01
0.01
0.01
0.00
0.00
0.01
0.00
0.00
0.01
0.00
0.01
0.03
0.06
0.09
0.01
0.01
0.15
0.32
0.29
0.24
0.15
0.19
0.19
0.19
0.24
0.00
0.44
0.77
0.64
0.81
0.69
0.64
0.58
0.32
0.12
0.12
0.05
0.01
0.01
0.01
0.00
0.00
0.03
0.06
0.07
0.12
0.14
0.15
0.17
0.17
0.20
0.20
0.23
0.25
0.29
0.27
0.23
0.23
0.20
0.17
0.12
0.04
0.00
0.03
0.03
0.06
0.03
0.01
0.01
0.01
0.00
0.01
0.01
0.01
0.00
0.01
0.01
0.00
0.00
0.01
0.01
0.00
0.01
0.01
0.01
0.01
0.00
0.01
0.01
0.01
0.01
0.00
0.00
0.00
0.01
0.01
0.01
0.01
0.01
0.01
0.01
0.01
0.01
0.01
0.03
0.03
0.03
0.01
0.01
0.01
0.00
0.00
0.07
0.09
0.01
0.00
0.12
0.24
0.19
0.15
0.12
0.12
0.12
0.12
0.12
0.09
0.47
0.79
0.63
0.77
0.64
0.63
0.58
0.15
0.19
0.09
0.05
0.05
0.01
0.00
0.00
0.01
0.01
0.00
0.01
0.03
0.06
0.03
0.06
0.06
0.07
0.12
0.09
0.09
0.09
0.06
0.03
0.04
0.03
0.01
0.01
0.01
0.03
0.03
0.01
0.01
0.01
0.00
0.00
0.00
0.00
0.01
0.00
0.00
0.01
0.01
0.00
0.00
0.00
0.00
0.01
0.00
0.01
0.01
0.01
0.03
0.03
0.03
0.03
0.06
0.06
0.09
0.12
0.06
0.09
0.12
0.09
0.09
0.12
0.12
0.09
0.09
0.09
0.12
0.09
0.00
0.03
0.00
0.00
0.07
0.00
0.00
0.03
0.24
0.24
0.19
0.15
0.15
0.15
0.12
0.24
0.32
0.15
0.64
0.50
0.64
0.64
0.63
0.60
0.54
0.12
0.12
0.09
0.03
0.03
0.01
0.01
0.01
0.00
0.00
0.00
0.01
0.00
0.00
0.00
0.00
0.00
0.04
0.07
0.07
0.07
0.07
0.04
0.07
0.06
0.04
0.00
0.00
0.03
0.05
0.05
0.03
0.03
0.01
0.01
0.00
0.00
0.00
0.01
0.01
0.00
0.01
0.01
0.01
0.01
0.00
0.01
0.00
0.00
0.00
0.00
0.00
0.01
0.00
0.00
0.00
0.00
0.01
0.00
0.00
0.00
0.01
0.00
0.01
0.01
0.01
0.01
0.01
0.01
0.00
0.01
0.04
0.06
0.04
0.15
0.15
0.17
0.07
0.03
0.01
0.09
0.12
0.09
0.06
0.05
0.06
0.06
0.06
0.00
0.45
0.77
0.62
0.77
0.69
0.63
0.58
0.06
0.00
0.00
0.03
0.04
0.06
0.09
0.15
0.15
0.16
0.16
0.16
0.17
0.19
0.23
0.23
0.25
0.29
0.34
0.39
0.41
0.44
0.44
0.41
0.41
0.39
0.34
0.23
0.17
0.09
0.03
0.00
0.00
0.03
0.00
0.00
0.04
0.04
0.06
0.06
0.03
0.06
0.04
0.06
0.06
0.06
0.04
0.06
0.06
0.06
0.06
0.07
0.06
0.04
0.06
0.03
0.06
0.04
0.03
0.00
0.03
0.00
0.00
0.00
0.01
0.00
0.01
0.00
0.00
0.00
0.00
0.00
0.06
0.06
0.07
0.12
0.17
0.16
0.06
0.04
0.01
0.09
0.05
0.06
0.03
0.03
0.01
0.01
0.01
0.17
0.60
0.81
0.64
0.77
0.65
0.64
0.55
0.03
0.00
0.00
0.00
0.03
0.07
0.09
0.09
0.14
0.15
0.16
0.16
0.17
0.19
0.20
0.21
0.21
0.27
0.27
0.29
0.34
0.38
0.31
0.31
0.31
0.25
0.21
0.17
0.14
0.00
0.01
0.01
0.00
0.01
0.00
0.00
0.00
0.00
0.03
0.00
0.00
0.01
0.00
0.00
0.00
0.00
0.01
0.00
0.01
0.00
0.00
0.03
0.00
0.00
0.01
0.01
0.01
0.01
0.01
0.00
0.00
0.00
0.00
0.01
0.00
0.00
0.01
0.00
0.01
0.03
0.01
0.01
0.00
0.00
0.03
0.04
0.14
0.03
0.01
0.05
0.12
0.19
0.12
0.12
0.12
0.12
0.06
0.12
0.09
0.38
0.75
0.54
0.69
0.66
0.63
0.58
0.32
0.12
0.05
0.03
0.01
0.00
0.00
0.01
0.01
0.01
0.00
0.00
0.01
0.00
0.00
0.03
0.03
0.06
0.03
0.06
0.04
0.06
0.04
0.04
0.03
0.00
0.00
0.00
0.01
0.03
0.06
0.06
0.01
0.01
0.01
0.00
0.00
0.01
0.01
0.00
0.00
0.01
0.01
0.00
0.00
0.00
0.00
0.00
0.01
0.00
0.01
0.00
0.00
0.01
0.03
0.01
0.01
0.01
0.01
0.05
0.05
0.03
0.01
0.01
0.03
0.05
0.03
0.03
0.01
0.00
0.01
0.00
0.03
0.07
0.14
0.03
0.00
0.01
0.09
0.12
0.06
0.05
0.06
0.05
0.06
0.09
0.00
0.27
0.72
0.01
0.64
0.64
0.63
0.59
0.44
0.03
0.03
0.03
0.01
0.01
0.01
0.01
0.00
0.03
0.03
0.04
0.06
0.09
0.12
0.12
0.15
0.16
0.17
0.17
0.17
0.17
0.19
0.17
0.17
0.17
0.16
0.14
0.06
0.04
0.00
0.01
0.01
0.01
0.00
0.00
0.00
0.00
0.00
0.00
0.01
0.00
0.00
0.00
0.00
0.00
0.00
0.00
0.00
0.00
0.00
0.01
0.01
0.01
0.01
0.01
0.01
0.00
0.00
0.00
0.00
0.00
0.00
0.00
0.01
0.00
0.00
0.01
0.00
0.01
0.00
0.00
0.09
0.07
0.19
0.12
0.00
0.01
0.03
0.09
0.05
0.01
0.01
0.03
0.01
0.01
0.03
0.34
0.69
0.70
0.75
0.81
0.64
0.61
0.50
0.01
0.00
0.01
0.00
0.04
0.06
0.04
0.07
0.12
0.12
0.12
0.16
0.15
0.19
0.20
0.23
0.25
0.31
0.38
0.41
0.45
0.46
0.46
0.44
0.41
0.40
0.29
0.20
0.15
0.06
0.03
0.03
0.00
0.03
0.06
0.06
0.06
0.07
0.09
0.07
0.07
0.07
0.06
0.07
0.07
0.09
0.07
0.09
0.06
0.07
0.07
0.07
0.06
0.04
0.03
0.03
0.00
0.00
0.00
0.01
0.00
0.01
0.00
0.00
0.00
0.00
0.01
0.01
0.06
0.00
0.07
0.09
0.19
0.15
0.03
0.00
0.05
0.06
0.06
0.01
0.01
0.05
0.01
0.03
0.06
0.31
0.66
0.64
0.76
0.82
0.63
0.61
0.50
0.01
0.01
0.00
0.01
0.00
0.04
0.06
0.07
0.12
0.09
0.12
0.15
0.17
0.17
0.17
0.17
0.21
0.25
0.27
0.31
0.31
0.31
0.27
0.27
0.23
0.17
0.16
0.07
0.00
0.00
0.00
0.00
0.00
0.00
0.01
0.00
0.01
0.01
0.01
0.00
0.00
0.00
0.00
0.00
0.01
0.01
0.01
0.01
0.01
0.00
0.00
0.01
0.00
0.00
0.01
0.00
0.01
0.00
0.01
0.00
0.01
0.01
0.01
0.01
0.01
0.01
0.01
0.01
0.01
0.00
0.00
0.00
0.04
0.01
0.07
0.09
0.15
0.06
0.01
0.03
0.15
0.12
0.12
0.12
0.12
0.09
0.09
0.12
0.01
0.40
0.76
0.57
0.75
0.69
0.63
0.57
0.34
0.09
0.03
0.01
0.01
0.00
0.00
0.00
0.00
0.03
0.00
0.04
0.04
0.07
0.12
0.07
0.07
0.09
0.07
0.12
0.14
0.09
0.09
0.06
0.06
0.04
0.04
0.01
0.01
0.01
0.01
0.05
0.01
0.01
0.01
0.01
0.00
0.01
0.01
0.00
0.00
0.00
0.01
0.00
0.00
0.00
0.00
0.00
0.00
0.00
0.00
0.00
0.01
0.01
0.00
0.01
0.01
0.00
0.00
0.00
0.01
0.00
0.00
0.00
0.00
0.00
0.01
0.01
0.00
0.00
0.03
0.01
0.06
0.06
0.17
0.12
0.00
0.01
0.06
0.09
0.09
0.05
0.05
0.12
0.12
0.12
0.32
0.17
0.67
0.66
0.63
0.65
0.63
0.60
0.55
0.06
0.12
0.05
0.01
0.00
0.01
0.01
0.01
0.00
0.00
0.03
0.03
0.00
0.06
0.03
0.07
0.09
0.12
0.14
0.12
0.15
0.15
0.15
0.16
0.16
0.14
0.09
0.07
0.03
0.01
0.01
0.01
0.01
0.01
0.00
0.00
0.00
0.03
0.00
0.00
0.00
0.03
0.00
0.03
0.03
0.00
0.03
0.00
0.00
0.00
0.00
0.01
0.01
0.01
0.01
0.00
0.00
0.00
0.00
0.00
0.00
0.01
0.00
0.01
0.01
0.01
0.01
0.04
0.09
0.06
0.15
0.12
0.20
0.14
0.04
0.01
0.06
0.09
0.05
0.03
0.05
0.06
0.06
0.05
0.06
0.34
0.69
0.50
0.76
0.81
0.64
0.62
0.54
0.03
0.05
0.00
0.01
0.00
0.00
0.03
0.04
0.07
0.09
0.09
0.15
0.16
0.17
0.17
0.20
0.25
0.27
0.31
0.38
0.40
0.39
0.40
0.38
0.31
0.23
0.19
0.12
0.03
0.01
0.01
0.01
0.01
0.01
0.00
0.00
0.00
0.00
0.00
0.00
0.01
0.00
0.01
0.01
0.00
0.00
0.00
0.01
0.00
0.01
0.01
0.01
0.01
0.00
0.01
0.01
0.01
0.01
0.01
0.00
0.01
0.00
0.00
0.00
0.00
0.00
0.00
0.00
0.01
0.07
0.00
0.12
0.07
0.17
0.12
0.04
0.01
0.06
0.09
0.06
0.03
0.03
0.05
0.05
0.05
0.06
0.39
0.69
0.21
0.78
0.82
0.64
0.60
0.48
0.01
0.01
0.00
0.00
0.01
0.00
0.00
0.06
0.06
0.07
0.09
0.12
0.15
0.17
0.17
0.17
0.19
0.20
0.25
0.29
0.29
0.29
0.25
0.23
0.23
0.19
0.17
0.09
0.00
0.00
0.01
0.01
0.00
0.00
0.00
0.01
0.00
0.01
0.00
0.01
0.01
0.00
0.00
0.00
0.00
0.01
0.01
0.00
0.00
0.00
0.03
0.04
0.03
0.03
0.00
0.03
0.00
0.03
0.01
0.00
0.00
0.01
0.01
0.01
0.01
0.01
0.01
0.01
0.01
0.00
0.04
0.03
0.06
0.06
0.17
0.14
0.00
0.01
0.09
0.12
0.12
0.05
0.09
0.12
0.12
0.12
0.12
0.09
0.51
0.80
0.63
0.77
0.66
0.63
0.58
0.24
0.12
0.12
0.03
0.01
0.00
0.01
0.00
0.00
0.01
0.01
0.01
0.01
0.00
0.00
0.06
0.04
0.06
0.07
0.09
0.09
0.07
0.09
0.07
0.06
0.03
0.00
0.00
0.00
0.01
0.05
0.03
0.09
0.01
0.03
0.00
0.01
0.00
0.01
0.00
0.01
0.00
0.00
0.00
0.01
0.00
0.00
0.00
0.00
0.00
0.00
0.00
0.00
0.00
0.00
0.00
0.00
0.01
0.01
0.01
0.01
0.01
0.01
0.05
0.01
0.01
0.01
0.01
0.01
0.01
0.00
0.01
0.01
0.04
0.06
0.01
0.01
0.12
0.32
0.29
0.24
0.32
0.32
0.32
0.34
0.34
0.01
0.20
0.72
0.57
0.67
0.64
0.64
0.60
0.45
0.32
0.15
0.15
0.09
0.05
0.05
0.01
0.03
0.00
0.00
0.01
0.00
0.01
0.01
0.00
0.00
0.03
0.03
0.04
0.04
0.09
0.07
0.04
0.06
0.04
0.00
0.01
0.01
0.03
0.12
0.09
0.09
0.05
0.05
0.06
0.05
0.05
0.01
0.01
0.00
0.01
0.01
0.01
0.03
0.01
0.01
0.01
0.01
0.01
0.01
0.03
0.03
0.03
0.05
0.03
0.05
0.05
0.05
0.05
0.06
0.06
0.06
0.05
0.05
0.06
0.03
0.00
0.01
0.01
0.01
0.06
0.00
0.01
0.01
0.24
0.29
0.29
0.19
0.29
0.24
0.24
0.19
0.29
0.16
0.60
0.74
0.67
0.79
0.66
0.64
0.57
0.15
0.12
0.05
0.01
0.01
0.00
0.00
0.01
0.03
0.04
0.07
0.07
0.14
0.16
0.17
0.20
0.23
0.27
0.34
0.40
0.44
0.44
0.44
0.41
0.39
0.34
0.25
0.17
0.09
0.04
0.01
0.01
0.01
0.00
0.01
0.01
0.01
0.00
0.00
0.00
0.01
0.00
0.01
0.01
0.00
0.00
0.00
0.00
0.03
0.00
0.00
0.00
0.00
0.00
0.01
0.01
0.01
0.01
0.00
0.00
0.01
0.00
0.00
0.01
0.01
0.01
0.01
0.01
0.01
0.01
0.00
0.03
0.04
0.14
0.00
0.00
0.09
0.24
0.24
0.19
0.12
0.12
0.19
0.15
0.19
0.01
0.44
0.76
0.64
0.82
0.78
0.66
0.57
0.36
0.12
0.12
0.03
0.01
0.01
0.01
0.00
0.00
0.00
0.00
0.06
0.09
0.12
0.14
0.16
0.17
0.20
0.23
0.25
0.31
0.29
0.27
0.29
0.27
0.23
0.19
0.15
0.03
0.00
0.00
0.01
0.00
0.01
0.00
0.01
0.01
0.00
0.00
0.01
0.01
0.01
0.01
0.01
0.01
0.01
0.01
0.01
0.00
0.00
0.00
0.00
0.00
0.00
0.00
0.01
0.01
0.01
0.00
0.00
0.01
0.01
0.03
0.01
0.05
0.06
0.06
0.09
0.06
0.05
0.00
0.06
0.00
0.01
0.06
0.01
0.03
0.12
0.32
0.32
0.24
0.19
0.15
0.24
0.12
0.15
0.09
0.38
0.72
0.54
0.82
0.78
0.66
0.57
0.43
0.12
0.12
0.03
0.01
0.00
0.01
0.01
0.00
0.00
0.04
0.04
0.07
0.07
0.12
0.14
0.16
0.16
0.17
0.17
0.19
0.20
0.19
0.20
0.17
0.17
0.15
0.09
0.00
0.00
0.01
0.01
0.01
0.01
0.01
0.01
0.00
0.00
0.00
0.00
0.01
0.00
0.00
0.00
0.00
0.00
0.00
0.01
0.00
0.01
0.01
0.01
0.00
0.00
0.01
0.01
0.01
0.01
0.05
0.05
0.06
0.09
0.09
0.09
0.12
0.05
0.09
0.09
0.12
0.06
0.06
0.06
0.01
0.00
0.01
0.01
0.04
0.06
0.00
0.01
0.19
0.34
0.29
0.19
0.15
0.24
0.32
0.32
0.29
0.00
0.39
0.78
0.63
0.76
0.64
0.63
0.57
0.34
0.36
0.24
0.15
0.06
0.06
0.05
0.05
0.01
0.00
0.00
0.01
0.00
0.00
0.00
0.04
0.06
0.06
0.04
0.07
0.06
0.06
0.06
0.04
0.00
0.01
0.01
0.01
0.01
0.06
0.09
0.09
0.01
0.05
0.03
0.01
0.01
0.01
0.01
0.01
0.00
0.00
0.01
0.00
0.00
0.00
0.01
0.00
0.00
0.00
0.00
0.01
0.00
0.01
0.01
0.03
0.05
0.01
0.01
0.06
0.06
0.06
0.06
0.03
0.05
0.01
0.03
0.01
0.00
0.01
0.00
0.03
0.04
0.14
0.04
0.00
0.00
0.12
0.12
0.12
0.12
0.12
0.12
0.12
0.15
0.12
0.17
0.68
0.01
0.66
0.64
0.63
0.61
0.50
0.12
0.12
0.09
0.03
0.05
0.00
0.01
0.01
0.01
0.01
0.00
0.00
0.00
0.06
0.03
0.07
0.12
0.12
0.16
0.16
0.16
0.15
0.15
0.16
0.16
0.14
0.09
0.04
0.01
0.00
0.00
0.01
0.01
0.01
0.00
0.01
0.00
0.01
0.01
0.00
0.00
0.00
0.00
0.00
0.00
0.00
0.00
0.00
0.01
0.03
0.09
0.17
0.14
0.01
0.03
0.54
0.58
0.65
0.64
0.57
0.54
0.47
0.17
0.04
0.49
0.58
0.57
0.32
0.06
0.07
0.07
0.17
0.16
0.09
0.09
0.00
0.00
0.01
0.00
0.00
0.01
0.00
0.04
0.12
0.17
0.21
0.34
0.46
0.54
0.63
0.64
0.66
0.66
0.63
0.50
0.44
0.29
0.20
0.17
0.14
0.12
0.07
0.07
0.09
0.07
0.09
0.09
0.07
0.09
0.07
0.07
0.07
0.06
0.04
0.06
0.04
0.04
0.00
0.00
0.00
0.00
0.01
0.00
0.00
0.01
0.01
0.01
0.01
0.01
0.01
0.01
0.00
0.00
0.00
0.00
0.01
0.00
0.01
0.00
0.00
0.01
0.01
0.01
0.01
0.00
0.00
0.00
0.01
0.01
0.00
0.00
0.00
0.00
0.01
0.00
0.00
0.00
0.00
0.00
0.01
0.00
0.00
0.00
0.00
0.00
0.01
0.06
0.03
0.15
0.04
0.01
0.01
0.12
0.15
0.15
0.12
0.09
0.12
0.12
0.12
0.05
0.39
0.74
0.57
0.79
0.81
0.65
0.57
0.39
0.05
0.01
0.01
0.00
0.03
0.06
0.12
0.14
0.16
0.17
0.19
0.20
0.23
0.31
0.34
0.38
0.41
0.46
0.48
0.50
0.56
0.59
0.60
0.60
0.60
0.60
0.54
0.41
0.25
0.15
0.07
0.03
0.00
0.01
0.00
0.01
0.00
0.04
0.04
0.03
0.03
0.00
0.00
0.04
0.04
0.04
0.04
0.03
0.07
0.07
0.07
0.09
0.06
0.04
0.01
0.42
0.54
0.57
0.40
0.70
0.95
1.00
1.00
1.00
1.00
1.00
0.98
0.99
1.00
0.99
0.93
0.81
0.01
0.49
0.57
0.58
0.60
0.61
0.62
0.65
0.64
0.64
0.63
0.64
0.66
0.67
0.76
0.81
0.82
0.84
0.86
0.86
0.86
0.86
0.86
0.85
0.82
0.75
0.64
0.65
0.58
0.54
0.45
0.36
0.24
0.12
0.12
0.12
0.12
0.09
0.05
0.05
0.03
0.06
0.05
0.05
0.01
0.01
0.03
0.05
0.01
0.03
0.01
0.01
0.01
0.03
0.05
0.00
0.01
0.03
0.01
0.03
0.06
0.05
0.05
0.03
0.06
0.06
0.09
0.09
0.06
0.06
0.09
0.09
0.12
0.09
0.09
0.15
0.09
0.06
0.09
0.09
0.06
0.09
0.09
0.06
0.12
0.09
0.09
0.05
0.01
0.01
0.00
0.00
0.14
0.00
0.00
0.01
0.24
0.19
0.29
0.19
0.24
0.29
0.29
0.32
0.36
0.07
0.51
0.66
0.63
0.68
0.63
0.62
0.58
0.19
0.19
0.12
0.05
0.01
0.00
0.01
0.01
0.01
0.00
0.00
0.00
0.04
0.04
0.06
0.12
0.12
0.16
0.17
0.19
0.20
0.29
0.38
0.40
0.40
0.44
0.41
0.39
0.25
0.17
0.06
0.01
0.01
0.01
0.01
0.03
0.01
0.01
0.01
0.01
0.01
0.00
0.00
0.00
0.00
0.00
0.00
0.00
0.01
0.01
0.00
0.00
0.00
0.01
0.00
0.00
0.00
0.01
0.00
0.00
0.00
0.00
0.01
0.00
0.04
0.00
0.09
0.12
0.17
0.07
0.03
0.00
0.06
0.09
0.06
0.06
0.05
0.05
0.06
0.06
0.06
0.40
0.74
0.12
0.79
0.81
0.66
0.61
0.49
0.00
0.00
0.01
0.00
0.03
0.04
0.06
0.07
0.12
0.14
0.16
0.16
0.19
0.21
0.25
0.27
0.38
0.40
0.45
0.49
0.50
0.54
0.54
0.51
0.49
0.45
0.34
0.19
0.12
0.00
0.01
0.00
0.00
0.00
0.01
0.00
0.01
0.00
0.01
0.01
0.00
0.00
0.01
0.01
0.00
0.01
0.01
0.00
0.01
0.01
0.01
0.00
0.00
0.01
0.00
0.01
0.01
0.01
0.01
0.01
0.01
0.01
0.01
0.04
0.06
0.04
0.14
0.17
0.17
0.07
0.00
0.03
0.09
0.06
0.05
0.06
0.06
0.06
0.06
0.06
0.00
0.46
0.76
0.59
0.82
0.82
0.66
0.57
0.36
0.06
0.05
0.00
0.01
0.01
0.00
0.00
0.03
0.04
0.07
0.07
0.12
0.12
0.16
0.17
0.19
0.21
0.23
0.29
0.29
0.34
0.34
0.34
0.27
0.21
0.17
0.14
0.04
0.01
0.01
0.05
0.05
0.01
0.01
0.00
0.01
0.01
0.01
0.01
0.01
0.01
0.01
0.01
0.01
0.00
0.00
0.04
0.00
0.01
0.19
0.19
0.50
0.54
0.09
0.88
0.96
1.00
1.00
0.99
0.96
0.96
0.99
0.99
0.95
0.78
0.45
0.00
0.42
0.50
0.50
0.56
0.54
0.57
0.58
0.59
0.62
0.65
0.64
0.63
0.64
0.63
0.65
0.67
0.74
0.77
0.78
0.79
0.77
0.75
0.66
0.63
0.65
0.59
0.55
0.46
0.39
0.24
0.12
0.12
0.12
0.09
0.06
0.06
0.06
0.05
0.06
0.05
0.05
0.05
0.06
0.06
0.09
0.06
0.06
0.06
0.06
0.09
0.12
0.12
0.06
0.06
0.06
0.12
0.12
0.12
0.09
0.09
0.12
0.12
0.15
0.12
0.12
0.12
0.12
0.09
0.12
0.06
0.12
0.06
0.09
0.06
0.06
0.12
0.12
0.06
0.06
0.06
0.09
0.09
0.12
0.06
0.05
0.06
0.12
0.12
0.15
0.12
0.12
0.12
0.12
0.19
0.15
0.09
0.06
0.01
0.06
0.00
0.01
0.09
0.01
0.00
0.05
0.29
0.29
0.24
0.15
0.19
0.24
0.34
0.32
0.19
0.17
0.67
0.19
0.66
0.66
0.63
0.60
0.50
0.19
0.19
0.15
0.05
0.01
0.01
0.01
0.01
0.01
0.01
0.00
0.00
0.03
0.04
0.04
0.07
0.12
0.14
0.16
0.15
0.16
0.21
0.20
0.23
0.25
0.25
0.23
0.19
0.15
0.00
0.00
0.05
0.12
0.19
0.12
0.06
0.12
0.09
0.06
0.06
0.05
0.06
0.05
0.05
0.05
0.06
0.03
0.03
0.01
0.01
0.05
0.03
0.01
0.01
0.05
0.01
0.12
0.46
0.54
0.58
0.44
0.64
0.94
1.00
1.00
1.00
1.00
0.98
0.96
0.96
1.00
0.96
0.88
0.69
0.34
0.55
0.58
0.59
0.61
0.62
0.64
0.65
0.63
0.64
0.63
0.64
0.67
0.74
0.77
0.82
0.84
0.85
0.86
0.86
0.86
0.86
0.86
0.84
0.81
0.67
0.63
0.62
0.57
0.54
0.45
0.42
0.34
0.29
0.24
0.19
0.12
0.15
0.12
0.12
0.12
0.09
0.09
0.09
0.12
0.06
0.05
0.03
0.03
0.03
0.03
0.01
0.01
0.03
0.01
0.01
0.01
0.01
0.01
0.00
0.01
0.01
0.01
0.01
0.01
0.01
0.01
0.01
0.01
0.03
0.03
0.03
0.05
0.05
0.05
0.06
0.05
0.03
0.03
0.06
0.00
0.00
0.01
0.07
0.09
0.14
0.03
0.00
0.01
0.12
0.15
0.15
0.12
0.12
0.15
0.12
0.15
0.01
0.41
0.76
0.62
0.82
0.82
0.67
0.57
0.42
0.09
0.06
0.01
0.00
0.01
0.00
0.04
0.06
0.12
0.15
0.15
0.17
0.20
0.23
0.29
0.29
0.39
0.44
0.47
0.51
0.56
0.61
0.62
0.61
0.60
0.59
0.54
0.38
0.20
0.14
0.00
0.01
0.01
0.00
0.01
0.01
0.00
0.01
0.01
0.00
0.01
0.00
0.00
0.00
0.01
0.01
0.01
0.00
0.01
0.00
0.00
0.00
0.00
0.03
0.00
0.00
0.03
0.00
0.00
0.00
0.01
0.00
0.06
0.04
0.07
0.09
0.17
0.17
0.06
0.00
0.06
0.12
0.15
0.09
0.12
0.12
0.12
0.12
0.15
0.01
0.44
0.74
0.59
0.82
0.81
0.65
0.57
0.39
0.09
0.06
0.01
0.01
0.01
0.01
0.01
0.00
0.03
0.03
0.07
0.09
0.09
0.15
0.14
0.17
0.19
0.20
0.20
0.23
0.23
0.19
0.20
0.19
0.17
0.16
0.04
0.01
0.01
0.03
0.03
0.03
0.01
0.01
0.00
0.01
0.00
0.01
0.00
0.01
0.01
0.00
0.00
0.01
0.01
0.00
0.01
0.00
0.01
0.00
0.01
0.01
0.01
0.00
0.01
0.01
0.00
0.00
0.01
0.09
0.01
0.16
0.07
0.44
0.16
0.55
0.61
0.24
0.54
0.86
0.91
0.96
0.95
0.97
0.91
0.82
0.17
0.00
0.12
0.34
0.42
0.43
0.44
0.47
0.50
0.50
0.54
0.55
0.57
0.58
0.59
0.59
0.62
0.64
0.64
0.63
0.63
0.63
0.65
0.64
0.60
0.57
0.55
0.47
0.34
0.12
0.03
0.01
0.00
0.01
0.00
0.00
0.00
0.00
0.01
0.00
0.00
0.00
0.00
0.01
0.00
0.01
0.01
0.01
0.01
0.01
0.01
0.01
0.00
0.00
0.01
0.01
0.00
0.01
0.01
0.01
0.01
0.01
0.03
0.01
0.05
0.01
0.03
0.05
0.05
0.03
0.05
0.03
0.05
0.05
0.03
0.03
0.06
0.05
0.05
0.05
0.03
0.05
0.05
0.05
0.03
0.05
0.05
0.06
0.01
0.00
0.01
0.00
0.00
0.09
0.12
0.03
0.00
0.01
0.06
0.09
0.05
0.12
0.12
0.12
0.12
0.15
0.04
0.44
0.70
0.64
0.66
0.64
0.64
0.58
0.29
0.12
0.01
0.00
0.01
0.00
0.03
0.04
0.06
0.09
0.12
0.14
0.15
0.15
0.17
0.17
0.20
0.20
0.23
0.27
0.29
0.34
0.40
0.40
0.41
0.41
0.39
0.29
0.17
0.09
0.00
0.01
0.01
0.01
0.01
0.01
0.01
0.00
0.01
0.00
0.01
0.00
0.00
0.00
0.03
0.03
0.04
0.06
0.04
0.06
0.06
0.07
0.06
0.04
0.04
0.04
0.06
0.00
0.40
0.54
0.55
0.05
0.80
0.96
1.00
1.00
1.00
1.00
1.00
0.98
0.99
1.00
0.96
0.86
0.68
0.40
0.54
0.57
0.59
0.60
0.62
0.64
0.64
0.63
0.64
0.63
0.64
0.66
0.75
0.78
0.82
0.84
0.86
0.86
0.86
0.86
0.86
0.86
0.84
0.82
0.68
0.63
0.62
0.58
0.53
0.43
0.34
0.24
0.12
0.09
0.09
0.09
0.06
0.06
0.06
0.03
0.05
0.05
0.05
0.03
0.05
0.03
0.03
0.03
0.01
0.03
0.03
0.01
0.03
0.03
0.01
0.03
0.03
0.05
0.03
0.03
0.01
0.01
0.03
0.05
0.03
0.01
0.03
0.03
0.03
0.01
0.03
0.03
0.03
0.03
0.01
0.05
0.03
0.05
0.01
0.03
0.03
0.01
0.00
0.00
0.03
0.06
0.14
0.16
0.00
0.00
0.05
0.12
0.12
0.09
0.06
0.09
0.09
0.06
0.05
0.03
0.48
0.81
0.63
0.82
0.69
0.64
0.56
0.12
0.05
0.01
0.01
0.00
0.04
0.04
0.07
0.09
0.15
0.15
0.17
0.17
0.17
0.21
0.25
0.27
0.31
0.38
0.39
0.44
0.45
0.46
0.46
0.44
0.41
0.39
0.25
0.16
0.04
0.01
0.00
0.01
0.03
0.01
0.00
0.01
0.00
0.01
0.01
0.00
0.00
0.00
0.01
0.01
0.01
0.01
0.01
0.01
0.01
0.00
0.00
0.01
0.01
0.01
0.01
0.00
0.01
0.00
0.00
0.01
0.00
0.01
0.00
0.00
0.00
0.04
0.14
0.17
0.04
0.01
0.03
0.15
0.12
0.15
0.05
0.09
0.09
0.12
0.12
0.06
0.39
0.72
0.43
0.76
0.69
0.63
0.58
0.43
0.15
0.12
0.05
0.01
0.01
0.01
0.00
0.00
0.01
0.01
0.01
0.01
0.03
0.00
0.04
0.07
0.07
0.07
0.07
0.09
0.12
0.09
0.07
0.06
0.03
0.00
0.01
0.01
0.01
0.01
0.03
0.01
0.01
0.00
0.00
0.00
0.00
0.01
0.00
0.00
0.01
0.01
0.01
0.01
0.00
0.01
0.00
0.00
0.01
0.01
0.00
0.00
0.01
0.01
0.00
0.00
0.00
0.00
0.00
0.00
0.00
0.00
0.00
0.01
0.01
0.01
0.01
0.01
0.00
0.01
0.03
0.07
0.12
0.03
0.00
0.05
0.12
0.24
0.12
0.15
0.12
0.19
0.15
0.24
0.03
0.25
0.69
0.55
0.73
0.66
0.63
0.61
0.46
0.12
0.09
0.03
0.00
0.00
0.01
0.00
0.00
0.00
0.03
0.03
0.06
0.09
0.14
0.15
0.16
0.16
0.19
0.21
0.23
0.27
0.25
0.25
0.23
0.21
0.17
0.17
0.09
0.00
0.01
0.00
0.01
0.01
0.00
0.01
0.01
0.01
0.01
0.01
0.01
0.00
0.00
0.01
0.01
0.01
0.01
0.01
0.01
0.01
0.01
0.00
0.01
0.01
0.01
0.01
0.01
0.01
0.01
0.01
0.01
0.01
0.01
0.01
0.00
0.01
0.01
0.00
0.00
0.00
0.00
0.00
0.12
0.04
0.16
0.17
0.19
0.14
0.06
0.01
0.05
0.03
0.03
0.01
0.01
0.03
0.01
0.03
0.01
0.49
0.72
0.42
0.82
0.82
0.65
0.59
0.39
0.00
0.00
0.00
0.06
0.07
0.07
0.12
0.14
0.16
0.17
0.17
0.19
0.20
0.23
0.27
0.34
0.34
0.39
0.41
0.44
0.45
0.46
0.45
0.44
0.39
0.29
0.19
0.16
0.07
0.03
0.01
0.01
0.01
0.03
0.03
0.03
0.03
0.04
0.03
0.06
0.03
0.03
0.03
0.04
0.06
0.07
0.07
0.06
0.09
0.12
0.12
0.12
0.12
0.14
0.12
0.14
0.09
0.12
0.07
0.07
0.06
0.04
0.03
0.04
0.00
0.00
0.01
0.00
0.01
0.01
0.00
0.01
0.00
0.00
0.00
0.00
0.00
0.00
0.00
0.00
0.01
0.00
0.06
0.00
0.09
0.03
0.19
0.15
0.00
0.01
0.06
0.09
0.05
0.00
0.01
0.05
0.03
0.05
0.03
0.44
0.66
0.01
0.78
0.82
0.64
0.59
0.44
0.03
0.01
0.00
0.00
0.00
0.04
0.04
0.07
0.09
0.09
0.15
0.15
0.17
0.17
0.17
0.19
0.21
0.25
0.27
0.27
0.31
0.29
0.31
0.27
0.21
0.19
0.15
0.07
0.00
0.00
0.03
0.03
0.03
0.01
0.00
0.00
0.00
0.00
0.00
0.01
0.00
0.00
0.00
0.01
0.00
0.00
0.01
0.01
0.00
0.00
0.01
0.01
0.00
0.01
0.01
0.00
0.01
0.00
0.00
0.00
0.00
0.01
0.01
0.05
0.05
0.01
0.03
0.03
0.05
0.06
0.01
0.06
0.03
0.06
0.03
0.09
0.01
0.01
0.03
0.03
0.01
0.06
0.01
0.01
0.03
0.01
0.00
0.00
0.00
0.15
0.00
0.00
0.01
0.24
0.19
0.15
0.12
0.09
0.12
0.15
0.12
0.12
0.09
0.47
0.78
0.63
0.74
0.65
0.63
0.57
0.32
0.15
0.12
0.05
0.01
0.01
0.01
0.01
0.01
0.01
0.00
0.00
0.00
0.00
0.00
0.00
0.04
0.03
0.06
0.04
0.03
0.04
0.03
0.00
0.00
0.01
0.01
0.05
0.05
0.12
0.12
0.24
0.12
0.12
0.09
0.03
0.05
0.03
0.06
0.01
0.03
0.01
0.01
0.05
0.01
0.05
0.01
0.03
0.00
0.01
0.01
0.01
0.01
0.03
0.01
0.01
0.01
0.01
0.01
0.01
0.01
0.03
0.03
0.05
0.01
0.05
0.03
0.03
0.03
0.06
0.03
0.05
0.03
0.03
0.03
0.06
0.05
0.03
0.03
0.01
0.01
0.01
0.00
0.00
0.06
0.04
0.01
0.05
0.12
0.15
0.12
0.12
0.15
0.19
0.15
0.15
0.03
0.21
0.68
0.42
0.69
0.67
0.63
0.60
0.50
0.09
0.12
0.03
0.00
0.00
0.01
0.01
0.00
0.04
0.06
0.07
0.09
0.14
0.15
0.17
0.19
0.19
0.23
0.25
0.29
0.31
0.38
0.34
0.31
0.25
0.21
0.17
0.12
0.04
0.01
0.00
0.01
0.00
0.00
0.00
0.00
0.00
0.00
0.00
0.00
0.01
0.01
0.01
0.01
0.01
0.01
0.01
0.01
0.00
0.01
0.00
0.00
0.01
0.01
0.01
0.00
0.00
0.00
0.01
0.00
0.00
0.00
0.00
0.00
0.00
0.00
0.00
0.00
0.01
0.00
0.00
0.01
0.00
0.00
0.01
0.00
0.00
0.00
0.00
0.00
0.00
0.00
0.00
0.04
0.06
0.17
0.12
0.04
0.00
0.05
0.12
0.06
0.06
0.05
0.06
0.06
0.06
0.03
0.17
0.54
0.78
0.71
0.82
0.66
0.63
0.55
0.06
0.03
0.01
0.01
0.00
0.00
0.04
0.09
0.09
0.12
0.14
0.14
0.17
0.19
0.21
0.21
0.25
0.27
0.31
0.39
0.40
0.40
0.39
0.34
0.29
0.25
0.19
0.14
0.03
0.00
0.05
0.05
0.05
0.03
0.01
0.00
0.01
0.00
0.00
0.00
0.00
0.00
0.01
0.00
0.00
0.00
0.01
0.00
0.00
0.01
0.01
0.01
0.01
0.00
0.01
0.01
0.01
0.00
0.01
0.01
0.00
0.01
0.00
0.01
0.01
0.00
0.01
0.00
0.01
0.00
0.01
0.01
0.01
0.01
0.01
0.01
0.01
0.01
0.01
0.01
0.01
0.01
0.01
0.01
0.01
0.01
0.00
0.00
0.14
0.06
0.00
0.01
0.05
0.12
0.09
0.06
0.05
0.06
0.05
0.05
0.01
0.15
0.50
0.80
0.63
0.81
0.69
0.64
0.58
0.19
0.05
0.03
0.00
0.01
0.01
0.00
0.03
0.04
0.07
0.09
0.09
0.12
0.15
0.17
0.17
0.19
0.21
0.23
0.27
0.29
0.34
0.31
0.29
0.27
0.20
0.17
0.15
0.04
0.01
0.01
0.03
0.01
0.01
0.01
0.00
0.00
0.00
0.01
0.01
0.01
0.00
0.00
0.01
0.00
0.00
0.01
0.01
0.00
0.01
0.01
0.01
0.00
0.01
0.01
0.00
0.01
0.01
0.01
0.00
0.00
0.01
0.00
0.01
0.00
0.00
0.00
0.01
0.00
0.01
0.00
0.00
0.01
0.00
0.01
0.00
0.00
0.01
0.01
0.01
0.01
0.01
0.00
0.03
0.01
0.00
0.01
0.00
0.04
0.01
0.15
0.00
0.01
0.01
0.19
0.15
0.12
0.09
0.06
0.12
0.09
0.09
0.06
0.31
0.69
0.01
0.69
0.71
0.63
0.58
0.45
0.05
0.05
0.01
0.00
0.01
0.01
0.00
0.03
0.04
0.06
0.03
0.04
0.06
0.09
0.12
0.14
0.14
0.12
0.12
0.16
0.15
0.16
0.14
0.12
0.07
0.04
0.04
0.00
0.01
0.03
0.09
0.05
0.03
0.03
0.05
0.01
0.00
0.01
0.00
0.00
0.01
0.00
0.01
0.00
0.00
0.01
0.00
0.01
0.00
0.01
0.00
0.01
0.01
0.01
0.00
0.01
0.01
0.00
0.00
0.00
0.01
0.01
0.01
0.01
0.01
0.01
0.05
0.03
0.01
0.03
0.01
0.03
0.05
0.05
0.03
0.03
0.01
0.01
0.01
0.00
0.01
0.00
0.00
0.15
0.07
0.03
0.00
0.05
0.09
0.03
0.06
0.06
0.06
0.06
0.06
0.06
0.15
0.47
0.76
0.62
0.66
0.63
0.64
0.57
0.12
0.06
0.01
0.00
0.01
0.01
0.00
0.03
0.04
0.06
0.07
0.06
0.12
0.14
0.14
0.17
0.17
0.17
0.19
0.23
0.25
0.25
0.25
0.23
0.23
0.20
0.17
0.15
0.04
0.01
0.01
0.00
0.00
0.00
0.00
0.00
0.01
0.00
0.00
0.00
0.00
0.00
0.00
0.00
0.03
0.03
0.03
0.03
0.04
0.04
0.06
0.04
0.03
0.04
0.03
0.04
0.04
0.03
0.03
0.00
0.00
0.00
0.00
0.01
0.01
0.01
0.01
0.01
0.01
0.01
0.01
0.01
0.01
0.01
0.01
0.01
0.01
0.00
0.04
0.00
0.12
0.06
0.17
0.07
0.00
0.01
0.12
0.12
0.09
0.03
0.06
0.09
0.03
0.09
0.01
0.44
0.72
0.40
0.81
0.81
0.64
0.57
0.36
0.00
0.00
0.00
0.06
0.06
0.09
0.09
0.14
0.15
0.16
0.17
0.17
0.17
0.20
0.21
0.23
0.31
0.34
0.39
0.44
0.44
0.45
0.41
0.39
0.34
0.27
0.20
0.14
0.04
0.00
0.00
0.01
0.00
0.01
0.01
0.01
0.00
0.00
0.03
0.00
0.00
0.01
0.01
0.00
0.00
0.00
0.00
0.00
0.00
0.00
0.03
0.04
0.04
0.04
0.00
0.00
0.03
0.06
0.00
0.03
0.00
0.00
0.00
0.01
0.01
0.01
0.01
0.00
0.00
0.00
0.00
0.00
0.00
0.00
0.00
0.01
0.00
0.01
0.01
0.00
0.00
0.15
0.06
0.00
0.00
0.12
0.15
0.09
0.09
0.06
0.06
0.05
0.01
0.03
0.29
0.61
0.74
0.75
0.82
0.62
0.63
0.54
0.01
0.00
0.01
0.00
0.03
0.04
0.06
0.07
0.12
0.16
0.14
0.17
0.17
0.17
0.19
0.20
0.23
0.25
0.29
0.31
0.38
0.38
0.34
0.27
0.25
0.19
0.17
0.09
0.00
0.01
0.05
0.05
0.03
0.01
0.01
0.01
0.00
0.00
0.00
0.00
0.00
0.00
0.01
0.00
0.00
0.01
0.00
0.01
0.00
0.00
0.01
0.00
0.00
0.00
0.01
0.01
0.00
0.01
0.00
0.00
0.00
0.00
0.00
0.01
0.00
0.01
0.01
0.01
0.01
0.01
0.01
0.03
0.03
0.03
0.01
0.00
0.00
0.01
0.00
0.04
0.07
0.00
0.01
0.09
0.19
0.19
0.12
0.12
0.12
0.12
0.15
0.15
0.00
0.38
0.76
0.58
0.71
0.67
0.63
0.57
0.32
0.12
0.05
0.03
0.01
0.00
0.01
0.01
0.00
0.00
0.00
0.00
0.04
0.03
0.06
0.03
0.06
0.04
0.06
0.07
0.09
0.07
0.06
0.07
0.03
0.04
0.00
0.00
0.01
0.06
0.12
0.12
0.12
0.12
0.06
0.05
0.01
0.01
0.01
0.01
0.01
0.01
0.01
0.01
0.00
0.03
0.00
0.00
0.00
0.01
0.00
0.03
0.01
0.00
0.01
0.01
0.01
0.01
0.01
0.01
0.01
0.01
0.01
0.03
0.03
0.01
0.01
0.01
0.05
0.03
0.05
0.05
0.01
0.01
0.00
0.01
0.03
0.00
0.09
0.03
0.01
0.01
0.19
0.24
0.15
0.15
0.15
0.24
0.32
0.29
0.29
0.16
0.64
0.17
0.66
0.66
0.63
0.61
0.55
0.19
0.19
0.12
0.06
0.03
0.01
0.01
0.00
0.00
0.00
0.00
0.00
0.03
0.04
0.07
0.12
0.12
0.15
0.17
0.17
0.17
0.19
0.19
0.17
0.17
0.15
0.12
0.03
0.01
0.01
0.03
0.05
0.01
0.01
0.01
0.00
0.01
0.00
0.00
0.01
0.01
0.01
0.01
0.01
0.00
0.00
0.00
0.00
0.01
0.01
0.00
0.01
0.01
0.01
0.01
0.01
0.01
0.01
0.01
0.00
0.00
0.00
0.00
0.00
0.00
0.00
0.01
0.01
0.01
0.01
0.01
0.01
0.01
0.03
0.01
0.07
0.06
0.17
0.06
0.00
0.00
0.12
0.15
0.12
0.06
0.09
0.06
0.05
0.09
0.03
0.41
0.72
0.44
0.81
0.82
0.64
0.58
0.40
0.00
0.00
0.00
0.00
0.04
0.07
0.07
0.12
0.14
0.15
0.16
0.17
0.17
0.21
0.23
0.27
0.29
0.34
0.39
0.41
0.45
0.41
0.44
0.39
0.31
0.25
0.19
0.12
0.03
0.01
0.01
0.00
0.01
0.01
0.01
0.01
0.01
0.00
0.01
0.00
0.01
0.01
0.01
0.01
0.01
0.01
0.00
0.00
0.01
0.00
0.00
0.00
0.00
0.00
0.01
0.01
0.01
0.00
0.01
0.01
0.00
0.00
0.00
0.01
0.00
0.00
0.00
0.00
0.00
0.00
0.01
0.00
0.01
0.00
0.00
0.00
0.00
0.00
0.06
0.15
0.12
0.00
0.01
0.06
0.15
0.12
0.09
0.06
0.09
0.12
0.12
0.12
0.17
0.56
0.78
0.66
0.82
0.64
0.64
0.57
0.09
0.12
0.05
0.01
0.01
0.01
0.00
0.03
0.03
0.04
0.07
0.09
0.14
0.14
0.15
0.16
0.17
0.19
0.21
0.25
0.25
0.25
0.27
0.27
0.23
0.21
0.16
0.09
0.00
0.00
0.01
0.01
0.03
0.01
0.01
0.00
0.00
0.01
0.00
0.00
0.00
0.00
0.00
0.00
0.01
0.01
0.01
0.01
0.00
0.00
0.01
0.00
0.01
0.00
0.00
0.00
0.01
0.01
0.01
0.01
0.01
0.00
0.00
0.00
0.00
0.00
0.01
0.01
0.01
0.01
0.03
0.03
0.05
0.03
0.06
0.06
0.09
0.05
0.01
0.01
0.03
0.01
0.01
0.06
0.01
0.00
0.06
0.29
0.36
0.29
0.19
0.19
0.19
0.24
0.32
0.12
0.25
0.70
0.50
0.75
0.69
0.63
0.59
0.43
0.19
0.19
0.12
0.06
0.05
0.01
0.00
0.00
0.01
0.01
0.01
0.00
0.00
0.04
0.03
0.03
0.06
0.07
0.09
0.07
0.09
0.07
0.06
0.06
0.04
0.03
0.01
0.01
0.05
0.06
0.12
0.12
0.12
0.06
0.03
0.03
0.01
0.01
0.01
0.00
0.01
0.01
0.00
0.01
0.00
0.00
0.00
0.00
0.00
0.00
0.01
0.00
0.00
0.00
0.00
0.00
0.00
0.01
0.01
0.00
0.00
0.00
0.01
0.00
0.01
0.00
0.01
0.01
0.00
0.01
0.01
0.00
0.00
0.00
0.01
0.04
0.14
0.14
0.03
0.00
0.06
0.12
0.12
0.12
0.09
0.12
0.09
0.12
0.12
0.04
0.34
0.75
0.58
0.66
0.63
0.64
0.57
0.29
0.12
0.01
0.01
0.03
0.00
0.01
0.01
0.01
0.00
0.01
0.03
0.04
0.00
0.06
0.06
0.07
0.09
0.12
0.09
0.15
0.15
0.16
0.14
0.12
0.09
0.07
0.03
0.01
0.00
0.01
0.03
0.05
0.01
0.01
0.00
0.00
0.01
0.01
0.00
0.01
0.01
0.00
0.00
0.03
0.01
0.01
0.00
0.01
0.00
0.01
0.01
0.01
0.00
0.01
0.00
0.01
0.00
0.00
0.01
0.01
0.01
0.01
0.01
0.06
0.06
0.06
0.06
0.05
0.05
0.00
0.01
0.01
0.01
0.06
0.04
0.00
0.01
0.12
0.19
0.15
0.12
0.12
0.15
0.12
0.12
0.12
0.16
0.59
0.78
0.62
0.77
0.66
0.63
0.58
0.09
0.05
0.00
0.01
0.00
0.04
0.04
0.07
0.09
0.15
0.16
0.17
0.17
0.19
0.21
0.25
0.29
0.38
0.40
0.45
0.45
0.49
0.47
0.46
0.45
0.40
0.34
0.23
0.17
0.12
0.04
0.00
0.00
0.03
0.04
0.06
0.06
0.07
0.09
0.12
0.09
0.09
0.09
0.09
0.12
0.12
0.12
0.12
0.12
0.14
0.12
0.12
0.14
0.09
0.07
0.06
0.06
0.07
0.04
0.04
0.00
0.00
0.00
0.00
0.01
0.00
0.01
0.01
0.01
0.00
0.09
0.04
0.09
0.12
0.17
0.16
0.07
0.00
0.03
0.09
0.03
0.03
0.00
0.01
0.03
0.01
0.01
0.20
0.66
0.81
0.66
0.82
0.66
0.63
0.56
0.01
0.00
0.01
0.01
0.04
0.06
0.09
0.12
0.14
0.12
0.15
0.16
0.16
0.17
0.17
0.20
0.23
0.27
0.34
0.38
0.40
0.40
0.40
0.39
0.39
0.29
0.27
0.19
0.15
0.04
0.01
0.00
0.00
0.01
0.00
0.00
0.03
0.04
0.04
0.04
0.04
0.04
0.03
0.03
0.00
0.00
0.03
0.04
0.06
0.04
0.04
0.04
0.00
0.03
0.04
0.00
0.00
0.00
0.01
0.00
0.00
0.01
0.01
0.01
0.00
0.00
0.00
0.01
0.00
0.00
0.00
0.03
0.03
0.00
0.09
0.16
0.17
0.04
0.00
0.01
0.09
0.09
0.06
0.06
0.03
0.03
0.05
0.05
0.01
0.48
0.76
0.58
0.78
0.75
0.64
0.58
0.15
0.01
0.00
0.01
0.01
0.00
0.03
0.04
0.06
0.07
0.07
0.07
0.12
0.09
0.12
0.14
0.15
0.16
0.16
0.17
0.17
0.17
0.17
0.16
0.15
0.15
0.09
0.03
0.01
0.01
0.05
0.03
0.05
0.03
0.01
0.01
0.01
0.00
0.00
0.01
0.00
0.01
0.01
0.01
0.01
0.01
0.01
0.01
0.00
0.00
0.00
0.01
0.00
0.00
0.00
0.01
0.01
0.01
0.01
0.00
0.00
0.01
0.00
0.00
0.01
0.03
0.00
0.01
0.00
0.01
0.00
0.00
0.01
0.00
0.15
0.09
0.01
0.00
0.12
0.19
0.19
0.12
0.15
0.19
0.19
0.19
0.34
0.09
0.49
0.76
0.63
0.69
0.64
0.62
0.57
0.24
0.36
0.15
0.12
0.12
0.09
0.06
0.05
0.03
0.01
0.03
0.00
0.00
0.01
0.01
0.01
0.01
0.01
0.01
0.00
0.03
0.03
0.06
0.00
0.03
0.00
0.01
0.00
0.01
0.05
0.09
0.06
0.05
0.01
0.05
0.01
0.00
0.01
0.01
0.00
0.00
0.01
0.00
0.00
0.00
0.01
0.01
0.00
0.01
0.01
0.00
0.00
0.00
0.00
0.00
0.01
0.01
0.00
0.01
0.00
0.00
0.01
0.01
0.01
0.00
0.00
0.01
0.01
0.01
0.01
0.03
0.01
0.04
0.00
0.15
0.07
0.00
0.01
0.12
0.15
0.12
0.09
0.09
0.12
0.12
0.09
0.15
0.19
0.64
0.74
0.65
0.75
0.63
0.62
0.58
0.01
0.01
0.01
0.00
0.03
0.07
0.09
0.09
0.12
0.12
0.17
0.17
0.17
0.19
0.21
0.23
0.31
0.34
0.40
0.41
0.44
0.44
0.46
0.45
0.41
0.38
0.27
0.17
0.12
0.04
0.01
0.01
0.00
0.00
0.00
0.01
0.00
0.00
0.00
0.00
0.00
0.00
0.03
0.03
0.04
0.04
0.06
0.06
0.06
0.06
0.06
0.06
0.04
0.04
0.03
0.03
0.03
0.00
0.00
0.03
0.00
0.01
0.01
0.00
0.00
0.01
0.01
0.01
0.01
0.03
0.09
0.03
0.14
0.14
0.21
0.15
0.03
0.00
0.05
0.06
0.05
0.01
0.01
0.01
0.01
0.01
0.01
0.44
0.69
0.66
0.78
0.82
0.63
0.64
0.50
0.01
0.01
0.04
0.07
0.09
0.14
0.12
0.17
0.16
0.17
0.17
0.17
0.19
0.21
0.23
0.25
0.27
0.31
0.38
0.40
0.44
0.44
0.40
0.38
0.31
0.25
0.20
0.12
0.00
0.00
0.01
0.01
0.01
0.00
0.01
0.01
0.00
0.01
0.00
0.00
0.00
0.00
0.00
0.00
0.00
0.00
0.01
0.00
0.01
0.01
0.01
0.00
0.00
0.00
0.00
0.00
0.01
0.01
0.01
0.01
0.01
0.00
0.00
0.00
0.00
0.00
0.00
0.00
0.00
0.00
0.00
0.01
0.03
0.03
0.06
0.06
0.17
0.09
0.01
0.01
0.12
0.19
0.12
0.12
0.05
0.09
0.09
0.12
0.12
0.31
0.64
0.48
0.78
0.82
0.64
0.62
0.53
0.06
0.09
0.01
0.01
0.00
0.00
0.01
0.01
0.00
0.00
0.00
0.03
0.04
0.04
0.07
0.12
0.12
0.12
0.15
0.16
0.17
0.16
0.15
0.12
0.07
0.06
0.01
0.01
0.03
0.06
0.06
0.06
0.06
0.03
0.01
0.01
0.01
0.00
0.01
0.03
0.03
0.05
0.01
0.01
0.03
0.01
0.01
0.01
0.01
0.00
0.01
0.01
0.01
0.03
0.03
0.01
0.05
0.06
0.06
0.09
0.05
0.06
0.06
0.09
0.06
0.09
0.06
0.09
0.12
0.05
0.05
0.00
0.01
0.00
0.00
0.12
0.06
0.00
0.01
0.24
0.24
0.19
0.15
0.24
0.24
0.19
0.15
0.36
0.16
0.61
0.69
0.64
0.69
0.64
0.62
0.57
0.12
0.19
0.12
0.03
0.01
0.01
0.00
0.00
0.01
0.01
0.00
0.00
0.00
0.04
0.03
0.04
0.04
0.06
0.07
0.07
0.12
0.14
0.09
0.06
0.07
0.04
0.00
0.00
0.01
0.09
0.09
0.09
0.09
0.09
0.06
0.06
0.05
0.05
0.03
0.03
0.01
0.05
0.01
0.01
0.00
0.00
0.00
0.00
0.00
0.01
0.01
0.00
0.00
0.00
0.00
0.00
0.00
0.00
0.00
0.01
0.00
0.00
0.01
0.00
0.01
0.03
0.01
0.01
0.01
0.01
0.01
0.00
0.00
0.01
0.07
0.04
0.15
0.03
0.01
0.01
0.15
0.15
0.12
0.12
0.09
0.09
0.12
0.12
0.01
0.41
0.72
0.50
0.82
0.81
0.65
0.59
0.42
0.01
0.01
0.00
0.01
0.03
0.03
0.07
0.09
0.09
0.12
0.14
0.17
0.17
0.20
0.23
0.23
0.31
0.38
0.40
0.44
0.45
0.45
0.45
0.41
0.38
0.31
0.17
0.14
0.00
0.00
0.01
0.01
0.01
0.00
0.00
0.00
0.01
0.01
0.01
0.01
0.01
0.01
0.01
0.01
0.00
0.00
0.00
0.00
0.00
0.03
0.00
0.03
0.00
0.00
0.00
0.00
0.01
0.01
0.01
0.00
0.00
0.00
0.00
0.00
0.00
0.00
0.00
0.00
0.00
0.01
0.01
0.01
0.01
0.00
0.00
0.00
0.04
0.00
0.15
0.04
0.01
0.01
0.15
0.24
0.15
0.09
0.12
0.09
0.12
0.15
0.06
0.41
0.70
0.55
0.82
0.82
0.66
0.58
0.40
0.09
0.12
0.01
0.00
0.01
0.00
0.00
0.00
0.03
0.06
0.07
0.12
0.15
0.14
0.17
0.17
0.19
0.21
0.27
0.25
0.29
0.31
0.29
0.25
0.20
0.17
0.14
0.00
0.00
0.01
0.03
0.03
0.01
0.01
0.00
0.00
0.00
0.00
0.01
0.00
0.01
0.00
0.01
0.01
0.01
0.00
0.00
0.00
0.00
0.00
0.00
0.00
0.00
0.01
0.00
0.01
0.01
0.01
0.01
0.01
0.00
0.01
0.01
0.00
0.03
0.01
0.01
0.03
0.05
0.01
0.03
0.01
0.03
0.05
0.01
0.00
0.00
0.00
0.01
0.12
0.03
0.00
0.01
0.29
0.29
0.29
0.15
0.15
0.15
0.19
0.15
0.29
0.21
0.61
0.62
0.75
0.77
0.63
0.61
0.54
0.09
0.12
0.05
0.01
0.00
0.00
0.01
0.00
0.00
0.00
0.00
0.03
0.04
0.06
0.07
0.09
0.12
0.14
0.15
0.15
0.16
0.15
0.15
0.12
0.12
0.07
0.04
0.00
0.00
0.00
0.01
0.01
0.01
0.00
0.01
0.00
0.01
0.00
0.01
0.00
0.01
0.01
0.01
0.01
0.00
0.00
0.01
0.00
0.00
0.01
0.00
0.00
0.00
0.00
0.01
0.01
0.01
0.00
0.00
0.01
0.01
0.00
0.00
0.01
0.01
0.01
0.01
0.01
0.05
0.03
0.05
0.06
0.05
0.05
0.00
0.03
0.00
0.01
0.07
0.00
0.01
0.01
0.29
0.32
0.29
0.24
0.29
0.29
0.32
0.29
0.39
0.09
0.54
0.68
0.64
0.67
0.64
0.62
0.57
0.24
0.32
0.12
0.12
0.05
0.01
0.00
0.00
0.00
0.01
0.01
0.00
0.03
0.04
0.07
0.12
0.14
0.14
0.12
0.16
0.17
0.17
0.17
0.17
0.16
0.14
0.09
0.04
0.01
0.01
0.01
0.03
0.03
0.03
0.01
0.01
0.01
0.01
0.00
0.00
0.01
0.01
0.00
0.01
0.00
0.01
0.01
0.01
0.01
0.01
0.00
0.01
0.01
0.01
0.01
0.00
0.00
0.01
0.00
0.00
0.00
0.00
0.01
0.00
0.01
0.01
0.01
0.01
0.01
0.01
0.01
0.01
0.01
0.01
0.01
0.00
0.00
0.04
0.15
0.07
0.01
0.01
0.12
0.15
0.15
0.12
0.12
0.12
0.09
0.12
0.12
0.17
0.60
0.75
0.76
0.82
0.64
0.64
0.54
0.00
0.01
0.01
0.00
0.03
0.06
0.09
0.12
0.15
0.16
0.17
0.16
0.17
0.21
0.23
0.29
0.29
0.38
0.40
0.41
0.46
0.45
0.45
0.44
0.41
0.34
0.25
0.17
0.07
0.01
0.00
0.01
0.00
0.00
0.01
0.00
0.01
0.01
0.01
0.01
0.00
0.01
0.01
0.01
0.00
0.00
0.00
0.00
0.00
0.03
0.00
0.04
0.03
0.00
0.03
0.00
0.00
0.00
0.00
0.01
0.00
0.01
0.01
0.00
0.00
0.00
0.01
0.00
0.00
0.00
0.01
0.01
0.01
0.01
0.00
0.01
0.00
0.01
0.06
0.14
0.15
0.00
0.01
0.12
0.19
0.15
0.12
0.09
0.09
0.15
0.12
0.09
0.12
0.51
0.78
0.66
0.82
0.67
0.62
0.57
0.09
0.05
0.01
0.01
0.01
0.00
0.03
0.03
0.06
0.09
0.09
0.14
0.16
0.16
0.16
0.17
0.19
0.20
0.27
0.25
0.29
0.29
0.29
0.27
0.23
0.19
0.17
0.12
0.03
0.01
0.01
0.03
0.03
0.01
0.00
0.01
0.01
0.01
0.01
0.01
0.01
0.01
0.01
0.01
0.00
0.00
0.00
0.03
0.04
0.03
0.03
0.03
0.04
0.06
0.03
0.03
0.04
0.00
0.00
0.00
0.00
0.01
0.01
0.01
0.00
0.01
0.00
0.00
0.00
0.01
0.00
0.00
0.00
0.01
0.01
0.01
0.01
0.01
0.01
0.00
0.00
0.00
0.00
0.16
0.07
0.00
0.00
0.12
0.15
0.12
0.06
0.09
0.06
0.06
0.12
0.19
0.25
0.59
0.70
0.69
0.77
0.63
0.61
0.53
0.03
0.06
0.03
0.00
0.00
0.01
0.00
0.00
0.03
0.03
0.00
0.06
0.06
0.09
0.09
0.12
0.15
0.15
0.15
0.15
0.15
0.17
0.17
0.12
0.12
0.07
0.09
0.03
0.01
0.00
0.05
0.03
0.01
0.01
0.00
0.01
0.00
0.00
0.01
0.00
0.01
0.00
0.01
0.01
0.01
0.01
0.01
0.01
0.00
0.01
0.01
0.00
0.00
0.01
0.01
0.00
0.00
0.00
0.00
0.00
0.01
0.00
0.01
0.00
0.00
0.00
0.00
0.00
0.01
0.00
0.00
0.00
0.01
0.01
0.01
0.01
0.01
0.00
0.00
0.03
0.03
0.15
0.09
0.00
0.01
0.05
0.09
0.09
0.03
0.06
0.06
0.05
0.09
0.15
0.20
0.64
0.70
0.63
0.65
0.63
0.60
0.54
0.03
0.05
0.03
0.01
0.01
0.00
0.00
0.01
0.00
0.04
0.03
0.03
0.06
0.04
0.07
0.04
0.09
0.07
0.14
0.14
0.15
0.16
0.17
0.16
0.15
0.16
0.09
0.06
0.00
0.01
0.01
0.01
0.00
0.01
0.00
0.00
0.00
0.00
0.04
0.00
0.04
0.03
0.03
0.04
0.00
0.00
0.00
0.03
0.00
0.00
0.03
0.00
0.00
0.00
0.03
0.00
0.00
0.00
0.00
0.00
0.01
0.00
0.00
0.01
0.00
0.00
0.00
0.00
0.03
0.00
0.03
0.03
0.07
0.14
0.12
0.17
0.19
0.23
0.16
0.12
0.00
0.00
0.00
0.00
0.01
0.00
0.00
0.00
0.00
0.15
0.54
0.78
0.57
0.76
0.69
0.63
0.58
0.05
0.00
0.03
0.07
0.12
0.15
0.15
0.16
0.17
0.17
0.19
0.20
0.23
0.27
0.27
0.34
0.39
0.44
0.45
0.47
0.49
0.50
0.54
0.56
0.51
0.48
0.45
0.34
0.23
0.17
0.09
0.06
0.04
0.03
0.04
0.07
0.07
0.09
0.12
0.09
0.12
0.09
0.09
0.09
0.12
0.07
0.09
0.09
0.09
0.09
0.14
0.09
0.12
0.12
0.12
0.07
0.07
0.07
0.06
0.07
0.04
0.04
0.03
0.03
0.03
0.03
0.03
0.00
0.00
0.00
0.00
0.00
0.00
0.03
0.06
0.09
0.04
0.16
0.16
0.20
0.14
0.04
0.00
0.03
0.01
0.03
0.00
0.01
0.01
0.00
0.01
0.00
0.50
0.76
0.58
0.79
0.77
0.63
0.58
0.19
0.01
0.01
0.00
0.03
0.07
0.07
0.07
0.15
0.15
0.17
0.17
0.17
0.19
0.19
0.23
0.27
0.29
0.38
0.38
0.40
0.41
0.44
0.41
0.40
0.31
0.34
0.21
0.17
0.12
0.00
0.01
0.01
0.00
0.00
0.00
0.03
0.03
0.03
0.03
0.03
0.00
0.00
0.00
0.04
0.00
0.04
0.06
0.04
0.04
0.06
0.06
0.06
0.06
0.04
0.04
0.03
0.04
0.04
0.03
0.01
0.00
0.00
0.00
0.01
0.00
0.01
0.01
0.01
0.01
0.01
0.01
0.01
0.00
0.01
0.00
0.03
0.03
0.07
0.15
0.12
0.00
0.00
0.09
0.12
0.12
0.09
0.09
0.09
0.09
0.12
0.12
0.09
0.49
0.80
0.63
0.77
0.64
0.63
0.57
0.12
0.12
0.03
0.01
0.01
0.00
0.01
0.01
0.00
0.01
0.01
0.00
0.00
0.03
0.04
0.07
0.04
0.06
0.07
0.07
0.09
0.07
0.06
0.06
0.06
0.03
0.00
0.00
0.03
0.06
0.06
0.12
0.05
0.05
0.03
0.01
0.00
0.00
0.00
0.00
0.01
0.01
0.00
0.00
0.00
0.00
0.01
0.01
0.00
0.00
0.01
0.00
0.00
0.01
0.01
0.00
0.01
0.03
0.05
0.03
0.01
0.05
0.05
0.05
0.06
0.05
0.03
0.03
0.03
0.03
0.06
0.05
0.06
0.03
0.00
0.00
0.00
0.00
0.09
0.04
0.01
0.00
0.15
0.19
0.19
0.15
0.15
0.19
0.24
0.24
0.32
0.09
0.49
0.75
0.63
0.66
0.63
0.62
0.58
0.19
0.19
0.12
0.12
0.05
0.01
0.03
0.01
0.00
0.01
0.01
0.01
0.01
0.00
0.00
0.00
0.04
0.04
0.04
0.04
0.06
0.07
0.06
0.06
0.04
0.03
0.01
0.01
0.00
0.06
0.09
0.09
0.09
0.05
0.03
0.01
0.00
0.01
0.00
0.00
0.00
0.00
0.01
0.00
0.00
0.00
0.00
0.00
0.00
0.00
0.01
0.00
0.01
0.01
0.01
0.01
0.01
0.01
0.01
0.01
0.01
0.03
0.06
0.05
0.03
0.03
0.03
0.05
0.05
0.05
0.03
0.01
0.00
0.01
0.00
0.14
0.07
0.01
0.01
0.06
0.15
0.09
0.06
0.09
0.09
0.12
0.09
0.09
0.15
0.54
0.78
0.64
0.77
0.67
0.63
0.57
0.12
0.05
0.01
0.00
0.01
0.00
0.03
0.06
0.06
0.07
0.12
0.15
0.16
0.17
0.17
0.21
0.25
0.29
0.34
0.40
0.40
0.44
0.41
0.41
0.39
0.31
0.29
0.17
0.14
0.03
0.00
0.01
0.00
0.00
0.00
0.01
0.01
0.00
0.01
0.01
0.00
0.01
0.01
0.01
0.01
0.00
0.01
0.00
0.01
0.01
0.01
0.01
0.01
0.01
0.01
0.01
0.01
0.00
0.00
0.00
0.00
0.01
0.00
0.00
0.01
0.01
0.01
0.01
0.03
0.01
0.01
0.01
0.01
0.00
0.03
0.04
0.12
0.00
0.00
0.05
0.29
0.19
0.19
0.12
0.12
0.15
0.12
0.12
0.03
0.41
0.72
0.55
0.81
0.78
0.66
0.57
0.39
0.05
0.05
0.01
0.00
0.00
0.00
0.03
0.04
0.07
0.06
0.09
0.09
0.15
0.15
0.16
0.15
0.17
0.20
0.21
0.23
0.23
0.21
0.20
0.20
0.19
0.16
0.07
0.00
0.01
0.05
0.05
0.05
0.03
0.01
0.00
0.00
0.01
0.01
0.01
0.00
0.00
0.00
0.01
0.01
0.01
0.01
0.01
0.01
0.01
0.01
0.01
0.01
0.00
0.01
0.01
0.01
0.00
0.00
0.00
0.00
0.01
0.01
0.01
0.03
0.01
0.03
0.03
0.06
0.05
0.06
0.05
0.06
0.05
0.12
0.06
0.06
0.01
0.01
0.00
0.01
0.06
0.03
0.00
0.01
0.12
0.19
0.15
0.12
0.09
0.09
0.06
0.09
0.12
0.17
0.56
0.75
0.67
0.78
0.63
0.64
0.55
0.09
0.12
0.06
0.01
0.01
0.00
0.00
0.00
0.01
0.00
0.00
0.03
0.04
0.07
0.06
0.07
0.07
0.12
0.12
0.12
0.12
0.07
0.07
0.09
0.04
0.03
0.00
0.00
0.05
0.06
0.12
0.05
0.12
0.05
0.03
0.01
0.01
0.00
0.01
0.01
0.01
0.00
0.00
0.01
0.00
0.00
0.00
0.00
0.00
0.01
0.00
0.01
0.00
0.01
0.00
0.00
0.00
0.00
0.01
0.01
0.03
0.00
0.01
0.01
0.03
0.01
0.01
0.03
0.03
0.01
0.06
0.03
0.03
0.00
0.01
0.01
0.01
0.12
0.06
0.01
0.01
0.09
0.12
0.15
0.12
0.06
0.12
0.12
0.12
0.12
0.12
0.48
0.76
0.64
0.66
0.62
0.62
0.57
0.12
0.15
0.09
0.05
0.01
0.00
0.01
0.00
0.01
0.00
0.03
0.03
0.04
0.04
0.07
0.07
0.09
0.12
0.12
0.15
0.14
0.15
0.14
0.15
0.09
0.07
0.06
0.00
0.00
0.00
0.01
0.03
0.01
0.01
0.01
0.00
0.01
0.00
0.01
0.00
0.01
0.01
0.01
0.01
0.00
0.00
0.00
0.01
0.00
0.01
0.00
0.00
0.00
0.01
0.00
0.00
0.00
0.00
0.00
0.00
0.01
0.00
0.00
0.01
0.00
0.00
0.00
0.00
0.00
0.00
0.00
0.01
0.01
0.01
0.00
0.07
0.00
0.15
0.12
0.17
0.07
0.03
0.01
0.06
0.09
0.06
0.03
0.05
0.05
0.05
0.05
0.03
0.49
0.77
0.59
0.77
0.75
0.63
0.58
0.19
0.01
0.00
0.00
0.00
0.04
0.07
0.09
0.12
0.15
0.16
0.17
0.19
0.17
0.23
0.27
0.29
0.34
0.40
0.39
0.44
0.47
0.45
0.44
0.40
0.38
0.29
0.21
0.16
0.06
0.01
0.00
0.00
0.01
0.01
0.01
0.00
0.00
0.00
0.00
0.00
0.00
0.00
0.00
0.00
0.00
0.03
0.04
0.06
0.03
0.07
0.04
0.06
0.04
0.04
0.04
0.03
0.03
0.00
0.00
0.00
0.01
0.00
0.00
0.01
0.01
0.01
0.00
0.01
0.01
0.01
0.01
0.01
0.00
0.01
0.01
0.01
0.00
0.01
0.06
0.01
0.14
0.06
0.16
0.06
0.01
0.00
0.12
0.12
0.12
0.06
0.09
0.09
0.06
0.06
0.01
0.45
0.78
0.65
0.79
0.67
0.62
0.57
0.12
0.01
0.00
0.01
0.00
0.04
0.03
0.07
0.09
0.12
0.09
0.15
0.14
0.17
0.17
0.19
0.20
0.21
0.21
0.29
0.29
0.34
0.27
0.29
0.23
0.21
0.17
0.15
0.04
0.01
0.01
0.01
0.01
0.00
0.00
0.00
0.01
0.00
0.00
0.00
0.00
0.01
0.01
0.00
0.00
0.03
0.00
0.03
0.00
0.03
0.03
0.03
0.03
0.03
0.00
0.00
0.03
0.00
0.00
0.00
0.01
0.01
0.01
0.01
0.01
0.01
0.00
0.01
0.01
0.01
0.01
0.00
0.00
0.00
0.00
0.00
0.00
0.00
0.00
0.01
0.01
0.01
0.00
0.00
0.01
0.00
0.00
0.12
0.03
0.00
0.05
0.19
0.24
0.15
0.09
0.06
0.12
0.12
0.09
0.12
0.31
0.67
0.12
0.69
0.75
0.63
0.58
0.43
0.03
0.09
0.01
0.00
0.00
0.01
0.01
0.00
0.04
0.04
0.03
0.04
0.06
0.09
0.07
0.12
0.12
0.14
0.12
0.14
0.15
0.15
0.12
0.12
0.07
0.03
0.04
0.01
0.00
0.05
0.05
0.09
0.03
0.01
0.01
0.00
0.00
0.00
0.00
0.00
0.01
0.01
0.00
0.00
0.00
0.01
0.00
0.01
0.00
0.00
0.00
0.01
0.00
0.00
0.00
0.01
0.01
0.01
0.01
0.01
0.01
0.01
0.03
0.01
0.03
0.03
0.03
0.01
0.06
0.01
0.03
0.05
0.03
0.03
0.05
0.03
0.06
0.05
0.06
0.09
0.09
0.06
0.06
0.06
0.03
0.01
0.03
0.01
0.00
0.06
0.01
0.00
0.06
0.24
0.12
0.19
0.15
0.12
0.19
0.12
0.12
0.09
0.17
0.68
0.00
0.64
0.64
0.64
0.59
0.45
0.09
0.09
0.03
0.01
0.00
0.01
0.01
0.00
0.00
0.04
0.06
0.06
0.09
0.12
0.12
0.16
0.16
0.17
0.17
0.17
0.19
0.17
0.20
0.17
0.16
0.15
0.09
0.04
0.01
0.00
0.03
0.05
0.01
0.01
0.00
0.00
0.01
0.00
0.01
0.01
0.01
0.00
0.00
0.00
0.00
0.00
0.00
0.00
0.00
0.03
0.00
0.03
0.00
0.03
0.00
0.00
0.00
0.00
0.00
0.00
0.01
0.00
0.01
0.01
0.01
0.01
0.01
0.01
0.01
0.01
0.01
0.01
0.01
0.01
0.01
0.01
0.00
0.03
0.04
0.03
0.14
0.07
0.17
0.09
0.00
0.01
0.09
0.09
0.06
0.03
0.05
0.05
0.01
0.05
0.01
0.46
0.76
0.57
0.77
0.76
0.64
0.57
0.12
0.01
0.00
0.01
0.00
0.07
0.07
0.12
0.12
0.16
0.17
0.17
0.17
0.21
0.23
0.23
0.29
0.31
0.38
0.39
0.40
0.40
0.44
0.39
0.38
0.31
0.25
0.17
0.15
0.04
0.00
0.00
0.01
0.00
0.00
0.01
0.01
0.00
0.03
0.04
0.03
0.03
0.00
0.00
0.00
0.00
0.04
0.04
0.03
0.03
0.03
0.04
0.04
0.04
0.06
0.03
0.03
0.04
0.03
0.04
0.00
0.03
0.00
0.03
0.03
0.03
0.00
0.00
0.00
0.00
0.00
0.00
0.01
0.00
0.01
0.01
0.00
0.00
0.04
0.03
0.04
0.00
0.16
0.09
0.00
0.01
0.12
0.19
0.12
0.09
0.06
0.09
0.12
0.09
0.12
0.16
0.49
0.78
0.66
0.81
0.64
0.63
0.57
0.09
0.09
0.03
0.01
0.00
0.01
0.01
0.00
0.03
0.03
0.06
0.07
0.09
0.12
0.15
0.15
0.17
0.20
0.20
0.20
0.21
0.21
0.23
0.23
0.20
0.17
0.16
0.09
0.00
0.01
0.03
0.06
0.06
0.09
0.03
0.01
0.00
0.00
0.00
0.01
0.01
0.00
0.01
0.00
0.00
0.01
0.00
0.01
0.01
0.00
0.00
0.00
0.00
0.00
0.00
0.00
0.01
0.01
0.01
0.01
0.01
0.01
0.03
0.06
0.05
0.05
0.05
0.09
0.05
0.09
0.09
0.05
0.05
0.06
0.05
0.06
0.05
0.03
0.00
0.00
0.00
0.00
0.00
0.07
0.01
0.00
0.12
0.29
0.19
0.19
0.15
0.12
0.12
0.15
0.19
0.00
0.29
0.74
0.55
0.67
0.66
0.63
0.58
0.43
0.19
0.15
0.12
0.03
0.01
0.01
0.01
0.00
0.00
0.00
0.00
0.00
0.01
0.00
0.00
0.03
0.04
0.03
0.06
0.04
0.07
0.07
0.09
0.03
0.03
0.00
0.01
0.01
0.01
0.05
0.06
0.06
0.05
0.01
0.00
0.00
0.00
0.00
0.00
0.00
0.00
0.01
0.00
0.00
0.01
0.01
0.01
0.01
0.01
0.01
0.00
0.01
0.00
0.00
0.00
0.01
0.01
0.03
0.03
0.01
0.01
0.01
0.01
0.05
0.03
0.03
0.03
0.01
0.03
0.05
0.05
0.00
0.00
0.00
0.01
0.01
0.07
0.06
0.00
0.00
0.03
0.24
0.15
0.12
0.12
0.12
0.12
0.12
0.24
0.07
0.38
0.74
0.57
0.66
0.64
0.64
0.59
0.39
0.15
0.09
0.06
0.01
0.00
0.00
0.01
0.01
0.01
0.00
0.00
0.04
0.04
0.06
0.07
0.09
0.09
0.15
0.16
0.16
0.17
0.17
0.17
0.17
0.15
0.12
0.06
0.00
0.01
0.00
0.01
0.01
0.01
0.00
0.00
0.01
0.01
0.01
0.00
0.01
0.01
0.01
0.01
0.01
0.00
0.00
0.01
0.01
0.01
0.01
0.01
0.00
0.00
0.01
0.00
0.01
0.00
0.00
0.00
0.00
0.01
0.00
0.00
0.01
0.00
0.01
0.00
0.01
0.01
0.01
0.01
0.00
0.00
0.00
0.06
0.03
0.14
0.06
0.01
0.00
0.15
0.19
0.12
0.12
0.06
0.12
0.09
0.12
0.12
0.29
0.66
0.40
0.77
0.82
0.63
0.62
0.54
0.03
0.05
0.01
0.00
0.00
0.00
0.00
0.00
0.04
0.06
0.09
0.14
0.15
0.16
0.17
0.19
0.21
0.27
0.31
0.38
0.39
0.41
0.41
0.44
0.40
0.31
0.25
0.17
0.12
0.04
0.01
0.00
0.00
0.00
0.01
0.00
0.03
0.00
0.00
0.00
0.00
0.00
0.00
0.00
0.01
0.00
0.00
0.01
0.00
0.00
0.00
0.00
0.00
0.00
0.00
0.00
0.00
0.01
0.01
0.01
0.01
0.01
0.00
0.00
0.00
0.00
0.01
0.00
0.01
0.00
0.01
0.00
0.00
0.01
0.01
0.01
0.04
0.09
0.12
0.00
0.00
0.09
0.12
0.12
0.09
0.06
0.06
0.12
0.09
0.06
0.09
0.50
0.80
0.63
0.81
0.67
0.62
0.57
0.12
0.05
0.01
0.00
0.01
0.00
0.00
0.03
0.04
0.07
0.07
0.14
0.14
0.16
0.17
0.17
0.19
0.20
0.25
0.25
0.29
0.27
0.29
0.29
0.25
0.21
0.19
0.16
0.06
0.03
0.00
0.00
0.01
0.01
0.00
0.01
0.01
0.00
0.00
0.01
0.00
0.01
0.01
0.00
0.01
0.01
0.01
0.01
0.01
0.01
0.00
0.00
0.01
0.01
0.00
0.01
0.01
0.01
0.00
0.00
0.00
0.00
0.00
0.00
0.00
0.01
0.00
0.00
0.00
0.01
0.00
0.00
0.01
0.00
0.03
0.00
0.07
0.00
0.16
0.04
0.01
0.01
0.15
0.24
0.15
0.12
0.12
0.15
0.12
0.09
0.19
0.29
0.64
0.06
0.77
0.77
0.63
0.58
0.45
0.09
0.09
0.05
0.01
0.00
0.00
0.00
0.01
0.01
0.00
0.00
0.00
0.00
0.00
0.00
0.04
0.04
0.04
0.04
0.03
0.04
0.03
0.03
0.00
0.01
0.00
0.00
0.03
0.09
0.12
0.19
0.15
0.12
0.06
0.05
0.01
0.01
0.01
0.01
0.01
0.01
0.01
0.01
0.03
0.01
0.01
0.01
0.01
0.00
0.01
0.01
0.01
0.01
0.01
0.03
0.03
0.01
0.05
0.05
0.09
0.05
0.09
0.05
0.03
0.09
0.06
0.06
0.06
0.05
0.05
0.05
0.03
0.01
0.00
0.01
0.00
0.07
0.04
0.01
0.01
0.12
0.24
0.15
0.12
0.19
0.24
0.19
0.19
0.24
0.00
0.34
0.76
0.60
0.66
0.63
0.64
0.59
0.36
0.36
0.19
0.15
0.06
0.01
0.01
0.01
0.00
0.01
0.01
0.00
0.00
0.00
0.00
0.04
0.04
0.06
0.07
0.06
0.07
0.12
0.12
0.09
0.09
0.06
0.06
0.03
0.01
0.00
0.01
0.01
0.01
0.01
0.00
0.00
0.00
0.00
0.01
0.00
0.00
0.00
0.01
0.00
0.00
0.01
0.00
0.00
0.00
0.01
0.00
0.00
0.00
0.01
0.01
0.01
0.00
0.01
0.00
0.01
0.00
0.00
0.01
0.00
0.00
0.00
0.01
0.00
0.00
0.00
0.00
0.03
0.04
0.15
0.12
0.00
0.01
0.06
0.12
0.12
0.09
0.09
0.06
0.09
0.05
0.12
0.12
0.51
0.79
0.64
0.76
0.66
0.65
0.57
0.03
0.03
0.00
0.00
0.01
0.00
0.04
0.04
0.06
0.09
0.09
0.14
0.15
0.16
0.17
0.19
0.21
0.25
0.29
0.34
0.39
0.34
0.41
0.39
0.38
0.29
0.23
0.16
0.06
0.00
0.01
0.01
0.00
0.00
0.00
0.01
0.01
0.01
0.01
0.01
0.00
0.00
0.01
0.01
0.00
0.00
0.00
0.01
0.00
0.00
0.00
0.01
0.00
0.00
0.00
0.00
0.01
0.01
0.01
0.01
0.01
0.01
0.00
0.01
0.01
0.01
0.01
0.00
0.00
0.01
0.00
0.00
0.00
0.03
0.07
0.15
0.15
0.06
0.03
0.03
0.06
0.03
0.03
0.00
0.01
0.01
0.01
0.00
0.23
0.62
0.81
0.66
0.82
0.63
0.63
0.54
0.00
0.00
0.01
0.00
0.04
0.06
0.07
0.09
0.12
0.12
0.14
0.17
0.16
0.17
0.17
0.19
0.20
0.23
0.27
0.27
0.29
0.27
0.27
0.27
0.23
0.20
0.17
0.09
0.00
0.01
0.00
0.01
0.00
0.00
0.01
0.00
0.00
0.00
0.00
0.00
0.01
0.00
0.00
0.00
0.00
0.00
0.03
0.03
0.03
0.03
0.03
0.03
0.00
0.00
0.00
0.00
0.00
0.00
0.01
0.01
0.01
0.01
0.01
0.00
0.00
0.00
0.00
0.00
0.00
0.00
0.00
0.00
0.00
0.01
0.00
0.00
0.07
0.00
0.15
0.09
0.19
0.12
0.04
0.00
0.05
0.03
0.01
0.01
0.01
0.01
0.01
0.03
0.00
0.46
0.75
0.54
0.76
0.74
0.63
0.58
0.29
0.06
0.01
0.00
0.01
0.03
0.00
0.00
0.03
0.06
0.06
0.09
0.09
0.09
0.12
0.14
0.15
0.15
0.17
0.17
0.17
0.19
0.17
0.17
0.15
0.15
0.07
0.07
0.00
0.01
0.01
0.01
0.01
0.01
0.01
0.01
0.00
0.00
0.00
0.01
0.00
0.01
0.01
0.01
0.00
0.01
0.00
0.01
0.00
0.00
0.01
0.01
0.01
0.01
0.01
0.01
0.01
0.01
0.00
0.00
0.01
0.01
0.00
0.01
0.01
0.01
0.03
0.03
0.03
0.03
0.03
0.01
0.01
0.01
0.00
0.00
0.00
0.16
0.09
0.01
0.00
0.09
0.12
0.15
0.09
0.09
0.12
0.09
0.06
0.19
0.16
0.57
0.76
0.63
0.67
0.63
0.61
0.57
0.12
0.15
0.09
0.05
0.01
0.01
0.00
0.01
0.01
0.00
0.00
0.00
0.00
0.06
0.04
0.07
0.07
0.12
0.07
0.15
0.15
0.16
0.12
0.16
0.14
0.07
0.09
0.06
0.00
0.01
0.00
0.00
0.01
0.00
0.01
0.01
0.01
0.01
0.01
0.00
0.00
0.01
0.01
0.01
0.00
0.00
0.01
0.01
0.00
0.01
0.00
0.01
0.01
0.01
0.01
0.01
0.01
0.00
0.01
0.01
0.00
0.01
0.01
0.01
0.00
0.01
0.00
0.00
0.00
0.01
0.01
0.04
0.00
0.04
0.07
0.17
0.16
0.04
0.00
0.01
0.06
0.05
0.01
0.01
0.03
0.05
0.05
0.06
0.21
0.66
0.76
0.63
0.69
0.62
0.61
0.55
0.00
0.05
0.00
0.00
0.01
0.00
0.03
0.03
0.06
0.07
0.07
0.07
0.12
0.12
0.16
0.17
0.17
0.19
0.23
0.25
0.27
0.34
0.29
0.29
0.25
0.23
0.17
0.14
0.03
0.00
0.00
0.01
0.00
0.00
0.00
0.00
0.01
0.00
0.01
0.00
0.01
0.00
0.01
0.01
0.01
0.00
0.00
0.00
0.00
0.00
0.00
0.03
0.00
0.00
0.01
0.01
0.01
0.00
0.01
0.01
0.01
0.00
0.00
0.00
0.01
0.00
0.00
0.01
0.01
0.00
0.00
0.00
0.01
0.04
0.00
0.07
0.07
0.17
0.14
0.03
0.00
0.06
0.09
0.09
0.05
0.03
0.06
0.06
0.06
0.06
0.25
0.61
0.75
0.71
0.82
0.64
0.64
0.54
0.01
0.01
0.01
0.01
0.03
0.03
0.04
0.07
0.09
0.12
0.09
0.15
0.16
0.17
0.19
0.20
0.23
0.27
0.27
0.38
0.38
0.39
0.38
0.38
0.31
0.29
0.23
0.17
0.12
0.03
0.01
0.01
0.01
0.00
0.00
0.03
0.00
0.04
0.04
0.03
0.00
0.03
0.00
0.03
0.03
0.04
0.04
0.06
0.03
0.04
0.06
0.04
0.06
0.06
0.03
0.03
0.03
0.03
0.00
0.00
0.00
0.01
0.01
0.00
0.00
0.01
0.00
0.01
0.00
0.01
0.01
0.00
0.06
0.00
0.14
0.07
0.17
0.14
0.00
0.01
0.06
0.12
0.09
0.05
0.03
0.06
0.05
0.06
0.06
0.29
0.63
0.64
0.76
0.82
0.63
0.62
0.54
0.01
0.01
0.00
0.01
0.00
0.03
0.04
0.07
0.07
0.09
0.09
0.12
0.12
0.17
0.17
0.17
0.17
0.20
0.20
0.23
0.23
0.21
0.20
0.20
0.17
0.17
0.12
0.04
0.00
0.01
0.06
0.06
0.05
0.01
0.01
0.01
0.01
0.01
0.00
0.01
0.00
0.00
0.00
0.00
0.00
0.01
0.01
0.01
0.01
0.01
0.00
0.00
0.01
0.01
0.00
0.01
0.01
0.01
0.01
0.01
0.01
0.00
0.00
0.00
0.00
0.00
0.01
0.01
0.01
0.01
0.01
0.01
0.00
0.01
0.04
0.04
0.14
0.00
0.00
0.05
0.19
0.24
0.19
0.15
0.15
0.29
0.19
0.29
0.24
0.20
0.68
0.24
0.67
0.66
0.63
0.59
0.46
0.24
0.19
0.09
0.05
0.05
0.01
0.03
0.00
0.00
0.00
0.01
0.00
0.01
0.00
0.00
0.04
0.06
0.04
0.00
0.06
0.04
0.06
0.04
0.00
0.00
0.00
0.00
0.01
0.03
0.03
0.12
0.09
0.05
0.01
0.01
0.01
0.01
0.00
0.00
0.00
0.01
0.00
0.00
0.00
0.00
0.00
0.00
0.00
0.00
0.00
0.00
0.00
0.00
0.00
0.01
0.00
0.01
0.01
0.01
0.00
0.01
0.03
0.01
0.05
0.05
0.03
0.09
0.06
0.06
0.01
0.00
0.03
0.01
0.00
0.09
0.04
0.00
0.01
0.19
0.19
0.29
0.19
0.19
0.24
0.29
0.32
0.36
0.14
0.59
0.69
0.63
0.67
0.64
0.62
0.57
0.15
0.15
0.09
0.03
0.01
0.00
0.01
0.01
0.00
0.00
0.03
0.04
0.06
0.09
0.07
0.12
0.12
0.15
0.16
0.17
0.17
0.20
0.19
0.20
0.19
0.17
0.16
0.09
0.03
0.01
0.01
0.01
0.01
0.03
0.01
0.01
0.00
0.00
0.01
0.00
0.01
0.01
0.01
0.01
0.01
0.01
0.00
0.01
0.00
0.00
0.01
0.01
0.01
0.01
0.01
0.01
0.00
0.01
0.01
0.01
0.01
0.01
0.03
0.05
0.03
0.05
0.03
0.03
0.03
0.00
0.01
0.00
0.04
0.03
0.15
0.00
0.00
0.05
0.19
0.24
0.19
0.12
0.15
0.12
0.09
0.12
0.05
0.40
0.72
0.54
0.82
0.82
0.66
0.59
0.45
0.05
0.01
0.00
0.01
0.03
0.00
0.07
0.09
0.15
0.15
0.17
0.17
0.17
0.21
0.23
0.27
0.29
0.38
0.40
0.44
0.47
0.48
0.47
0.46
0.41
0.39
0.27
0.19
0.14
0.03
0.01
0.01
0.01
0.01
0.00
0.00
0.00
0.00
0.03
0.00
0.03
0.00
0.00
0.00
0.00
0.04
0.00
0.04
0.03
0.03
0.03
0.04
0.00
0.03
0.00
0.00
0.03
0.00
0.01
0.00
0.01
0.01
0.01
0.00
0.00
0.00
0.00
0.00
0.00
0.00
0.01
0.03
0.01
0.06
0.07
0.17
0.04
0.01
0.05
0.12
0.15
0.15
0.12
0.09
0.12
0.09
0.12
0.01
0.45
0.75
0.56
0.82
0.79
0.64
0.58
0.32
0.01
0.01
0.01
0.00
0.04
0.04
0.06
0.09
0.14
0.14
0.15
0.17
0.17
0.17
0.19
0.23
0.27
0.29
0.29
0.34
0.34
0.34
0.34
0.27
0.25
0.20
0.17
0.07
0.00
0.01
0.00
0.00
0.00
0.01
0.01
0.00
0.00
0.00
0.00
0.00
0.03
0.00
0.00
0.03
0.03
0.04
0.04
0.06
0.06
0.06
0.06
0.07
0.06
0.04
0.04
0.03
0.03
0.04
0.03
0.03
0.00
0.01
0.01
0.01
0.00
0.01
0.00
0.00
0.00
0.01
0.04
0.00
0.03
0.00
0.17
0.09
0.01
0.01
0.15
0.24
0.15
0.15
0.15
0.15
0.24
0.29
0.32
0.12
0.49
0.76
0.67
0.78
0.64
0.63
0.57
0.39
0.42
0.39
0.39
0.32
0.34
0.24
0.29
0.24
0.29
0.19
0.24
0.19
0.19
0.19
0.19
0.12
0.12
0.12
0.12
0.12
0.12
0.12
0.12
0.12
0.12
0.12
0.24
0.29
0.29
0.29
0.29
0.29
0.19
0.12
0.12
0.09
0.05
0.03
0.06
0.03
0.05
0.01
0.01
0.05
0.03
0.00
0.01
0.01
0.01
0.01
0.00
0.00
0.01
0.00
0.00
0.01
0.01
0.01
0.01
0.00
0.00
0.01
0.00
0.00
0.00
0.00
0.00
0.01
0.00
0.01
0.00
0.01
0.07
0.14
0.16
0.06
0.03
0.01
0.06
0.05
0.06
0.09
0.12
0.09
0.06
0.15
0.00
0.27
0.71
0.45
0.66
0.64
0.64
0.59
0.43
0.09
0.05
0.01
0.00
0.00
0.01
0.00
0.03
0.00
0.04
0.06
0.07
0.07
0.07
0.12
0.12
0.14
0.15
0.16
0.16
0.17
0.17
0.17
0.17
0.17
0.17
0.15
0.06
0.04
0.00
0.01
0.01
0.01
0.01
0.01
0.00
0.00
0.03
0.00
0.03
0.04
0.03
0.04
0.06
0.06
0.04
0.06
0.06
0.04
0.04
0.06
0.03
0.03
0.03
0.00
0.03
0.03
0.00
0.00
0.00
0.00
0.01
0.00
0.01
0.00
0.00
0.01
0.00
0.07
0.04
0.12
0.09
0.19
0.16
0.07
0.07
0.01
0.03
0.01
0.01
0.00
0.01
0.00
0.01
0.01
0.31
0.69
0.76
0.67
0.78
0.64
0.64
0.54
0.03
0.00
0.07
0.09
0.15
0.16
0.17
0.17
0.17
0.20
0.21
0.27
0.29
0.31
0.38
0.40
0.45
0.48
0.49
0.54
0.57
0.57
0.57
0.60
0.54
0.48
0.44
0.29
0.20
0.17
0.14
0.07
0.12
0.12
0.14
0.15
0.15
0.15
0.15
0.12
0.14
0.15
0.16
0.15
0.15
0.16
0.14
0.17
0.16
0.15
0.15
0.15
0.15
0.15
0.14
0.15
0.12
0.09
0.09
0.07
0.06
0.07
0.06
0.04
0.03
0.04
0.03
0.04
0.03
0.00
0.09
0.16
0.09
0.17
0.17
0.21
0.15
0.07
0.01
0.03
0.03
0.03
0.01
0.01
0.03
0.01
0.05
0.00
0.50
0.78
0.64
0.82
0.77
0.66
0.58
0.12
0.01
0.01
0.01
0.00
0.03
0.04
0.06
0.07
0.09
0.09
0.14
0.15
0.17
0.17
0.17
0.20
0.21
0.27
0.31
0.34
0.38
0.38
0.31
0.31
0.29
0.20
0.17
0.07
0.00
0.01
0.00
0.01
0.00
0.00
0.01
0.01
0.00
0.00
0.01
0.01
0.00
0.00
0.01
0.01
0.00
0.01
0.01
0.00
0.00
0.00
0.00
0.00
0.01
0.01
0.01
0.01
0.01
0.00
0.01
0.01
0.01
0.01
0.01
0.03
0.05
0.03
0.03
0.05
0.06
0.05
0.05
0.05
0.01
0.00
0.01
0.00
0.01
0.16
0.03
0.00
0.05
0.24
0.29
0.19
0.12
0.09
0.15
0.15
0.19
0.12
0.34
0.64
0.31
0.77
0.82
0.64
0.61
0.49
0.09
0.09
0.05
0.01
0.00
0.00
0.00
0.01
0.01
0.00
0.00
0.03
0.04
0.04
0.04
0.09
0.06
0.07
0.15
0.14
0.14
0.12
0.12
0.07
0.06
0.03
0.00
0.00
0.01
0.03
0.06
0.03
0.01
0.01
0.00
0.00
0.01
0.01
0.00
0.00
0.00
0.01
0.00
0.00
0.01
0.01
0.01
0.01
0.00
0.00
0.00
0.01
0.01
0.00
0.01
0.01
0.01
0.01
0.01
0.01
0.00
0.00
0.00
0.01
0.01
0.01
0.00
0.00
0.00
0.01
0.01
0.01
0.01
0.01
0.00
0.00
0.03
0.03
0.16
0.09
0.01
0.01
0.15
0.15
0.15
0.12
0.12
0.19
0.12
0.19
0.15
0.20
0.67
0.06
0.66
0.66
0.63
0.60
0.54
0.19
0.24
0.12
0.06
0.05
0.03
0.01
0.01
0.00
0.00
0.00
0.00
0.01
0.00
0.00
0.01
0.03
0.06
0.04
0.09
0.06
0.09
0.07
0.07
0.04
0.04
0.00
0.01
0.00
0.01
0.05
0.03
0.01
0.01
0.00
0.01
0.01
0.01
0.00
0.00
0.01
0.00
0.00
0.01
0.01
0.01
0.01
0.00
0.00
0.01
0.00
0.00
0.00
0.01
0.03
0.01
0.01
0.01
0.03
0.01
0.05
0.05
0.05
0.06
0.05
0.05
0.12
0.09
0.06
0.06
0.03
0.01
0.01
0.00
0.00
0.07
0.09
0.00
0.00
0.06
0.19
0.12
0.12
0.12
0.12
0.12
0.09
0.12
0.12
0.50
0.76
0.63
0.77
0.67
0.64
0.57
0.15
0.06
0.01
0.00
0.01
0.00
0.03
0.04
0.07
0.09
0.09
0.15
0.16
0.17
0.19
0.25
0.27
0.31
0.38
0.41
0.45
0.47
0.45
0.44
0.44
0.38
0.27
0.19
0.09
0.00
0.00
0.00
0.00
0.00
0.00
0.00
0.00
0.00
0.01
0.01
0.01
0.00
0.01
0.00
0.01
0.01
0.01
0.01
0.01
0.01
0.01
0.00
0.00
0.01
0.00
0.00
0.00
0.01
0.00
0.00
0.01
0.00
0.01
0.01
0.01
0.03
0.01
0.05
0.01
0.01
0.01
0.03
0.01
0.03
0.01
0.00
0.00
0.00
0.04
0.00
0.17
0.06
0.01
0.00
0.15
0.15
0.12
0.06
0.06
0.09
0.09
0.12
0.09
0.40
0.67
0.06
0.81
0.82
0.64
0.60
0.48
0.06
0.12
0.03
0.01
0.00
0.01
0.00
0.00
0.00
0.03
0.06
0.07
0.12
0.14
0.14
0.16
0.17
0.19
0.19
0.20
0.21
0.21
0.23
0.21
0.19
0.17
0.14
0.00
0.00
0.01
0.06
0.06
0.09
0.06
0.03
0.01
0.01
0.00
0.00
0.01
0.01
0.00
0.00
0.00
0.00
0.00
0.00
0.01
0.01
0.01
0.01
0.01
0.01
0.01
0.01
0.01
0.01
0.00
0.00
0.00
0.00
0.01
0.01
0.01
0.01
0.01
0.01
0.03
0.03
0.05
0.03
0.03
0.05
0.06
0.06
0.12
0.09
0.06
0.12
0.12
0.12
0.03
0.01
0.01
0.00
0.04
0.01
0.01
0.03
0.24
0.29
0.29
0.19
0.19
0.12
0.12
0.12
0.15
0.17
0.48
0.74
0.74
0.82
0.63
0.64
0.55
0.06
0.06
0.01
0.00
0.00
0.01
0.00
0.03
0.06
0.06
0.04
0.04
0.07
0.09
0.14
0.14
0.15
0.17
0.17
0.17
0.17
0.17
0.17
0.17
0.15
0.07
0.07
0.00
0.00
0.03
0.06
0.06
0.05
0.03
0.05
0.01
0.00
0.00
0.00
0.00
0.00
0.00
0.01
0.01
0.00
0.00
0.00
0.00
0.00
0.01
0.01
0.00
0.01
0.00
0.00
0.00
0.00
0.01
0.01
0.01
0.01
0.01
0.00
0.01
0.01
0.01
0.01
0.01
0.01
0.01
0.03
0.01
0.03
0.05
0.01
0.01
0.01
0.01
0.01
0.00
0.00
0.14
0.06
0.00
0.01
0.15
0.15
0.19
0.12
0.12
0.19
0.15
0.12
0.29
0.17
0.64
0.41
0.64
0.66
0.63
0.60
0.54
0.12
0.12
0.05
0.01
0.00
0.01
0.00
0.01
0.00
0.00
0.03
0.04
0.04
0.06
0.09
0.07
0.07
0.07
0.09
0.09
0.12
0.07
0.07
0.06
0.03
0.03
0.00
0.00
0.01
0.05
0.06
0.05
0.01
0.03
0.03
0.01
0.03
0.00
0.00
0.00
0.00
0.00
0.01
0.00
0.00
0.01
0.00
0.01
0.01
0.00
0.01
0.00
0.00
0.00
0.01
0.00
0.00
0.01
0.00
0.01
0.01
0.00
0.00
0.00
0.00
0.00
0.01
0.01
0.00
0.00
0.00
0.00
0.01
0.00
0.03
0.01
0.07
0.06
0.17
0.09
0.03
0.00
0.06
0.09
0.09
0.05
0.03
0.03
0.06
0.03
0.12
0.23
0.67
0.70
0.64
0.71
0.63
0.62
0.55
0.03
0.05
0.00
0.01
0.01
0.00
0.06
0.06
0.09
0.12
0.14
0.15
0.17
0.19
0.21
0.23
0.27
0.31
0.39
0.40
0.45
0.45
0.44
0.41
0.41
0.39
0.27
0.20
0.09
0.04
0.01
0.00
0.00
0.00
0.00
0.00
0.01
0.01
0.00
0.01
0.01
0.01
0.00
0.00
0.00
0.00
0.03
0.03
0.03
0.04
0.03
0.03
0.03
0.00
0.00
0.00
0.00
0.01
0.01
0.01
0.00
0.01
0.00
0.00
0.00
0.01
0.00
0.00
0.00
0.00
0.00
0.00
0.01
0.00
0.00
0.00
0.00
0.01
0.06
0.00
0.12
0.09
0.17
0.07
0.00
0.01
0.12
0.12
0.09
0.06
0.05
0.06
0.06
0.09
0.06
0.39
0.67
0.01
0.78
0.82
0.64
0.59
0.47
0.01
0.01
0.01
0.01
0.00
0.03
0.06
0.07
0.09
0.09
0.12
0.09
0.15
0.16
0.17
0.17
0.19
0.21
0.27
0.29
0.34
0.34
0.29
0.27
0.25
0.20
0.17
0.09
0.00
0.01
0.05
0.09
0.09
0.06
0.03
0.03
0.01
0.05
0.01
0.01
0.03
0.03
0.05
0.01
0.01
0.03
0.03
0.03
0.01
0.01
0.01
0.00
0.01
0.01
0.01
0.01
0.03
0.03
0.01
0.06
0.05
0.05
0.03
0.09
0.05
0.05
0.05
0.05
0.05
0.05
0.05
0.05
0.05
0.03
0.01
0.03
0.03
0.05
0.05
0.01
0.05
0.03
0.05
0.03
0.03
0.01
0.00
0.00
0.03
0.03
0.07
0.04
0.00
0.05
0.19
0.24
0.19
0.12
0.12
0.15
0.15
0.24
0.06
0.29
0.76
0.60
0.77
0.69
0.64
0.57
0.29
0.09
0.06
0.05
0.01
0.00
0.01
0.01
0.00
0.03
0.04
0.04
0.07
0.09
0.12
0.14
0.15
0.16
0.17
0.17
0.19
0.17
0.17
0.17
0.17
0.16
0.14
0.06
0.01
0.00
0.05
0.09
0.12
0.06
0.05
0.03
0.01
0.00
0.00
0.00
0.01
0.00
0.01
0.00
0.00
0.01
0.01
0.00
0.01
0.00
0.01
0.01
0.00
0.01
0.00
0.00
0.00
0.00
0.00
0.01
0.01
0.00
0.00
0.01
0.01
0.01
0.01
0.01
0.00
0.01
0.01
0.01
0.05
0.01
0.01
0.03
0.05
0.05
0.06
0.03
0.01
0.01
0.01
0.00
0.07
0.03
0.00
0.03
0.19
0.29
0.32
0.15
0.19
0.19
0.19
0.19
0.36
0.12
0.48
0.75
0.64
0.66
0.63
0.61
0.57
0.09
0.19
0.05
0.05
0.01
0.01
0.00
0.01
0.01
0.00
0.01
0.00
0.03
0.03
0.03
0.06
0.03
0.03
0.06
0.06
0.07
0.14
0.06
0.04
0.04
0.00
0.00
0.01
0.00
0.05
0.06
0.09
0.03
0.03
0.01
0.01
0.01
0.00
0.00
0.00
0.00
0.00
0.00
0.01
0.01
0.00
0.01
0.01
0.01
0.01
0.01
0.01
0.01
0.01
0.01
0.00
0.00
0.00
0.01
0.01
0.01
0.01
0.01
0.01
0.01
0.01
0.01
0.01
0.03
0.01
0.03
0.01
0.01
0.00
0.00
0.00
0.00
0.01
0.00
0.00
0.04
0.00
0.09
0.16
0.15
0.06
0.06
0.00
0.03
0.05
0.00
0.01
0.01
0.01
0.01
0.05
0.14
0.49
0.76
0.61
0.67
0.64
0.64
0.57
0.12
0.03
0.01
0.01
0.00
0.03
0.07
0.07
0.14
0.15
0.16
0.17
0.17
0.20
0.23
0.27
0.29
0.38
0.40
0.45
0.46
0.48
0.49
0.49
0.47
0.45
0.40
0.29
0.17
0.14
0.07
0.03
0.00
0.03
0.00
0.04
0.07
0.09
0.09
0.07
0.09
0.09
0.09
0.12
0.12
0.12
0.09
0.12
0.15
0.12
0.14
0.12
0.12
0.09
0.12
0.12
0.09
0.07
0.06
0.04
0.06
0.04
0.04
0.03
0.00
0.00
0.03
0.03
0.03
0.00
0.00
0.00
0.00
0.00
0.00
0.00
0.00
0.00
0.00
0.00
0.03
0.00
0.00
0.03
0.06
0.09
0.07
0.15
0.19
0.17
0.14
0.04
0.01
0.01
0.01
0.01
0.01
0.01
0.01
0.00
0.00
0.34
0.63
0.76
0.67
0.78
0.63
0.64
0.50
0.01
0.01
0.04
0.06
0.09
0.15
0.16
0.17
0.17
0.17
0.17
0.20
0.21
0.23
0.23
0.25
0.27
0.34
0.34
0.38
0.39
0.39
0.40
0.39
0.31
0.27
0.21
0.17
0.09
0.01
0.00
0.01
0.01
0.01
0.00
0.00
0.01
0.01
0.01
0.01
0.01
0.00
0.01
0.01
0.01
0.01
0.01
0.01
0.00
0.00
0.00
0.00
0.03
0.00
0.03
0.03
0.04
0.00
0.00
0.00
0.00
0.00
0.00
0.00
0.00
0.00
0.00
0.00
0.00
0.00
0.01
0.00
0.01
0.00
0.00
0.00
0.01
0.01
0.01
0.01
0.03
0.04
0.00
0.12
0.12
0.16
0.09
0.03
0.00
0.06
0.09
0.05
0.01
0.01
0.03
0.01
0.05
0.01
0.46
0.76
0.57
0.76
0.75
0.63
0.57
0.29
0.01
0.00
0.01
0.00
0.06
0.06
0.07
0.07
0.12
0.14
0.15
0.17
0.17
0.17
0.19
0.20
0.23
0.29
0.27
0.31
0.31
0.34
0.34
0.31
0.27
0.23
0.19
0.14
0.06
0.00
0.01
0.00
0.00
0.00
0.01
0.00
0.00
0.03
0.03
0.00
0.00
0.03
0.00
0.00
0.00
0.03
0.03
0.03
0.03
0.04
0.04
0.04
0.03
0.06
0.04
0.03
0.06
0.00
0.03
0.03
0.03
0.00
0.03
0.01
0.00
0.00
0.01
0.01
0.01
0.01
0.01
0.01
0.01
0.00
0.00
0.01
0.00
0.00
0.00
0.00
0.03
0.15
0.12
0.00
0.01
0.12
0.24
0.12
0.09
0.12
0.09
0.12
0.15
0.24
0.15
0.47
0.78
0.63
0.75
0.62
0.65
0.57
0.06
0.12
0.05
0.03
0.01
0.01
0.01
0.01
0.01
0.01
0.00
0.00
0.03
0.03
0.03
0.04
0.04
0.06
0.06
0.04
0.07
0.06
0.04
0.03
0.00
0.00
0.01
0.01
0.03
0.06
0.12
0.12
0.12
0.06
0.03
0.01
0.01
0.00
0.01
0.01
0.00
0.01
0.00
0.00
0.00
0.01
0.00
0.00
0.00
0.01
0.00
0.00
0.01
0.00
0.00
0.00
0.00
0.01
0.00
0.01
0.01
0.00
0.00
0.01
0.01
0.01
0.01
0.00
0.03
0.05
0.06
0.01
0.01
0.00
0.01
0.00
0.03
0.06
0.00
0.00
0.05
0.24
0.15
0.15
0.12
0.12
0.12
0.12
0.24
0.04
0.38
0.75
0.57
0.63
0.63
0.64
0.58
0.32
0.12
0.09
0.05
0.01
0.01
0.01
0.01
0.01
0.01
0.01
0.03
0.04
0.06
0.06
0.06
0.04
0.07
0.09
0.09
0.09
0.09
0.12
0.07
0.07
0.03
0.01
0.01
0.00
0.03
0.06
0.09
0.09
0.05
0.05
0.01
0.01
0.01
0.00
0.01
0.00
0.01
0.00
0.00
0.00
0.01
0.00
0.01
0.00
0.00
0.00
0.00
0.01
0.00
0.01
0.01
0.01
0.01
0.01
0.01
0.01
0.00
0.01
0.01
0.01
0.01
0.01
0.01
0.00
0.00
0.01
0.04
0.00
0.12
0.12
0.17
0.06
0.04
0.00
0.06
0.05
0.03
0.03
0.01
0.03
0.03
0.03
0.00
0.45
0.74
0.46
0.77
0.77
0.64
0.59
0.43
0.03
0.03
0.01
0.00
0.01
0.00
0.01
0.00
0.00
0.03
0.03
0.04
0.06
0.09
0.14
0.15
0.17
0.17
0.19
0.25
0.27
0.27
0.23
0.21
0.21
0.17
0.15
0.04
0.00
0.05
0.09
0.09
0.06
0.06
0.03
0.01
0.01
0.01
0.01
0.00
0.01
0.01
0.00
0.01
0.00
0.00
0.00
0.00
0.01
0.01
0.00
0.01
0.01
0.00
0.01
0.01
0.01
0.00
0.00
0.00
0.00
0.01
0.00
0.00
0.01
0.01
0.01
0.01
0.01
0.01
0.01
0.00
0.00
0.01
0.03
0.00
0.16
0.06
0.01
0.01
0.15
0.24
0.15
0.12
0.12
0.12
0.12
0.12
0.15
0.29
0.63
0.34
0.78
0.82
0.64
0.62
0.54
0.06
0.06
0.01
0.01
0.00
0.01
0.01
0.03
0.00
0.03
0.06
0.09
0.14
0.16
0.16
0.17
0.17
0.19
0.21
0.25
0.27
0.25
0.25
0.23
0.23
0.19
0.16
0.07
0.00
0.00
0.00
0.01
0.00
0.00
0.01
0.01
0.01
0.00
0.00
0.01
0.01
0.01
0.01
0.00
0.01
0.00
0.00
0.00
0.00
0.00
0.00
0.00
0.00
0.00
0.00
0.00
0.00
0.00
0.01
0.01
0.01
0.01
0.01
0.01
0.01
0.01
0.01
0.01
0.00
0.00
0.01
0.00
0.01
0.00
0.04
0.01
0.07
0.12
0.16
0.06
0.00
0.03
0.15
0.12
0.12
0.09
0.05
0.06
0.05
0.09
0.03
0.47
0.79
0.64
0.78
0.67
0.63
0.57
0.19
0.12
0.06
0.03
0.01
0.01
0.01
0.00
0.03
0.00
0.04
0.06
0.09
0.09
0.12
0.15
0.15
0.17
0.17
0.19
0.19
0.19
0.20
0.17
0.17
0.15
0.12
0.03
0.01
0.01
0.03
0.05
0.05
0.03
0.01
0.01
0.00
0.00
0.00
0.00
0.00
0.00
0.00
0.01
0.00
0.00
0.00
0.01
0.01
0.01
0.00
0.00
0.00
0.00
0.00
0.00
0.00
0.00
0.01
0.01
0.00
0.01
0.03
0.01
0.03
0.01
0.03
0.03
0.05
0.03
0.06
0.01
0.01
0.01
0.00
0.00
0.16
0.06
0.00
0.00
0.15
0.19
0.15
0.12
0.12
0.12
0.12
0.15
0.32
0.17
0.62
0.72
0.64
0.69
0.62
0.61
0.57
0.12
0.15
0.12
0.09
0.06
0.01
0.00
0.00
0.01
0.01
0.01
0.01
0.00
0.00
0.03
0.00
0.03
0.03
0.06
0.06
0.04
0.04
0.00
0.01
0.00
0.01
0.00
0.00
0.05
0.03
0.01
0.03
0.01
0.01
0.01
0.00
0.01
0.00
0.01
0.01
0.00
0.01
0.00
0.01
0.01
0.00
0.00
0.01
0.01
0.01
0.00
0.00
0.01
0.01
0.00
0.00
0.00
0.00
0.01
0.01
0.01
0.03
0.03
0.05
0.01
0.05
0.03
0.01
0.01
0.05
0.05
0.01
0.00
0.01
0.00
0.14
0.09
0.00
0.01
0.05
0.09
0.06
0.06
0.09
0.09
0.06
0.05
0.12
0.12
0.44
0.75
0.60
0.66
0.64
0.64
0.59
0.34
0.15
0.06
0.05
0.03
0.01
0.00
0.01
0.01
0.00
0.00
0.01
0.00
0.04
0.06
0.07
0.09
0.12
0.15
0.17
0.17
0.19
0.19
0.20
0.17
0.17
0.17
0.09
0.04
0.01
0.00
0.00
0.00
0.01
0.00
0.01
0.01
0.00
0.00
0.00
0.03
0.00
0.00
0.00
0.03
0.03
0.00
0.03
0.00
0.03
0.03
0.00
0.01
0.01
0.01
0.00
0.01
0.01
0.00
0.01
0.00
0.00
0.00
0.00
0.01
0.01
0.01
0.01
0.00
0.01
0.01
0.00
0.01
0.07
0.12
0.17
0.04
0.00
0.01
0.12
0.06
0.06
0.03
0.06
0.06
0.06
0.09
0.01
0.48
0.76
0.60
0.82
0.79
0.66
0.57
0.34
0.03
0.01
0.00
0.00
0.03
0.04
0.04
0.07
0.09
0.12
0.14
0.16
0.17
0.17
0.20
0.23
0.27
0.27
0.34
0.38
0.39
0.40
0.38
0.31
0.27
0.23
0.17
0.12
0.03
0.00
0.01
0.00
0.00
0.01
0.01
0.00
0.00
0.00
0.00
0.00
0.00
0.00
0.03
0.03
0.03
0.06
0.07
0.04
0.06
0.07
0.07
0.07
0.07
0.06
0.06
0.03
0.04
0.03
0.03
0.00
0.00
0.01
0.01
0.00
0.01
0.01
0.01
0.01
0.01
0.01
0.06
0.06
0.03
0.09
0.17
0.17
0.07
0.00
0.01
0.12
0.09
0.06
0.05
0.03
0.06
0.06
0.05
0.01
0.47
0.78
0.62
0.81
0.75
0.64
0.57
0.19
0.01
0.01
0.01
0.00
0.04
0.04
0.06
0.09
0.12
0.12
0.15
0.16
0.17
0.17
0.17
0.20
0.21
0.23
0.25
0.27
0.25
0.29
0.27
0.27
0.20
0.19
0.16
0.09
0.00
0.01
0.00
0.01
0.00
0.00
0.01
0.01
0.01
0.01
0.01
0.01
0.01
0.01
0.01
0.01
0.01
0.01
0.00
0.00
0.00
0.00
0.00
0.00
0.03
0.03
0.00
0.00
0.00
0.01
0.01
0.01
0.01
0.01
0.01
0.01
0.01
0.01
0.01
0.00
0.00
0.00
0.00
0.00
0.01
0.00
0.07
0.01
0.07
0.06
0.17
0.12
0.04
0.00
0.12
0.12
0.06
0.01
0.01
0.06
0.03
0.06
0.06
0.20
0.59
0.78
0.67
0.78
0.63
0.64
0.55
0.06
0.12
0.03
0.01
0.00
0.00
0.01
0.01
0.01
0.00
0.00
0.03
0.03
0.00
0.04
0.04
0.04
0.04
0.06
0.07
0.07
0.09
0.07
0.07
0.04
0.00
0.00
0.01
0.01
0.05
0.06
0.05
0.09
0.01
0.01
0.00
0.00
0.01
0.00
0.01
0.00
0.01
0.01
0.00
0.01
0.00
0.00
0.00
0.00
0.00
0.00
0.00
0.15
0.06
0.06
0.15
0.32
0.58
0.49
0.80
0.87
0.90
0.94
0.95
0.96
0.96
0.93
0.80
0.23
0.21
0.15
0.19
0.24
0.32
0.42
0.42
0.43
0.39
0.47
0.54
0.55
0.57
0.58
0.60
0.62
0.63
0.65
0.64
0.64
0.64
0.63
0.64
0.63
0.60
0.57
0.54
0.45
0.34
0.12
0.03
0.01
0.00
0.01
0.01
0.01
0.00
0.00
0.00
0.01
0.01
0.00
0.00
0.01
0.01
0.01
0.01
0.00
0.00
0.01
0.01
0.00
0.01
0.00
0.00
0.00
0.01
0.00
0.00
0.00
0.00
0.00
0.01
0.01
0.01
0.00
0.00
0.00
0.00
0.01
0.01
0.01
0.01
0.00
0.00
0.00
0.00
0.01
0.01
