0.00
0.09
0.03
0.09
0.03
0.09
0.03
0.00
0.00
0.01
0.00
0.02
0.01
0.03
0.01
0.03
0.04
0.07
0.04
0.07
0.04
0.02
0.16
0.01
0.35
0.16
0.09
0.20
0.30
0.35
0.00
0.16
0.00
0.09
0.03
0.00
0.15
0.00
0.17
0.02
0.10
0.03
0.07
0.19
0.18
0.55
0.09
0.82
0.86
0.83
0.76
0.81
0.68
0.02
0.19
0.22
0.22
0.22
0.18
0.19
0.21
0.19
0.26
0.19
0.21
0.19
0.21
0.17
0.19
0.18
0.19
0.18
0.17
0.19
0.18
0.26
0.19
0.21
0.19
0.19
0.17
0.19
0.15
0.19
0.02
0.03
0.00
0.01
0.00
0.04
0.01
0.04
0.00
0.09
0.02
0.09
0.00
0.16
0.00
0.04
0.00
0.04
0.00
0.00
0.00
0.00
0.00
0.03
0.00
0.03
0.04
0.07
0.04
0.07
0.00
0.07
0.04
0.07
0.00
0.02
0.04
0.01
0.04
0.09
0.09
0.09
0.01
0.30
0.09
0.30
0.02
0.09
0.07
0.00
0.10
0.02
0.17
0.03
0.17
0.10
0.15
0.10
0.19
0.26
0.37
0.10
0.82
0.80
0.85
0.75
0.81
0.61
0.01
0.19
0.17
0.19
0.21
0.19
0.30
0.17
0.30
0.18
0.37
0.19
0.30
0.19
0.26
0.26
0.19
0.37
0.21
0.55
0.19
0.47
0.19
0.47
0.19
0.30
0.17
0.26
0.19
0.17
0.17
0.19
0.02
0.00
0.00
0.04
0.00
0.30
0.16
0.57
0.09
0.35
0.00
0.16
0.00
0.00
0.03
0.07
0.03
0.15
0.07
0.17
0.03
0.19
0.07
0.22
0.03
0.22
0.07
0.18
0.55
0.82
0.61
0.78
0.88
0.78
0.77
0.75
0.01
0.19
0.17
0.19
0.21
0.19
0.30
0.17
0.37
0.18
0.37
0.19
0.47
0.18
0.37
0.19
0.37
0.30
0.30
0.47
0.19
0.47
0.19
0.47
0.19
0.26
0.19
0.18
0.19
0.22
0.22
0.03
0.15
0.01
0.07
0.00
0.07
0.00
0.07
0.01
0.03
0.01
0.07
0.02
0.02
0.02
0.02
0.07
0.00
0.10
0.00
0.15
0.01
0.10
0.00
0.07
0.00
0.10
0.03
0.07
0.02
0.03
0.07
0.02
0.07
0.00
0.10
0.01
0.07
0.01
0.10
0.01
0.10
0.00
0.07
0.02
0.02
0.03
0.02
0.07
0.00
0.10
0.00
0.10
0.01
0.15
0.01
0.10
0.00
0.07
0.01
0.00
0.09
0.09
0.00
0.20
0.09
0.35
0.01
0.09
0.03
0.00
0.15
0.01
0.15
0.02
0.19
0.07
0.15
0.07
0.10
0.19
0.18
0.68
0.03
0.80
0.81
0.85
0.80
0.78
0.77
0.10
0.22
0.19
0.22
0.19
0.18
0.19
0.26
0.19
0.30
0.17
0.26
0.17
0.30
0.19
0.26
0.21
0.21
0.21
0.19
0.30
0.19
0.26
0.22
0.21
0.22
0.18
0.19
0.19
0.17
0.22
0.10
0.10
0.03
0.00
0.01
0.00
0.00
0.04
0.02
0.16
0.03
0.09
0.00
0.04
0.00
0.00
0.00
0.00
0.04
0.02
0.16
0.00
0.09
0.02
0.09
0.03
0.04
0.02
0.04
0.02
0.00
0.00
0.00
0.01
0.03
0.04
0.03
0.04
0.07
0.04
0.07
0.04
0.03
0.09
0.00
0.35
0.01
0.04
0.09
0.30
0.00
0.09
0.00
0.02
0.01
0.07
0.02
0.19
0.07
0.19
0.02
0.22
0.03
0.22
0.19
0.82
0.19
0.82
0.83
0.95
0.80
0.77
0.67
0.00
0.18
0.19
0.19
0.19
0.30
0.18
0.47
0.19
0.37
0.26
0.26
0.30
0.26
0.37
0.21
0.55
0.21
0.55
0.19
0.55
0.19
0.47
0.18
0.30
0.18
0.21
0.17
0.19
0.19
0.17
0.19
0.02
0.10
0.00
0.02
0.16
0.02
0.16
0.02
0.09
0.00
0.04
0.04
0.00
0.04
0.00
0.09
0.03
0.09
0.02
0.09
0.02
0.00
0.00
0.01
0.01
0.00
0.00
0.02
0.09
0.03
0.09
0.03
0.04
0.03
0.00
0.03
0.00
0.03
0.00
0.01
0.01
0.09
0.00
0.30
0.00
0.30
0.04
0.20
0.00
0.09
0.07
0.09
0.03
0.02
0.10
0.10
0.15
0.15
0.07
0.10
0.07
0.26
0.47
0.19
0.83
0.81
0.99
0.81
0.76
0.64
0.01
0.19
0.19
0.19
0.18
0.18
0.26
0.19
0.37
0.19
0.47
0.19
0.55
0.19
0.55
0.26
0.68
0.30
0.68
0.37
0.47
0.37
0.37
0.37
0.21
0.47
0.18
0.30
0.19
0.19
0.19
0.22
0.10
0.15
0.03
0.03
0.03
0.01
0.07
0.01
0.10
0.00
0.07
0.01
0.07
0.00
0.02
0.00
0.01
0.02
0.01
0.10
0.01
0.03
0.00
0.10
0.00
0.15
0.01
0.10
0.01
0.03
0.00
0.03
0.02
0.02
0.02
0.02
0.03
0.01
0.07
0.04
0.03
0.09
0.00
0.16
0.09
0.09
0.09
0.20
0.20
0.04
0.09
0.02
0.04
0.02
0.01
0.17
0.00
0.19
0.02
0.17
0.02
0.17
0.22
0.78
0.19
0.75
0.76
0.91
0.81
0.76
0.80
0.20
0.22
0.17
0.18
0.22
0.18
0.22
0.21
0.17
0.26
0.18
0.19
0.21
0.17
0.21
0.19
0.30
0.19
0.37
0.19
0.30
0.19
0.26
0.19
0.21
0.19
0.17
0.19
0.22
0.22
0.07
0.10
0.00
0.03
0.20
0.00
0.20
0.00
0.20
0.09
0.09
0.16
0.09
0.16
0.04
0.20
0.04
0.30
0.00
0.30
0.01
0.30
0.00
0.30
0.01
0.20
0.00
0.16
0.00
0.09
0.09
0.00
0.20
0.01
0.20
0.01
0.30
0.01
0.30
0.01
0.44
0.09
0.44
0.30
0.50
0.16
0.50
0.50
0.44
0.44
0.04
0.20
0.01
0.35
0.03
0.09
0.07
0.04
0.07
0.04
0.07
0.00
0.19
0.21
0.19
0.68
0.77
0.86
0.86
0.76
0.80
0.35
0.04
0.19
0.15
0.19
0.22
0.19
0.17
0.22
0.18
0.19
0.21
0.19
0.19
0.22
0.21
0.22
0.18
0.19
0.19
0.18
0.19
0.19
0.22
0.19
0.19
0.17
0.17
0.17
0.07
0.19
0.03
0.02
0.00
0.09
0.04
0.20
0.09
0.20
0.00
0.35
0.00
0.35
0.01
0.35
0.00
0.35
0.00
0.35
0.00
0.20
0.04
0.16
0.16
0.01
0.20
0.02
0.20
0.01
0.30
0.00
0.30
0.00
0.20
0.01
0.20
0.04
0.09
0.16
0.09
0.20
0.16
0.57
0.20
0.44
0.09
0.64
0.16
0.50
0.00
0.20
0.00
0.16
0.00
0.00
0.02
0.03
0.03
0.03
0.01
0.07
0.22
0.68
0.22
0.75
0.78
0.86
0.83
0.76
0.82
0.09
0.10
0.19
0.22
0.19
0.19
0.22
0.21
0.19
0.30
0.19
0.30
0.19
0.21
0.17
0.19
0.19
0.18
0.30
0.17
0.37
0.19
0.30
0.19
0.26
0.19
0.19
0.19
0.19
0.22
0.19
0.19
0.02
0.03
0.04
0.02
0.20
0.00
0.16
0.00
0.20
0.00
0.09
0.00
0.04
0.09
0.04
0.09
0.01
0.09
0.00
0.09
0.02
0.16
0.03
0.09
0.02
0.16
0.02
0.04
0.03
0.00
0.01
0.00
0.00
0.01
0.09
0.02
0.20
0.00
0.30
0.00
0.50
0.04
0.44
0.16
0.61
0.04
0.35
0.01
0.09
0.00
0.00
0.03
0.02
0.00
0.07
0.01
0.15
0.01
0.22
0.19
0.78
0.20
0.83
0.86
0.83
0.76
0.81
0.64
0.04
0.22
0.17
0.18
0.19
0.19
0.22
0.21
0.19
0.19
0.19
0.19
0.18
0.19
0.19
0.18
0.26
0.19
0.30
0.19
0.30
0.19
0.30
0.19
0.19
0.22
0.19
0.22
0.22
0.19
0.07
0.10
0.04
0.02
0.30
0.00
0.35
0.00
0.30
0.00
0.20
0.04
0.16
0.09
0.04
0.30
0.00
0.30
0.01
0.35
0.00
0.30
0.01
0.30
0.00
0.09
0.09
0.00
0.20
0.01
0.20
0.00
0.20
0.02
0.20
0.01
0.30
0.00
0.20
0.16
0.44
0.35
0.44
0.20
0.35
0.57
0.20
0.50
0.04
0.30
0.01
0.30
0.02
0.04
0.07
0.04
0.07
0.04
0.07
0.01
0.17
0.19
0.07
0.82
0.82
0.94
0.78
0.76
0.80
0.00
0.00
0.22
0.07
0.19
0.15
0.19
0.19
0.19
0.22
0.19
0.17
0.22
0.18
0.22
0.19
0.22
0.21
0.22
0.21
0.19
0.18
0.19
0.18
0.19
0.22
0.19
0.19
0.19
0.03
0.17
0.04
0.03
0.20
0.01
0.30
0.04
0.20
0.16
0.16
0.20
0.04
0.30
0.00
0.35
0.00
0.44
0.00
0.35
0.04
0.30
0.09
0.09
0.16
0.04
0.20
0.01
0.30
0.01
0.30
0.02
0.20
0.00
0.30
0.00
0.20
0.00
0.16
0.09
0.16
0.30
0.30
0.44
0.09
0.50
0.35
0.50
0.04
0.35
0.00
0.20
0.00
0.09
0.10
0.00
0.15
0.04
0.10
0.00
0.10
0.19
0.21
0.18
0.75
0.75
0.97
0.80
0.77
0.80
0.50
0.22
0.15
0.19
0.19
0.19
0.19
0.19
0.17
0.22
0.19
0.22
0.19
0.22
0.26
0.19
0.19
0.18
0.17
0.19
0.19
0.21
0.19
0.21
0.22
0.26
0.22
0.18
0.15
0.19
0.10
0.17
0.00
0.02
0.20
0.16
0.20
0.35
0.44
0.67
0.35
0.61
0.16
0.50
0.00
0.35
0.02
0.04
0.02
0.00
0.00
0.03
0.01
0.10
0.00
0.10
0.00
0.17
0.01
0.19
0.22
0.87
0.19
0.80
0.81
0.86
0.81
0.77
0.75
0.00
0.17
0.17
0.17
0.22
0.19
0.22
0.26
0.19
0.26
0.19
0.30
0.19
0.30
0.17
0.26
0.19
0.21
0.21
0.21
0.30
0.19
0.30
0.17
0.30
0.19
0.21
0.19
0.19
0.03
0.15
0.01
0.03
0.04
0.00
0.01
0.04
0.00
0.16
0.02
0.16
0.03
0.16
0.03
0.04
0.00
0.00
0.01
0.00
0.04
0.02
0.09
0.07
0.09
0.07
0.16
0.07
0.04
0.03
0.00
0.02
0.00
0.00
0.00
0.00
0.02
0.09
0.07
0.09
0.07
0.09
0.03
0.09
0.02
0.00
0.02
0.00
0.00
0.00
0.00
0.00
0.00
0.02
0.09
0.03
0.09
0.07
0.16
0.03
0.16
0.02
0.20
0.00
0.35
0.04
0.20
0.35
0.35
0.35
0.09
0.30
0.00
0.09
0.03
0.04
0.15
0.01
0.15
0.00
0.10
0.01
0.07
0.19
0.21
0.19
0.72
0.76
1.00
0.88
0.83
0.83
0.67
0.22
0.19
0.19
0.22
0.19
0.22
0.26
0.19
0.21
0.18
0.19
0.19
0.17
0.26
0.18
0.37
0.19
0.37
0.19
0.26
0.17
0.18
0.18
0.17
0.17
0.19
0.17
0.17
0.17
0.07
0.19
0.02
0.15
0.00
0.02
0.04
0.00
0.00
0.16
0.01
0.20
0.00
0.20
0.00
0.20
0.01
0.16
0.01
0.09
0.00
0.00
0.00
0.00
0.16
0.02
0.20
0.03
0.09
0.07
0.09
0.07
0.04
0.02
0.01
0.01
0.02
0.01
0.03
0.04
0.07
0.04
0.10
0.04
0.07
0.09
0.03
0.20
0.04
0.16
0.01
0.35
0.09
0.16
0.00
0.00
0.00
0.00
0.00
0.07
0.03
0.17
0.02
0.15
0.00
0.19
0.17
0.78
0.19
0.61
0.77
0.99
0.97
0.80
0.83
0.30
0.17
0.19
0.17
0.19
0.21
0.19
0.37
0.17
0.37
0.18
0.37
0.19
0.26
0.26
0.21
0.37
0.19
0.55
0.19
0.55
0.18
0.55
0.17
0.47
0.19
0.26
0.19
0.19
0.19
0.22
0.22
0.03
0.19
0.01
0.10
0.04
0.07
0.04
0.03
0.00
0.02
0.00
0.00
0.00
0.01
0.03
0.00
0.03
0.04
0.10
0.04
0.07
0.04
0.07
0.01
0.03
0.00
0.03
0.03
0.02
0.03
0.00
0.10
0.00
0.17
0.01
0.17
0.01
0.15
0.00
0.10
0.01
0.02
0.00
0.00
0.00
0.20
0.01
0.04
0.04
0.20
0.01
0.09
0.07
0.00
0.15
0.00
0.19
0.03
0.22
0.03
0.19
0.07
0.15
0.22
0.26
0.82
0.00
0.82
0.86
0.83
0.78
0.82
0.64
0.22
0.22
0.21
0.19
0.30
0.17
0.26
0.26
0.21
0.47
0.18
0.47
0.18
0.68
0.19
0.55
0.21
0.68
0.30
0.55
0.26
0.37
0.37
0.26
0.37
0.18
0.37
0.19
0.21
0.22
0.19
0.10
0.17
0.03
0.03
0.02
0.00
0.03
0.04
0.07
0.04
0.10
0.09
0.07
0.09
0.07
0.00
0.07
0.00
0.07
0.01
0.03
0.00
0.03
0.03
0.01
0.15
0.01
0.17
0.01
0.15
0.01
0.15
0.01
0.10
0.00
0.10
0.00
0.07
0.02
0.00
0.00
0.04
0.00
0.20
0.00
0.20
0.00
0.30
0.03
0.09
0.15
0.01
0.15
0.03
0.15
0.15
0.10
0.17
0.10
0.17
0.03
0.18
0.26
0.75
0.50
0.82
0.88
0.80
0.76
0.80
0.20
0.22
0.22
0.19
0.19
0.19
0.26
0.19
0.37
0.17
0.47
0.17
0.47
0.18
0.26
0.19
0.26
0.26
0.21
0.30
0.19
0.47
0.18
0.37
0.17
0.37
0.19
0.26
0.22
0.18
0.15
0.19
0.03
0.03
0.00
0.01
0.00
0.00
0.00
0.16
0.02
0.16
0.03
0.16
0.02
0.16
0.02
0.09
0.02
0.04
0.01
0.00
0.00
0.02
0.04
0.03
0.04
0.07
0.04
0.07
0.00
0.03
0.00
0.00
0.02
0.01
0.03
0.00
0.07
0.09
0.03
0.20
0.00
0.44
0.04
0.16
0.09
0.35
0.09
0.09
0.00
0.00
0.01
0.03
0.00
0.15
0.02
0.19
0.02
0.19
0.01
0.19
0.22
0.75
0.18
0.75
0.77
0.91
0.80
0.77
0.79
0.16
0.22
0.17
0.18
0.19
0.18
0.19
0.21
0.19
0.19
0.17
0.21
0.18
0.19
0.19
0.19
0.30
0.17
0.30
0.18
0.37
0.17
0.37
0.17
0.30
0.19
0.18
0.19
0.19
0.22
0.17
0.10
0.02
0.00
0.09
0.00
0.09
0.02
0.16
0.00
0.16
0.00
0.09
0.00
0.04
0.04
0.01
0.04
0.01
0.04
0.00
0.09
0.00
0.16
0.03
0.04
0.02
0.09
0.02
0.00
0.00
0.01
0.01
0.02
0.00
0.03
0.04
0.03
0.16
0.00
0.16
0.00
0.35
0.09
0.20
0.16
0.44
0.16
0.09
0.09
0.00
0.04
0.03
0.01
0.10
0.00
0.17
0.00
0.17
0.00
0.17
0.19
0.68
0.19
0.80
0.77
0.91
0.77
0.77
0.75
0.16
0.22
0.17
0.19
0.22
0.19
0.19
0.21
0.19
0.21
0.18
0.18
0.18
0.17
0.19
0.17
0.30
0.17
0.30
0.17
0.30
0.19
0.30
0.17
0.21
0.17
0.17
0.19
0.22
0.22
0.07
0.19
0.01
0.07
0.16
0.02
0.09
0.01
0.09
0.00
0.04
0.04
0.01
0.04
0.01
0.09
0.01
0.09
0.02
0.16
0.02
0.09
0.03
0.09
0.02
0.04
0.02
0.01
0.00
0.00
0.01
0.00
0.00
0.02
0.04
0.03
0.04
0.02
0.09
0.01
0.16
0.09
0.30
0.09
0.16
0.30
0.30
0.30
0.00
0.16
0.02
0.09
0.03
0.00
0.15
0.00
0.15
0.02
0.10
0.02
0.19
0.19
0.47
0.20
0.81
0.85
0.86
0.76
0.75
0.57
0.00
0.22
0.17
0.17
0.19
0.17
0.19
0.17
0.19
0.19
0.18
0.22
0.19
0.19
0.19
0.19
0.21
0.22
0.19
0.19
0.19
0.19
0.18
0.19
0.19
0.22
0.22
0.22
0.15
0.19
0.02
0.10
0.09
0.00
0.30
0.00
0.20
0.09
0.09
0.16
0.04
0.20
0.04
0.30
0.00
0.30
0.01
0.20
0.00
0.20
0.09
0.09
0.04
0.04
0.09
0.01
0.16
0.01
0.20
0.02
0.16
0.00
0.09
0.00
0.09
0.00
0.04
0.04
0.09
0.30
0.04
0.50
0.20
0.35
0.16
0.61
0.20
0.44
0.00
0.20
0.00
0.09
0.01
0.00
0.00
0.03
0.00
0.07
0.00
0.07
0.02
0.26
0.19
0.16
0.77
0.86
0.85
0.76
0.81
0.50
0.03
0.17
0.22
0.17
0.19
0.17
0.17
0.22
0.18
0.22
0.19
0.22
0.18
0.22
0.19
0.19
0.18
0.19
0.17
0.18
0.17
0.17
0.19
0.18
0.22
0.17
0.17
0.19
0.03
0.17
0.01
0.03
0.09
0.00
0.04
0.16
0.00
0.30
0.00
0.30
0.01
0.35
0.00
0.20
0.00
0.30
0.00
0.16
0.09
0.09
0.09
0.04
0.16
0.00
0.20
0.00
0.20
0.01
0.20
0.00
0.16
0.00
0.16
0.00
0.09
0.04
0.04
0.20
0.04
0.35
0.20
0.57
0.04
0.57
0.30
0.57
0.16
0.35
0.04
0.09
0.16
0.04
0.00
0.03
0.01
0.03
0.00
0.02
0.04
0.19
0.19
0.55
0.44
0.80
0.97
0.86
0.80
0.81
0.64
0.07
0.15
0.17
0.22
0.22
0.19
0.22
0.17
0.22
0.18
0.19
0.19
0.22
0.19
0.19
0.19
0.19
0.19
0.17
0.18
0.17
0.19
0.17
0.17
0.17
0.22
0.19
0.17
0.19
0.02
0.17
0.00
0.00
0.16
0.04
0.16
0.09
0.09
0.16
0.00
0.20
0.00
0.35
0.01
0.20
0.04
0.20
0.04
0.16
0.04
0.09
0.16
0.01
0.16
0.02
0.20
0.02
0.16
0.01
0.16
0.00
0.09
0.00
0.00
0.01
0.00
0.04
0.09
0.09
0.09
0.44
0.16
0.35
0.00
0.61
0.30
0.44
0.16
0.30
0.00
0.16
0.01
0.00
0.00
0.03
0.01
0.03
0.01
0.10
0.07
0.30
0.18
0.30
0.77
0.95
0.98
0.81
0.77
0.68
0.02
0.19
0.19
0.22
0.18
0.19
0.19
0.19
0.21
0.19
0.21
0.19
0.26
0.19
0.21
0.17
0.21
0.19
0.18
0.26
0.17
0.26
0.19
0.21
0.19
0.21
0.22
0.17
0.17
0.22
0.03
0.03
0.01
0.01
0.04
0.04
0.04
0.16
0.01
0.30
0.01
0.30
0.00
0.20
0.01
0.20
0.00
0.16
0.04
0.04
0.04
0.00
0.20
0.01
0.16
0.01
0.20
0.02
0.16
0.00
0.04
0.01
0.00
0.09
0.00
0.09
0.00
0.09
0.00
0.20
0.01
0.44
0.09
0.50
0.00
0.35
0.16
0.35
0.16
0.30
0.04
0.00
0.04
0.00
0.00
0.07
0.01
0.07
0.01
0.10
0.00
0.19
0.21
0.19
0.81
0.80
1.00
0.86
0.80
0.82
0.16
0.07
0.19
0.17
0.19
0.22
0.19
0.19
0.21
0.17
0.19
0.17
0.18
0.19
0.17
0.19
0.17
0.30
0.19
0.26
0.19
0.26
0.19
0.21
0.19
0.19
0.19
0.19
0.22
0.22
0.15
0.07
0.03
0.01
0.02
0.16
0.00
0.16
0.00
0.16
0.00
0.09
0.00
0.04
0.09
0.01
0.16
0.00
0.16
0.00
0.16
0.00
0.16
0.02
0.09
0.00
0.04
0.02
0.00
0.01
0.00
0.01
0.01
0.00
0.00
0.04
0.02
0.16
0.02
0.09
0.02
0.09
0.01
0.16
0.09
0.44
0.16
0.09
0.44
0.20
0.35
0.04
0.16
0.00
0.16
0.03
0.00
0.15
0.00
0.10
0.00
0.03
0.02
0.10
0.19
0.47
0.22
0.82
0.81
0.94
0.77
0.77
0.68
0.16
0.22
0.19
0.17
0.22
0.18
0.19
0.19
0.18
0.18
0.19
0.19
0.21
0.19
0.30
0.17
0.30
0.17
0.30
0.18
0.21
0.19
0.26
0.18
0.19
0.18
0.17
0.19
0.22
0.22
0.10
0.17
0.00
0.07
0.04
0.00
0.09
0.00
0.00
0.04
0.01
0.09
0.00
0.16
0.00
0.16
0.03
0.09
0.00
0.09
0.02
0.00
0.01
0.01
0.01
0.02
0.00
0.03
0.00
0.03
0.04
0.03
0.00
0.03
0.00
0.03
0.01
0.00
0.00
0.00
0.01
0.16
0.09
0.30
0.00
0.30
0.16
0.35
0.01
0.20
0.03
0.00
0.03
0.00
0.03
0.03
0.10
0.07
0.07
0.15
0.03
0.19
0.21
0.37
0.68
0.81
0.86
0.80
0.76
0.82
0.35
0.03
0.19
0.22
0.18
0.19
0.21
0.19
0.21
0.19
0.37
0.19
0.26
0.18
0.26
0.19
0.19
0.21
0.21
0.37
0.18
0.30
0.18
0.37
0.17
0.26
0.19
0.21
0.22
0.18
0.19
0.22
0.03
0.03
0.00
0.01
0.00
0.00
0.00
0.00
0.00
0.04
0.03
0.09
0.03
0.16
0.03
0.04
0.00
0.01
0.01
0.00
0.01
0.02
0.00
0.02
0.04
0.07
0.00
0.07
0.00
0.07
0.00
0.10
0.01
0.10
0.01
0.02
0.00
0.01
0.04
0.16
0.00
0.09
0.00
0.30
0.01
0.16
0.03
0.00
0.07
0.01
0.15
0.03
0.15
0.15
0.10
0.15
0.03
0.19
0.22
0.75
0.21
0.30
0.79
0.83
0.81
0.76
0.82
0.20
0.19
0.22
0.17
0.22
0.19
0.19
0.26
0.17
0.21
0.18
0.26
0.21
0.19
0.26
0.21
0.26
0.19
0.30
0.19
0.37
0.18
0.37
0.18
0.37
0.17
0.26
0.19
0.17
0.15
0.10
0.00
0.20
0.35
0.44
0.30
0.30
0.04
0.30
0.00
0.00
0.10
0.01
0.15
0.00
0.10
0.00
0.15
0.00
0.10
0.03
0.03
0.07
0.02
0.18
0.47
0.18
0.82
0.80
0.85
0.76
0.78
0.72
0.01
0.17
0.22
0.19
0.18
0.19
0.18
0.17
0.26
0.19
0.26
0.19
0.30
0.17
0.26
0.17
0.30
0.18
0.26
0.19
0.26
0.18
0.19
0.19
0.19
0.18
0.19
0.19
0.07
0.15
0.01
0.02
0.04
0.01
0.04
0.00
0.00
0.00
0.00
0.09
0.02
0.09
0.02
0.09
0.02
0.04
0.01
0.00
0.01
0.01
0.00
0.00
0.01
0.02
0.04
0.02
0.00
0.02
0.09
0.03
0.04
0.02
0.04
0.00
0.00
0.00
0.00
0.01
0.02
0.00
0.00
0.04
0.03
0.09
0.03
0.04
0.03
0.04
0.01
0.01
0.00
0.01
0.01
0.00
0.00
0.02
0.00
0.02
0.04
0.01
0.20
0.04
0.20
0.00
0.50
0.16
0.35
0.00
0.09
0.00
0.00
0.00
0.03
0.01
0.15
0.00
0.15
0.00
0.17
0.02
0.15
0.19
0.26
0.22
0.81
0.77
0.91
0.77
0.77
0.79
0.20
0.19
0.22
0.19
0.19
0.19
0.18
0.19
0.26
0.19
0.26
0.19
0.30
0.19
0.26
0.17
0.26
0.18
0.21
0.18
0.19
0.18
0.17
0.18
0.19
0.18
0.19
0.19
0.15
0.22
0.07
0.17
0.00
0.03
0.04
0.01
0.04
0.00
0.00
0.00
0.01
0.04
0.00
0.09
0.02
0.09
0.00
0.16
0.02
0.09
0.02
0.00
0.00
0.01
0.01
0.00
0.00
0.02
0.01
0.03
0.00
0.03
0.00
0.07
0.01
0.10
0.00
0.07
0.01
0.15
0.00
0.03
0.04
0.01
0.20
0.04
0.00
0.09
0.16
0.20
0.00
0.09
0.03
0.00
0.07
0.00
0.17
0.03
0.19
0.07
0.19
0.07
0.15
0.22
0.21
0.55
0.04
0.82
0.82
0.81
0.77
0.82
0.67
0.15
0.22
0.18
0.17
0.19
0.19
0.18
0.21
0.19
0.30
0.18
0.37
0.18
0.37
0.18
0.37
0.19
0.30
0.26
0.30
0.26
0.26
0.30
0.18
0.26
0.17
0.26
0.19
0.19
0.19
0.19
0.07
0.15
0.00
0.03
0.00
0.00
0.02
0.00
0.02
0.00
0.03
0.00
0.07
0.04
0.03
0.00
0.00
0.00
0.00
0.02
0.00
0.03
0.01
0.07
0.00
0.07
0.00
0.07
0.00
0.10
0.01
0.07
0.01
0.10
0.00
0.03
0.00
0.00
0.00
0.09
0.04
0.30
0.00
0.30
0.09
0.30
0.00
0.09
0.03
0.00
0.07
0.00
0.15
0.07
0.15
0.10
0.10
0.10
0.10
0.17
0.37
0.30
0.72
0.78
0.91
0.80
0.76
0.81
0.20
0.19
0.19
0.19
0.17
0.19
0.21
0.19
0.30
0.18
0.37
0.18
0.37
0.18
0.47
0.19
0.37
0.30
0.30
0.37
0.21
0.47
0.21
0.47
0.18
0.37
0.17
0.26
0.19
0.17
0.19
0.19
0.19
0.03
0.10
0.01
0.03
0.04
0.03
0.04
0.02
0.00
0.02
0.00
0.01
0.01
0.00
0.00
0.00
0.02
0.01
0.03
0.00
0.07
0.00
0.10
0.01
0.07
0.00
0.03
0.00
0.02
0.03
0.02
0.03
0.00
0.07
0.00
0.02
0.09
0.03
0.20
0.00
0.20
0.02
0.35
0.09
0.16
0.01
0.00
0.02
0.00
0.03
0.10
0.03
0.17
0.07
0.19
0.03
0.17
0.10
0.37
0.47
0.00
0.81
0.85
0.91
0.78
0.81
0.50
0.10
0.19
0.18
0.19
0.26
0.19
0.37
0.19
0.30
0.21
0.30
0.30
0.21
0.37
0.21
0.47
0.18
0.47
0.21
0.55
0.19
0.55
0.19
0.37
0.18
0.26
0.18
0.19
0.17
0.19
0.19
0.15
0.15
0.00
0.07
0.00
0.07
0.04
0.07
0.04
0.02
0.00
0.02
0.00
0.00
0.02
0.00
0.02
0.00
0.03
0.01
0.10
0.00
0.07
0.01
0.10
0.01
0.07
0.02
0.07
0.03
0.02
0.07
0.00
0.07
0.01
0.10
0.00
0.10
0.00
0.10
0.04
0.00
0.20
0.03
0.04
0.04
0.09
0.01
0.01
0.02
0.07
0.00
0.15
0.07
0.22
0.10
0.22
0.07
0.19
0.10
0.19
0.37
0.75
0.00
0.81
0.86
0.94
0.77
0.79
0.30
0.02
0.21
0.19
0.26
0.18
0.37
0.26
0.37
0.37
0.37
0.55
0.30
0.55
0.30
0.68
0.26
0.68
0.37
0.78
0.30
0.68
0.37
0.47
0.37
0.37
0.30
0.21
0.21
0.19
0.19
0.19
0.19
0.07
0.19
0.02
0.15
0.02
0.15
0.02
0.07
0.03
0.07
0.07
0.00
0.10
0.00
0.10
0.00
0.15
0.00
0.17
0.00
0.15
0.03
0.10
0.07
0.07
0.15
0.07
0.15
0.03
0.17
0.03
0.17
0.03
0.19
0.03
0.17
0.03
0.19
0.02
0.15
0.00
0.07
0.01
0.01
0.03
0.02
0.00
0.09
0.07
0.01
0.15
0.02
0.17
0.07
0.19
0.17
0.22
0.22
0.19
0.22
0.15
0.19
0.19
0.88
0.22
0.75
0.77
0.83
0.77
0.79
0.77
0.00
0.19
0.19
0.19
0.19
0.30
0.18
0.37
0.19
0.47
0.26
0.47
0.26
0.47
0.37
0.37
0.37
0.30
0.55
0.26
0.68
0.26
0.68
0.19
0.47
0.19
0.30
0.19
0.19
0.19
0.22
0.19
0.10
0.10
0.00
0.07
0.04
0.03
0.00
0.07
0.00
0.10
0.00
0.03
0.01
0.02
0.00
0.00
0.00
0.00
0.03
0.01
0.03
0.01
0.15
0.01
0.07
0.01
0.15
0.00
0.03
0.00
0.02
0.02
0.00
0.02
0.02
0.03
0.01
0.00
0.04
0.00
0.16
0.00
0.20
0.00
0.35
0.09
0.09
0.01
0.00
0.02
0.02
0.01
0.10
0.02
0.19
0.03
0.19
0.02
0.19
0.03
0.17
0.37
0.37
0.68
0.78
0.82
0.81
0.77
0.82
0.04
0.15
0.17
0.22
0.19
0.19
0.21
0.19
0.21
0.19
0.21
0.21
0.21
0.37
0.19
0.30
0.18
0.47
0.18
0.47
0.19
0.47
0.19
0.30
0.19
0.30
0.19
0.19
0.17
0.19
0.22
0.07
0.17
0.00
0.10
0.00
0.07
0.04
0.03
0.09
0.03
0.00
0.02
0.01
0.00
0.02
0.00
0.03
0.00
0.07
0.00
0.10
0.00
0.10
0.01
0.07
0.01
0.07
0.00
0.07
0.00
0.03
0.00
0.02
0.02
0.02
0.03
0.00
0.03
0.01
0.03
0.16
0.00
0.16
0.00
0.20
0.09
0.04
0.01
0.01
0.01
0.07
0.01
0.17
0.02
0.22
0.07
0.17
0.07
0.17
0.10
0.22
0.55
0.30
0.16
0.78
0.83
0.82
0.78
0.82
0.04
0.10
0.18
0.22
0.17
0.19
0.18
0.21
0.17
0.37
0.18
0.30
0.17
0.47
0.19
0.37
0.21
0.37
0.30
0.26
0.30
0.21
0.47
0.18
0.47
0.18
0.30
0.17
0.21
0.19
0.19
0.19
0.17
0.15
0.02
0.03
0.01
0.03
0.01
0.03
0.01
0.10
0.00
0.03
0.00
0.10
0.04
0.07
0.00
0.07
0.00
0.03
0.00
0.07
0.02
0.07
0.00
0.07
0.00
0.02
0.03
0.02
0.10
0.00
0.10
0.01
0.15
0.00
0.07
0.00
0.02
0.04
0.00
0.00
0.00
0.04
0.30
0.00
0.04
0.07
0.00
0.17
0.00
0.17
0.03
0.22
0.10
0.19
0.15
0.15
0.19
0.17
0.78
0.22
0.77
0.78
0.83
0.76
0.81
0.77
0.10
0.22
0.18
0.17
0.19
0.21
0.19
0.21
0.19
0.37
0.17
0.47
0.19
0.47
0.19
0.30
0.26
0.30
0.30
0.21
0.37
0.19
0.37
0.17
0.37
0.17
0.30
0.19
0.19
0.22
0.22
0.15
0.10
0.07
0.00
0.07
0.04
0.07
0.00
0.03
0.04
0.10
0.01
0.03
0.00
0.02
0.02
0.01
0.03
0.01
0.10
0.00
0.10
0.02
0.10
0.01
0.10
0.00
0.10
0.00
0.15
0.00
0.10
0.00
0.07
0.02
0.03
0.02
0.01
0.03
0.09
0.00
0.30
0.03
0.20
0.00
0.30
0.02
0.09
0.03
0.00
0.03
0.07
0.10
0.17
0.15
0.17
0.07
0.17
0.10
0.17
0.30
0.47
0.67
0.80
0.86
0.80
0.76
0.82
0.16
0.17
0.17
0.19
0.19
0.19
0.37
0.17
0.47
0.18
0.37
0.19
0.26
0.21
0.30
0.30
0.26
0.30
0.19
0.37
0.18
0.37
0.18
0.37
0.18
0.30
0.17
0.19
0.19
0.19
0.22
0.17
0.17
0.00
0.10
0.04
0.03
0.09
0.03
0.04
0.03
0.04
0.02
0.00
0.00
0.00
0.01
0.01
0.01
0.00
0.01
0.03
0.04
0.07
0.01
0.07
0.01
0.07
0.00
0.07
0.04
0.07
0.01
0.07
0.01
0.03
0.00
0.02
0.01
0.00
0.01
0.20
0.00
0.16
0.00
0.44
0.04
0.20
0.00
0.00
0.03
0.00
0.03
0.10
0.03
0.17
0.03
0.19
0.02
0.17
0.17
0.55
0.19
0.20
0.79
0.83
0.83
0.76
0.82
0.44
0.15
0.19
0.18
0.22
0.21
0.19
0.26
0.17
0.26
0.18
0.30
0.19
0.26
0.21
0.21
0.30
0.18
0.37
0.19
0.37
0.18
0.37
0.19
0.30
0.19
0.21
0.18
0.18
0.19
0.22
0.19
0.10
0.07
0.01
0.07
0.04
0.03
0.04
0.03
0.00
0.02
0.01
0.02
0.00
0.01
0.03
0.01
0.03
0.00
0.03
0.01
0.10
0.01
0.10
0.00
0.10
0.00
0.10
0.02
0.15
0.03
0.07
0.10
0.02
0.10
0.01
0.15
0.00
0.07
0.04
0.00
0.16
0.01
0.00
0.09
0.04
0.09
0.02
0.01
0.15
0.01
0.15
0.03
0.22
0.07
0.22
0.07
0.19
0.10
0.22
0.30
0.78
0.15
0.82
0.81
0.86
0.76
0.81
0.30
0.03
0.21
0.19
0.26
0.17
0.26
0.21
0.26
0.30
0.21
0.47
0.19
0.55
0.18
0.47
0.21
0.47
0.21
0.47
0.30
0.30
0.37
0.21
0.47
0.19
0.37
0.17
0.30
0.19
0.18
0.15
0.22
0.03
0.07
0.02
0.03
0.02
0.01
0.03
0.01
0.03
0.04
0.07
0.00
0.07
0.04
0.07
0.00
0.03
0.00
0.07
0.00
0.03
0.00
0.03
0.07
0.02
0.10
0.00
0.10
0.01
0.10
0.00
0.15
0.00
0.10
0.00
0.07
0.09
0.01
0.20
0.00
0.04
0.00
0.20
0.09
0.00
0.09
0.03
0.00
0.07
0.01
0.17
0.02
0.19
0.03
0.10
0.10
0.10
0.22
0.37
0.37
0.68
0.76
0.98
0.83
0.80
0.82
0.57
0.19
0.22
0.17
0.19
0.18
0.19
0.18
0.21
0.18
0.37
0.18
0.47
0.19
0.47
0.19
0.47
0.21
0.37
0.26
0.30
0.37
0.21
0.37
0.19
0.37
0.17
0.30
0.19
0.21
0.19
0.22
0.10
0.10
0.03
0.01
0.00
0.00
0.03
0.09
0.02
0.09
0.02
0.16
0.02
0.09
0.03
0.09
0.00
0.04
0.02
0.09
0.00
0.01
0.01
0.00
0.01
0.02
0.00
0.02
0.04
0.07
0.04
0.07
0.04
0.07
0.04
0.03
0.00
0.00
0.09
0.00
0.09
0.35
0.00
0.20
0.09
0.50
0.00
0.20
0.00
0.09
0.00
0.04
0.02
0.03
0.03
0.10
0.02
0.15
0.01
0.17
0.22
0.82
0.07
0.82
0.83
0.98
0.86
0.77
0.80
0.04
0.22
0.22
0.18
0.19
0.26
0.19
0.30
0.17
0.37
0.17
0.37
0.19
0.30
0.19
0.26
0.30
0.21
0.37
0.19
0.47
0.19
0.37
0.17
0.37
0.19
0.26
0.19
0.18
0.22
0.22
0.17
0.07
0.07
0.00
0.03
0.00
0.07
0.16
0.03
0.04
0.02
0.04
0.02
0.00
0.02
0.00
0.00
0.00
0.00
0.03
0.04
0.07
0.00
0.07
0.00
0.10
0.00
0.10
0.01
0.10
0.02
0.03
0.00
0.02
0.03
0.00
0.07
0.02
0.10
0.04
0.07
0.09
0.00
0.16
0.00
0.04
0.00
0.20
0.16
0.04
0.00
0.02
0.00
0.07
0.00
0.19
0.03
0.22
0.03
0.19
0.07
0.17
0.22
0.30
0.78
0.00
0.82
0.86
0.83
0.77
0.83
0.61
0.22
0.22
0.19
0.19
0.21
0.21
0.21
0.26
0.19
0.37
0.19
0.47
0.19
0.47
0.19
0.47
0.21
0.37
0.30
0.26
0.30
0.26
0.37
0.19
0.30
0.17
0.30
0.22
0.21
0.19
0.19
0.03
0.07
0.04
0.00
0.16
0.16
0.20
0.50
0.16
0.35
0.00
0.20
0.02
0.09
0.17
0.01
0.17
0.00
0.19
0.07
0.19
0.15
0.17
0.19
0.15
0.19
0.07
0.18
0.37
0.88
0.09
0.81
0.95
0.82
0.77
0.80
0.20
0.22
0.19
0.17
0.19
0.17
0.30
0.18
0.30
0.19
0.47
0.19
0.55
0.18
0.68
0.19
0.55
0.21
0.55
0.26
0.37
0.30
0.30
0.30
0.19
0.30
0.17
0.19
0.17
0.19
0.03
0.17
0.00
0.07
0.00
0.10
0.04
0.03
0.00
0.00
0.07
0.00
0.10
0.04
0.10
0.00
0.10
0.01
0.07
0.00
0.03
0.07
0.00
0.10
0.00
0.15
0.00
0.17
0.01
0.15
0.01
0.10
0.00
0.07
0.00
0.07
0.03
0.03
0.03
0.00
0.07
0.00
0.15
0.01
0.17
0.00
0.10
0.01
0.07
0.02
0.02
0.03
0.03
0.07
0.00
0.07
0.01
0.10
0.00
0.15
0.04
0.03
0.30
0.01
0.09
0.00
0.30
0.16
0.04
0.04
0.00
0.01
0.10
0.00
0.15
0.03
0.22
0.03
0.22
0.03
0.22
0.10
0.26
0.47
0.22
0.82
0.80
0.86
0.76
0.81
0.75
0.10
0.19
0.21
0.22
0.26
0.19
0.30
0.19
0.37
0.18
0.37
0.21
0.21
0.30
0.18
0.37
0.18
0.47
0.18
0.37
0.17
0.30
0.19
0.21
0.19
0.18
0.18
0.22
0.18
0.17
0.17
0.07
0.19
0.00
0.07
0.01
0.01
0.01
0.04
0.00
0.04
0.03
0.09
0.03
0.09
0.07
0.09
0.07
0.04
0.03
0.00
0.03
0.00
0.03
0.03
0.00
0.10
0.01
0.15
0.01
0.17
0.01
0.15
0.00
0.15
0.02
0.15
0.02
0.10
0.03
0.03
0.07
0.00
0.03
0.04
0.00
0.16
0.07
0.20
0.01
0.30
0.03
0.04
0.07
0.00
0.10
0.10
0.15
0.19
0.17
0.19
0.10
0.22
0.07
0.18
0.26
0.82
0.30
0.83
0.86
0.80
0.77
0.82
0.20
0.19
0.18
0.19
0.21
0.17
0.37
0.18
0.47
0.19
0.55
0.19
0.55
0.19
0.55
0.26
0.47
0.37
0.37
0.47
0.26
0.55
0.26
0.55
0.19
0.55
0.17
0.47
0.19
0.21
0.17
0.19
0.10
0.15
0.03
0.02
0.03
0.01
0.07
0.00
0.10
0.04
0.15
0.00
0.10
0.04
0.15
0.00
0.15
0.00
0.10
0.01
0.03
0.03
0.03
0.10
0.02
0.17
0.01
0.17
0.01
0.17
0.00
0.17
0.00
0.15
0.03
0.07
0.03
0.00
0.03
0.09
0.01
0.16
0.07
0.30
0.01
0.16
0.03
0.01
0.07
0.03
0.07
0.15
0.15
0.22
0.10
0.22
0.03
0.19
0.10
0.21
0.47
0.47
0.75
0.77
0.86
0.78
0.75
0.80
0.01
0.22
0.19
0.19
0.26
0.19
0.47
0.17
0.47
0.18
0.47
0.19
0.30
0.30
0.30
0.47
0.21
0.55
0.21
0.68
0.19
0.68
0.21
0.55
0.18
0.47
0.18
0.30
0.17
0.18
0.19
0.19
0.17
0.03
0.10
0.00
0.10
0.01
0.10
0.00
0.10
0.04
0.10
0.00
0.07
0.00
0.03
0.02
0.01
0.03
0.01
0.10
0.00
0.10
0.00
0.15
0.00
0.10
0.01
0.10
0.00
0.07
0.02
0.03
0.03
0.02
0.10
0.01
0.15
0.04
0.03
0.30
0.03
0.16
0.01
0.30
0.00
0.04
0.02
0.03
0.03
0.10
0.07
0.22
0.10
0.19
0.10
0.19
0.03
0.19
0.17
0.87
0.22
0.79
0.80
0.85
0.76
0.75
0.72
0.04
0.17
0.22
0.26
0.19
0.30
0.19
0.30
0.19
0.26
0.26
0.21
0.30
0.18
0.37
0.17
0.47
0.18
0.55
0.19
0.37
0.17
0.30
0.18
0.21
0.19
0.19
0.21
0.22
0.18
0.07
0.22
0.01
0.10
0.09
0.02
0.09
0.01
0.09
0.00
0.04
0.04
0.00
0.00
0.00
0.09
0.02
0.16
0.03
0.16
0.03
0.16
0.03
0.09
0.02
0.00
0.00
0.00
0.01
0.02
0.04
0.03
0.09
0.03
0.09
0.03
0.16
0.02
0.20
0.00
0.44
0.09
0.20
0.16
0.35
0.35
0.09
0.30
0.01
0.09
0.02
0.09
0.15
0.01
0.17
0.00
0.10
0.02
0.07
0.03
0.21
0.55
0.01
0.81
0.86
0.86
0.78
0.81
0.67
0.10
0.15
0.19
0.17
0.19
0.22
0.21
0.19
0.21
0.19
0.19
0.17
0.19
0.18
0.17
0.21
0.17
0.30
0.19
0.37
0.19
0.26
0.19
0.21
0.19
0.18
0.19
0.19
0.19
0.15
0.19
0.01
0.07
0.16
0.02
0.20
0.00
0.20
0.00
0.09
0.00
0.00
0.09
0.00
0.16
0.01
0.20
0.01
0.16
0.00
0.30
0.00
0.20
0.02
0.16
0.02
0.04
0.00
0.00
0.04
0.00
0.04
0.02
0.16
0.03
0.16
0.02
0.30
0.01
0.30
0.20
0.35
0.09
0.35
0.50
0.20
0.20
0.00
0.16
0.01
0.09
0.07
0.00
0.17
0.01
0.15
0.01
0.07
0.03
0.18
0.47
0.17
0.82
0.82
0.98
0.86
0.76
0.82
0.00
0.03
0.18
0.17
0.17
0.22
0.21
0.17
0.17
0.21
0.17
0.26
0.19
0.30
0.19
0.30
0.19
0.30
0.18
0.30
0.19
0.26
0.21
0.18
0.26
0.19
0.21
0.22
0.18
0.15
0.19
0.00
0.07
0.04
0.02
0.09
0.09
0.09
0.04
0.09
0.04
0.04
0.16
0.00
0.20
0.00
0.30
0.00
0.30
0.00
0.30
0.00
0.20
0.00
0.09
0.00
0.04
0.09
0.01
0.20
0.00
0.20
0.02
0.20
0.00
0.16
0.01
0.09
0.09
0.04
0.20
0.04
0.57
0.16
0.44
0.09
0.64
0.04
0.50
0.04
0.20
0.00
0.20
0.02
0.04
0.03
0.02
0.00
0.02
0.01
0.15
0.22
0.75
0.09
0.81
0.98
0.98
0.91
0.76
0.79
0.01
0.10
0.22
0.22
0.22
0.17
0.19
0.19
0.22
0.26
0.19
0.21
0.22
0.26
0.19
0.21
0.19
0.26
0.17
0.21
0.17
0.18
0.21
0.19
0.21
0.22
0.21
0.19
0.17
0.07
0.22
0.01
0.07
0.09
0.00
0.09
0.00
0.09
0.04
0.04
0.09
0.00
0.16
0.04
0.30
0.01
0.30
0.01
0.30
0.00
0.20
0.01
0.20
0.00
0.00
0.09
0.01
0.09
0.00
0.16
0.02
0.20
0.02
0.16
0.00
0.16
0.02
0.16
0.01
0.04
0.04
0.04
0.30
0.04
0.57
0.16
0.44
0.16
0.64
0.09
0.50
0.04
0.16
0.04
0.04
0.00
0.03
0.01
0.10
0.00
0.10
0.09
0.10
0.07
0.47
0.19
0.57
0.75
0.97
0.86
0.78
0.82
0.44
0.17
0.10
0.19
0.17
0.18
0.19
0.18
0.22
0.21
0.22
0.26
0.19
0.21
0.19
0.18
0.19
0.18
0.21
0.17
0.26
0.19
0.26
0.22
0.26
0.19
0.19
0.17
0.17
0.07
0.17
0.00
0.03
0.16
0.00
0.09
0.09
0.09
0.30
0.00
0.30
0.01
0.35
0.01
0.20
0.00
0.20
0.04
0.09
0.04
0.00
0.09
0.00
0.09
0.00
0.16
0.03
0.16
0.02
0.16
0.03
0.04
0.01
0.04
0.01
0.01
0.04
0.00
0.16
0.01
0.30
0.00
0.44
0.04
0.30
0.00
0.61
0.09
0.35
0.04
0.09
0.04
0.00
0.04
0.10
0.01
0.15
0.01
0.17
0.01
0.10
0.03
0.26
0.37
0.17
0.82
0.81
0.86
0.80
0.79
0.75
0.03
0.07
0.19
0.19
0.18
0.22
0.21
0.19
0.21
0.19
0.19
0.18
0.18
0.19
0.18
0.26
0.17
0.30
0.17
0.37
0.17
0.37
0.19
0.30
0.19
0.19
0.19
0.19
0.19
0.19
0.17
0.02
0.03
0.30
0.00
0.50
0.16
0.64
0.44
0.61
0.35
0.35
0.30
0.04
0.09
0.02
0.01
0.10
0.00
0.10
0.01
0.17
0.00
0.19
0.02
0.19
0.03
0.10
0.19
0.19
0.88
0.15
0.81
0.83
0.86
0.80
0.79
0.75
0.02
0.17
0.19
0.17
0.19
0.19
0.19
0.26
0.19
0.30
0.17
0.47
0.17
0.47
0.17
0.37
0.21
0.30
0.30
0.26
0.37
0.21
0.37
0.18
0.30
0.19
0.26
0.22
0.19
0.03
0.17
0.01
0.07
0.09
0.02
0.01
0.00
0.01
0.00
0.02
0.00
0.02
0.00
0.07
0.04
0.07
0.04
0.15
0.00
0.10
0.01
0.10
0.01
0.07
0.01
0.10
0.02
0.03
0.02
0.02
0.07
0.01
0.10
0.01
0.10
0.00
0.10
0.00
0.07
0.02
0.03
0.03
0.02
0.07
0.00
0.10
0.01
0.10
0.01
0.15
0.00
0.10
0.00
0.10
0.01
0.03
0.02
0.02
0.03
0.01
0.00
0.16
0.01
0.16
0.00
0.44
0.09
0.20
0.00
0.00
0.00
0.02
0.03
0.07
0.10
0.17
0.10
0.17
0.03
0.17
0.03
0.19
0.30
0.21
0.79
0.77
0.91
0.80
0.77
0.81
0.09
0.15
0.18
0.22
0.21
0.22
0.30
0.19
0.30
0.17
0.30
0.18
0.30
0.18
0.30
0.21
0.26
0.26
0.21
0.30
0.18
0.26
0.17
0.30
0.19
0.19
0.22
0.18
0.19
0.19
0.15
0.22
0.02
0.07
0.01
0.00
0.01
0.00
0.02
0.09
0.07
0.04
0.02
0.00
0.00
0.00
0.01
0.01
0.01
0.01
0.00
0.07
0.09
0.03
0.04
0.07
0.04
0.03
0.01
0.03
0.00
0.02
0.03
0.02
0.03
0.01
0.10
0.00
0.07
0.01
0.07
0.00
0.03
0.09
0.02
0.30
0.01
0.09
0.04
0.30
0.09
0.04
0.04
0.03
0.00
0.07
0.00
0.19
0.03
0.22
0.07
0.22
0.07
0.17
0.22
0.37
0.55
0.16
0.81
0.86
0.81
0.77
0.82
0.30
0.19
0.22
0.19
0.19
0.26
0.17
0.30
0.19
0.30
0.21
0.30
0.26
0.30
0.30
0.21
0.47
0.21
0.55
0.21
0.68
0.19
0.47
0.21
0.47
0.19
0.30
0.18
0.19
0.17
0.22
0.22
0.07
0.15
0.01
0.10
0.00
0.07
0.00
0.03
0.00
0.01
0.02
0.00
0.10
0.01
0.07
0.00
0.07
0.00
0.10
0.00
0.07
0.01
0.07
0.02
0.02
0.07
0.00
0.10
0.00
0.17
0.01
0.10
0.00
0.10
0.00
0.15
0.02
0.03
0.00
0.02
0.04
0.09
0.01
0.04
0.00
0.35
0.00
0.16
0.07
0.01
0.10
0.00
0.19
0.10
0.17
0.15
0.15
0.19
0.07
0.22
0.19
0.82
0.22
0.68
0.76
0.83
0.80
0.79
0.80
0.00
0.19
0.17
0.18
0.18
0.21
0.19
0.37
0.19
0.30
0.19
0.55
0.19
0.47
0.19
0.55
0.19
0.47
0.19
0.47
0.21
0.47
0.26
0.37
0.19
0.26
0.18
0.18
0.17
0.22
0.19
0.10
0.19
0.00
0.10
0.01
0.03
0.00
0.02
0.07
0.01
0.07
0.04
0.10
0.04
0.10
0.00
0.07
0.00
0.03
0.00
0.03
0.02
0.00
0.07
0.00
0.10
0.01
0.10
0.00
0.15
0.01
0.17
0.00
0.10
0.00
0.07
0.03
0.00
0.02
0.00
0.01
0.20
0.02
0.16
0.00
0.30
0.02
0.04
0.10
0.00
0.07
0.02
0.17
0.15
0.17
0.17
0.10
0.19
0.03
0.19
0.21
0.85
0.20
0.82
0.86
0.81
0.76
0.82
0.44
0.15
0.19
0.19
0.21
0.17
0.30
0.17
0.37
0.19
0.47
0.18
0.47
0.19
0.37
0.21
0.47
0.26
0.37
0.26
0.37
0.30
0.21
0.26
0.21
0.26
0.18
0.21
0.19
0.18
0.17
0.22
0.02
0.10
0.00
0.03
0.00
0.02
0.01
0.01
0.02
0.04
0.03
0.09
0.07
0.04
0.02
0.09
0.03
0.00
0.02
0.01
0.01
0.00
0.00
0.02
0.00
0.07
0.04
0.07
0.00
0.03
0.00
0.02
0.00
0.00
0.02
0.00
0.02
0.20
0.01
0.30
0.00
0.35
0.01
0.44
0.16
0.20
0.04
0.09
0.00
0.01
0.04
0.03
0.03
0.17
0.00
0.15
0.00
0.15
0.00
0.19
0.37
0.18
0.80
0.78
0.96
0.83
0.76
0.81
0.00
0.15
0.17
0.19
0.19
0.19
0.21
0.19
0.30
0.17
0.21
0.18
0.26
0.19
0.21
0.21
0.21
0.26
0.19
0.30
0.21
0.30
0.18
0.37
0.18
0.26
0.22
0.19
0.22
0.19
0.15
0.15
0.02
0.00
0.00
0.04
0.00
0.09
0.02
0.09
0.03
0.16
0.00
0.16
0.00
0.04
0.01
0.00
0.01
0.01
0.00
0.01
0.00
0.00
0.00
0.03
0.00
0.03
0.09
0.03
0.04
0.03
0.00
0.00
0.02
0.01
0.02
0.04
0.03
0.09
0.02
0.20
0.01
0.35
0.01
0.20
0.09
0.20
0.04
0.00
0.00
0.03
0.09
0.07
0.00
0.17
0.03
0.19
0.03
0.17
0.02
0.19
0.30
0.55
0.16
0.75
0.95
0.98
0.81
0.79
0.20
0.07
0.18
0.22
0.30
0.19
0.30
0.19
0.47
0.21
0.37
0.26
0.37
0.37
0.30
0.37
0.30
0.55
0.30
0.55
0.30
0.68
0.19
0.55
0.21
0.47
0.19
0.30
0.17
0.18
0.22
0.19
0.17
0.07
0.07
0.00
0.10
0.00
0.07
0.00
0.07
0.01
0.03
0.00
0.02
0.03
0.00
0.03
0.01
0.10
0.00
0.10
0.00
0.07
0.00
0.03
0.07
0.02
0.07
0.00
0.15
0.00
0.07
0.01
0.15
0.01
0.15
0.01
0.17
0.00
0.10
0.00
0.07
0.00
0.01
0.00
0.16
0.00
0.04
0.01
0.20
0.02
0.09
0.07
0.02
0.07
0.00
0.10
0.17
0.17
0.17
0.15
0.19
0.07
0.22
0.17
0.87
0.22
0.80
0.82
0.85
0.80
0.80
0.67
0.19
0.22
0.18
0.18
0.19
0.21
0.19
0.26
0.26
0.26
0.21
0.37
0.21
0.47
0.19
0.47
0.19
0.47
0.21
0.47
0.21
0.30
0.26
0.19
0.30
0.19
0.26
0.19
0.19
0.17
0.22
0.02
0.15
0.00
0.03
0.00
0.00
0.00
0.00
0.00
0.01
0.00
0.00
0.00
0.01
0.02
0.16
0.02
0.09
0.02
0.04
0.02
0.00
0.01
0.00
0.04
0.03
0.00
0.10
0.00
0.07
0.04
0.02
0.04
0.02
0.01
0.00
0.00
0.00
0.00
0.04
0.00
0.16
0.01
0.44
0.00
0.20
0.09
0.50
0.04
0.09
0.00
0.00
0.00
0.03
0.00
0.15
0.00
0.17
0.00
0.15
0.00
0.19
0.19
0.68
0.17
0.80
0.80
0.86
0.77
0.75
0.68
0.00
0.22
0.19
0.17
0.22
0.19
0.19
0.21
0.19
0.21
0.18
0.19
0.18
0.19
0.21
0.18
0.21
0.19
0.21
0.19
0.26
0.17
0.30
0.19
0.21
0.22
0.19
0.22
0.19
0.15
0.17
0.02
0.01
0.00
0.04
0.01
0.16
0.01
0.16
0.00
0.20
0.01
0.20
0.01
0.16
0.01
0.04
0.04
0.00
0.09
0.01
0.09
0.02
0.16
0.02
0.09
0.00
0.09
0.03
0.09
0.00
0.00
0.01
0.01
0.04
0.02
0.04
0.02
0.20
0.01
0.20
0.00
0.50
0.16
0.20
0.20
0.44
0.20
0.16
0.09
0.00
0.09
0.02
0.04
0.10
0.01
0.15
0.00
0.10
0.00
0.15
0.17
0.26
0.26
0.57
0.81
0.88
0.81
0.76
0.82
0.50
0.19
0.19
0.17
0.19
0.18
0.22
0.21
0.19
0.19
0.17
0.19
0.18
0.17
0.21
0.19
0.26
0.19
0.30
0.19
0.26
0.19
0.26
0.17
0.21
0.19
0.18
0.22
0.22
0.22
0.15
0.15
0.00
0.03
0.09
0.02
0.20
0.00
0.16
0.01
0.09
0.01
0.09
0.01
0.04
0.00
0.00
0.04
0.00
0.04
0.02
0.09
0.02
0.09
0.03
0.04
0.03
0.00
0.02
0.01
0.02
0.02
0.02
0.02
0.01
0.03
0.00
0.07
0.09
0.00
0.09
0.00
0.20
0.09
0.00
0.20
0.20
0.35
0.01
0.16
0.03
0.04
0.10
0.01
0.10
0.02
0.17
0.07
0.15
0.10
0.15
0.19
0.30
0.37
0.61
0.81
0.86
0.80
0.76
0.82
0.44
0.19
0.22
0.17
0.19
0.19
0.19
0.18
0.21
0.18
0.37
0.17
0.30
0.17
0.37
0.18
0.30
0.18
0.37
0.18
0.30
0.19
0.26
0.19
0.18
0.18
0.17
0.17
0.22
0.19
0.10
0.17
0.01
0.03
0.09
0.02
0.09
0.00
0.09
0.01
0.04
0.00
0.00
0.09
0.01
0.09
0.01
0.09
0.01
0.16
0.02
0.09
0.02
0.00
0.01
0.00
0.00
0.02
0.00
0.03
0.04
0.07
0.04
0.03
0.04
0.02
0.00
0.01
0.01
0.04
0.00
0.20
0.09
0.44
0.00
0.44
0.20
0.35
0.01
0.09
0.00
0.00
0.00
0.02
0.02
0.07
0.03
0.10
0.00
0.10
0.03
0.18
0.26
0.19
0.81
0.76
0.91
0.77
0.77
0.80
0.20
0.10
0.22
0.22
0.22
0.22
0.17
0.22
0.19
0.22
0.21
0.22
0.19
0.22
0.26
0.19
0.21
0.19
0.19
0.17
0.17
0.18
0.19
0.18
0.22
0.18
0.19
0.17
0.10
0.22
0.02
0.03
0.00
0.09
0.20
0.30
0.30
0.64
0.44
0.67
0.35
0.57
0.16
0.44
0.09
0.20
0.00
0.04
0.02
0.00
0.02
0.00
0.00
0.03
0.00
0.07
0.01
0.07
0.00
0.19
0.26
0.37
0.75
0.76
0.95
0.82
0.76
0.82
0.30
0.00
0.22
0.17
0.19
0.17
0.18
0.22
0.17
0.22
0.19
0.22
0.18
0.19
0.18
0.19
0.17
0.18
0.17
0.19
0.17
0.21
0.19
0.21
0.22
0.17
0.19
0.19
0.10
0.15
0.00
0.02
0.16
0.00
0.09
0.09
0.04
0.16
0.00
0.20
0.00
0.20
0.01
0.30
0.01
0.20
0.01
0.09
0.00
0.09
0.00
0.04
0.04
0.00
0.09
0.00
0.16
0.02
0.09
0.02
0.04
0.01
0.01
0.04
0.01
0.04
0.00
0.09
0.02
0.09
0.02
0.09
0.02
0.09
0.03
0.04
0.02
0.00
0.02
0.00
0.01
0.01
0.01
0.00
0.00
0.03
0.04
0.03
0.09
0.02
0.00
0.04
0.16
0.30
0.00
0.20
0.20
0.57
0.04
0.30
0.01
0.16
0.03
0.00
0.02
0.00
0.15
0.03
0.07
0.07
0.03
0.10
0.07
0.21
0.21
0.02
0.81
0.82
0.86
0.77
0.80
0.44
0.02
0.19
0.22
0.19
0.17
0.19
0.17
0.19
0.26
0.19
0.26
0.19
0.30
0.19
0.26
0.19
0.26
0.19
0.26
0.17
0.19
0.18
0.19
0.18
0.22
0.18
0.19
0.17
0.17
0.22
0.03
0.15
0.01
0.03
0.00
0.01
0.00
0.00
0.04
0.04
0.00
0.09
0.02
0.09
0.02
0.09
0.00
0.09
0.03
0.09
0.00
0.00
0.00
0.00
0.00
0.02
0.00
0.03
0.04
0.07
0.01
0.03
0.09
0.03
0.00
0.03
0.01
0.02
0.02
0.00
0.00
0.00
0.02
0.09
0.00
0.20
0.01
0.20
0.00
0.44
0.04
0.20
0.00
0.00
0.00
0.01
0.01
0.10
0.03
0.15
0.03
0.15
0.00
0.17
0.10
0.47
0.37
0.09
0.77
0.88
0.86
0.77
0.80
0.61
0.10
0.19
0.18
0.22
0.26
0.19
0.26
0.19
0.37
0.17
0.30
0.19
0.26
0.21
0.19
0.30
0.21
0.30
0.19
0.47
0.19
0.47
0.17
0.37
0.17
0.26
0.19
0.19
0.19
0.19
0.15
0.10
0.07
0.01
0.03
0.04
0.03
0.09
0.02
0.09
0.03
0.09
0.02
0.09
0.02
0.04
0.01
0.00
0.00
0.01
0.00
0.02
0.00
0.07
0.04
0.03
0.00
0.03
0.00
0.07
0.01
0.00
0.01
0.00
0.03
0.00
0.03
0.04
0.10
0.04
0.01
0.16
0.01
0.30
0.09
0.09
0.09
0.30
0.30
0.04
0.20
0.00
0.09
0.02
0.00
0.07
0.00
0.10
0.03
0.07
0.03
0.03
0.19
0.21
0.55
0.61
0.78
1.00
0.91
0.82
0.82
0.61
0.17
0.19
0.18
0.19
0.21
0.19
0.21
0.19
0.18
0.19
0.18
0.26
0.17
0.30
0.18
0.37
0.17
0.37
0.18
0.30
0.18
0.30
0.18
0.19
0.18
0.17
0.19
0.22
0.17
0.15
0.22
0.02
0.10
0.00
0.03
0.04
0.00
0.00
0.01
0.01
0.04
0.00
0.04
0.02
0.09
0.02
0.04
0.02
0.09
0.03
0.00
0.07
0.01
0.02
0.00
0.00
0.02
0.01
0.10
0.01
0.10
0.01
0.15
0.01
0.07
0.01
0.10
0.01
0.07
0.00
0.03
0.02
0.00
0.00
0.04
0.01
0.20
0.02
0.20
0.00
0.20
0.00
0.00
0.03
0.01
0.02
0.07
0.15
0.10
0.10
0.17
0.07
0.19
0.07
0.21
0.47
0.37
0.79
0.77
0.96
0.80
0.77
0.80
0.01
0.19
0.19
0.17
0.26
0.17
0.37
0.18
0.37
0.18
0.37
0.26
0.30
0.30
0.30
0.37
0.30
0.47
0.26
0.55
0.21
0.68
0.21
0.55
0.19
0.37
0.19
0.21
0.18
0.19
0.19
0.19
0.22
0.03
0.15
0.00
0.10
0.01
0.10
0.01
0.07
0.00
0.00
0.03
0.01
0.03
0.01
0.10
0.00
0.10
0.00
0.15
0.01
0.15
0.00
0.15
0.02
0.10
0.03
0.10
0.10
0.03
0.10
0.03
0.15
0.00
0.15
0.00
0.15
0.01
0.10
0.01
0.03
0.04
0.00
0.01
0.00
0.04
0.20
0.00
0.04
0.07
0.01
0.15
0.00
0.22
0.07
0.19
0.07
0.22
0.07
0.19
0.19
0.21
0.82
0.22
0.80
0.80
0.83
0.76
0.82
0.68
0.17
0.19
0.19
0.22
0.21
0.18
0.26
0.21
0.26
0.37
0.19
0.37
0.18
0.55
0.18
0.55
0.19
0.55
0.21
0.47
0.21
0.47
0.26
0.26
0.30
0.19
0.26
0.17
0.18
0.22
0.19
0.03
0.17
0.01
0.07
0.04
0.03
0.00
0.02
0.01
0.02
0.00
0.01
0.02
0.04
0.07
0.04
0.07
0.00
0.10
0.00
0.07
0.00
0.10
0.00
0.03
0.03
0.02
0.07
0.00
0.10
0.01
0.10
0.00
0.10
0.01
0.10
0.04
0.03
0.00
0.00
0.16
0.04
0.04
0.04
0.20
0.20
0.01
0.09
0.03
0.00
0.07
0.01
0.17
0.03
0.19
0.03
0.17
0.07
0.15
0.19
0.19
0.68
0.09
0.82
0.85
0.83
0.77
0.82
0.68
0.10
0.22
0.19
0.19
0.19
0.21
0.19
0.26
0.17
0.37
0.17
0.30
0.17
0.37
0.18
0.26
0.19
0.30
0.26
0.26
0.30
0.21
0.37
0.18
0.30
0.17
0.26
0.22
0.18
0.22
0.22
0.10
0.07
0.03
0.01
0.01
0.00
0.02
0.09
0.00
0.09
0.03
0.09
0.03
0.09
0.03
0.04
0.00
0.00
0.00
0.00
0.01
0.02
0.00
0.07
0.04
0.07
0.00
0.07
0.00
0.07
0.01
0.03
0.00
0.03
0.00
0.03
0.01
0.01
0.01
0.09
0.04
0.16
0.01
0.44
0.09
0.20
0.02
0.04
0.03
0.01
0.00
0.10
0.03
0.19
0.03
0.19
0.02
0.17
0.07
0.21
0.37
0.18
0.80
0.76
0.86
0.80
0.75
0.80
0.01
0.17
0.18
0.22
0.21
0.22
0.26
0.19
0.30
0.17
0.30
0.17
0.26
0.19
0.21
0.26
0.19
0.37
0.19
0.47
0.17
0.37
0.19
0.47
0.18
0.30
0.18
0.19
0.17
0.19
0.22
0.15
0.10
0.01
0.10
0.00
0.07
0.04
0.10
0.04
0.03
0.00
0.07
0.01
0.03
0.01
0.03
0.02
0.00
0.07
0.01
0.10
0.01
0.10
0.01
0.07
0.01
0.10
0.03
0.07
0.03
0.03
0.07
0.02
0.07
0.03
0.15
0.00
0.07
0.04
0.02
0.16
0.03
0.04
0.00
0.20
0.02
0.00
0.07
0.07
0.03
0.15
0.10
0.22
0.15
0.19
0.10
0.19
0.10
0.19
0.18
0.85
0.21
0.72
0.75
0.86
0.77
0.77
0.80
0.20
0.17
0.19
0.30
0.17
0.37
0.19
0.47
0.26
0.37
0.30
0.30
0.47
0.21
0.47
0.26
0.68
0.26
0.68
0.26
0.68
0.26
0.68
0.30
0.37
0.26
0.26
0.19
0.18
0.17
0.22
0.19
0.07
0.19
0.00
0.10
0.00
0.10
0.00
0.10
0.00
0.03
0.03
0.02
0.10
0.00
0.10
0.00
0.15
0.01
0.10
0.00
0.15
0.01
0.10
0.03
0.07
0.07
0.07
0.07
0.10
0.03
0.03
0.15
0.00
0.15
0.01
0.10
0.00
0.07
0.16
0.02
0.04
0.00
0.30
0.00
0.04
0.00
0.03
0.03
0.07
0.02
0.19
0.07
0.19
0.10
0.22
0.15
0.17
0.19
0.17
0.85
0.18
0.68
0.76
0.82
0.78
0.81
0.80
0.00
0.19
0.17
0.17
0.21
0.19
0.21
0.26
0.19
0.47
0.18
0.55
0.19
0.47
0.19
0.47
0.26
0.37
0.26
0.37
0.30
0.30
0.37
0.19
0.47
0.17
0.30
0.19
0.21
0.22
0.19
0.03
0.19
0.00
0.07
0.01
0.02
0.01
0.00
0.00
0.01
0.02
0.04
0.03
0.04
0.07
0.04
0.03
0.04
0.07
0.04
0.07
0.00
0.07
0.00
0.07
0.01
0.07
0.00
0.02
0.03
0.00
0.03
0.00
0.07
0.01
0.03
0.09
0.03
0.16
0.00
0.30
0.00
0.09
0.09
0.20
0.00
0.01
0.09
0.07
0.00
0.10
0.00
0.17
0.07
0.17
0.10
0.10
0.17
0.07
0.18
0.30
0.55
0.64
0.80
0.91
0.81
0.76
0.82
0.20
0.19
0.19
0.19
0.18
0.19
0.21
0.17
0.30
0.17
0.37
0.19
0.30
0.18
0.26
0.21
0.21
0.26
0.19
0.26
0.18
0.37
0.19
0.37
0.18
0.37
0.17
0.26
0.22
0.18
0.17
0.17
0.07
0.03
0.02
0.00
0.00
0.04
0.03
0.09
0.03
0.09
0.03
0.09
0.02
0.09
0.03
0.09
0.03
0.04
0.03
0.04
0.02
0.00
0.02
0.01
0.00
0.02
0.00
0.03
0.04
0.07
0.04
0.07
0.00
0.07
0.00
0.00
0.09
0.01
0.20
0.20
0.09
0.16
0.09
0.57
0.04
0.30
0.00
0.16
0.02
0.00
0.10
0.02
0.10
0.07
0.07
0.10
0.02
0.19
0.19
0.82
0.10
0.80
0.83
0.94
0.83
0.76
0.79
0.02
0.19
0.17
0.19
0.18
0.19
0.17
0.26
0.17
0.30
0.17
0.37
0.17
0.30
0.18
0.37
0.19
0.30
0.26
0.26
0.30
0.19
0.37
0.19
0.30
0.17
0.30
0.19
0.18
0.19
0.22
0.07
0.10
0.00
0.00
0.01
0.04
0.02
0.04
0.02
0.16
0.02
0.09
0.03
0.09
0.02
0.04
0.01
0.01
0.01
0.00
0.00
0.00
0.01
0.03
0.00
0.03
0.04
0.10
0.04
0.03
0.00
0.03
0.00
0.03
0.01
0.02
0.02
0.00
0.02
0.09
0.00
0.30
0.00
0.16
0.01
0.50
0.00
0.16
0.01
0.04
0.00
0.01
0.02
0.10
0.03
0.17
0.02
0.19
0.00
0.19
0.19
0.78
0.18
0.68
0.76
0.99
0.96
0.82
0.82
0.44
0.22
0.19
0.21
0.19
0.30
0.18
0.47
0.19
0.55
0.21
0.55
0.21
0.47
0.30
0.47
0.37
0.37
0.47
0.26
0.68
0.21
0.75
0.21
0.55
0.18
0.47
0.17
0.19
0.19
0.19
0.22
0.10
0.17
0.00
0.07
0.00
0.07
0.00
0.07
0.04
0.03
0.00
0.03
0.01
0.00
0.00
0.01
0.02
0.01
0.03
0.00
0.03
0.00
0.07
0.00
0.07
0.00
0.07
0.00
0.07
0.01
0.03
0.00
0.01
0.07
0.00
0.10
0.01
0.10
0.01
0.07
0.04
0.03
0.04
0.01
0.09
0.00
0.01
0.09
0.16
0.09
0.01
0.00
0.07
0.00
0.10
0.00
0.19
0.07
0.19
0.07
0.19
0.10
0.19
0.19
0.75
0.18
0.80
0.76
0.95
0.80
0.77
0.79
0.16
0.19
0.19
0.19
0.17
0.21
0.26
0.21
0.37
0.21
0.55
0.19
0.47
0.19
0.68
0.21
0.47
0.21
0.47
0.30
0.30
0.37
0.26
0.37
0.18
0.37
0.18
0.30
0.22
0.18
0.17
0.22
0.03
0.10
0.00
0.02
0.01
0.01
0.00
0.00
0.02
0.00
0.07
0.04
0.07
0.09
0.07
0.00
0.07
0.04
0.07
0.00
0.03
0.00
0.07
0.00
0.02
0.02
0.02
0.07
0.01
0.15
0.01
0.15
0.04
0.10
0.00
0.10
0.00
0.03
0.01
0.01
0.00
0.20
0.01
0.09
0.01
0.50
0.00
0.20
0.03
0.00
0.10
0.01
0.15
0.07
0.10
0.17
0.07
0.22
0.03
0.22
0.22
0.82
0.19
0.50
0.77
0.85
0.81
0.77
0.82
0.30
0.22
0.19
0.19
0.19
0.30
0.19
0.47
0.17
0.55
0.19
0.47
0.21
0.47
0.26
0.30
0.30
0.30
0.47
0.21
0.55
0.21
0.55
0.18
0.55
0.17
0.47
0.19
0.26
0.22
0.17
0.15
0.17
0.03
0.02
0.00
0.01
0.03
0.04
0.03
0.16
0.10
0.09
0.03
0.04
0.07
0.00
0.03
0.01
0.03
0.00
0.02
0.03
0.02
0.10
0.01
0.10
0.01
0.15
0.01
0.17
0.01
0.17
0.00
0.07
0.02
0.07
0.07
0.02
0.03
0.04
0.00
0.30
0.03
0.16
0.01
0.35
0.02
0.04
0.03
0.01
0.03
0.03
0.10
0.19
0.10
0.22
0.07
0.22
0.03
0.19
0.17
0.88
0.22
0.79
0.77
0.86
0.77
0.77
0.75
0.16
0.17
0.22
0.21
0.22
0.30
0.17
0.30
0.21
0.37
0.26
0.26
0.26
0.26
0.47
0.19
0.55
0.18
0.55
0.19
0.47
0.21
0.37
0.19
0.30
0.21
0.18
0.18
0.19
0.22
0.02
0.03
0.44
0.16
0.64
0.16
0.44
0.00
0.30
0.01
0.02
0.02
0.10
0.01
0.10
0.00
0.19
0.00
0.19
0.02
0.22
0.00
0.17
0.07
0.55
0.55
0.10
0.80
0.85
0.83
0.77
0.82
0.35
0.10
0.19
0.18
0.19
0.21
0.19
0.30
0.19
0.37
0.19
0.37
0.19
0.30
0.18
0.21
0.21
0.18
0.37
0.19
0.47
0.19
0.30
0.19
0.21
0.19
0.17
0.19
0.19
0.19
0.03
0.07
0.04
0.00
0.09
0.02
0.16
0.03
0.20
0.03
0.09
0.00
0.04
0.00
0.01
0.01
0.01
0.00
0.02
0.04
0.07
0.04
0.07
0.09
0.03
0.09
0.03
0.09
0.03
0.01
0.00
0.00
0.04
0.03
0.09
0.02
0.09
0.10
0.09
0.03
0.09
0.02
0.01
0.00
0.00
0.01
0.02
0.04
0.02
0.04
0.03
0.16
0.03
0.09
0.07
0.09
0.07
0.16
0.03
0.16
0.00
0.35
0.09
0.30
0.09
0.44
0.35
0.20
0.20
0.00
0.09
0.07
0.09
0.10
0.00
0.17
0.00
0.15
0.01
0.07
0.02
0.19
0.21
0.19
0.50
0.77
0.86
0.88
0.77
0.80
0.30
0.03
0.18
0.19
0.19
0.22
0.19
0.18
0.18
0.21
0.19
0.30
0.19
0.37
0.19
0.37
0.19
0.26
0.17
0.26
0.17
0.19
0.17
0.19
0.18
0.22
0.17
0.19
0.17
0.10
0.22
0.02
0.17
0.00
0.03
0.09
0.01
0.09
0.04
0.04
0.09
0.00
0.16
0.02
0.20
0.00
0.30
0.02
0.16
0.00
0.09
0.01
0.00
0.04
0.01
0.09
0.03
0.16
0.03
0.09
0.03
0.09
0.02
0.00
0.02
0.00
0.01
0.02
0.00
0.02
0.04
0.02
0.20
0.00
0.30
0.00
0.50
0.01
0.35
0.16
0.35
0.00
0.09
0.00
0.00
0.00
0.07
0.00
0.19
0.02
0.22
0.02
0.22
0.03
0.19
0.30
0.47
0.75
0.75
0.94
0.80
0.77
0.81
0.09
0.17
0.18
0.22
0.21
0.19
0.37
0.19
0.47
0.19
0.37
0.21
0.37
0.30
0.26
0.37
0.21
0.55
0.19
0.68
0.21
0.55
0.21
0.47
0.19
0.30
0.19
0.19
0.18
0.19
0.19
0.15
0.19
0.02
0.15
0.00
0.10
0.04
0.07
0.04
0.07
0.00
0.00
0.03
0.01
0.10
0.04
0.10
0.00
0.10
0.00
0.15
0.01
0.10
0.01
0.10
0.02
0.07
0.02
0.02
0.10
0.00
0.10
0.00
0.17
0.00
0.17
0.01
0.15
0.04
0.10
0.20
0.00
0.16
0.02
0.30
0.01
0.09
0.02
0.01
0.07
0.03
0.03
0.17
0.10
0.19
0.07
0.22
0.03
0.22
0.15
0.47
0.55
0.15
0.82
0.83
0.83
0.77
0.81
0.61
0.17
0.19
0.26
0.22
0.37
0.19
0.37
0.17
0.47
0.19
0.30
0.30
0.19
0.47
0.19
0.55
0.26
0.55
0.21
0.55
0.19
0.55
0.18
0.55
0.21
0.26
0.19
0.19
0.19
0.22
0.19
0.07
0.19
0.00
0.15
0.09
0.07
0.04
0.02
0.04
0.03
0.00
0.00
0.00
0.04
0.03
0.16
0.07
0.16
0.07
0.09
0.03
0.04
0.03
0.01
0.02
0.02
0.00
0.02
0.00
0.03
0.00
0.03
0.00
0.10
0.00
0.07
0.09
0.07
0.16
0.01
0.30
0.01
0.09
0.16
0.20
0.04
0.04
0.01
0.02
0.01
0.07
0.00
0.17
0.03
0.19
0.02
0.19
0.00
0.19
0.21
0.78
0.01
0.81
0.86
0.95
0.77
0.75
0.44
0.00
0.19
0.22
0.26
0.19
0.37
0.17
0.30
0.18
0.37
0.21
0.26
0.30
0.19
0.37
0.19
0.47
0.19
0.68
0.19
0.55
0.19
0.47
0.21
0.21
0.21
0.18
0.19
0.19
0.19
0.15
0.22
0.00
0.15
0.04
0.07
0.09
0.03
0.09
0.02
0.04
0.00
0.01
0.01
0.02
0.09
0.03
0.09
0.03
0.09
0.03
0.00
0.03
0.01
0.02
0.00
0.02
0.02
0.00
0.03
0.01
0.10
0.00
0.10
0.04
0.15
0.00
0.10
0.04
0.02
0.04
0.04
0.20
0.09
0.01
0.35
0.04
0.20
0.02
0.16
0.10
0.04
0.10
0.00
0.19
0.10
0.17
0.07
0.17
0.07
0.22
0.37
0.68
0.19
0.81
0.83
1.00
0.81
0.76
0.57
0.01
0.19
0.19
0.19
0.19
0.21
0.37
0.19
0.47
0.21
0.55
0.19
0.68
0.21
0.68
0.26
0.68
0.47
0.47
0.37
0.37
0.55
0.26
0.55
0.19
0.55
0.17
0.37
0.19
0.26
0.19
0.22
0.10
0.10
0.03
0.00
0.00
0.01
0.02
0.04
0.07
0.04
0.07
0.09
0.07
0.04
0.07
0.04
0.07
0.00
0.03
0.02
0.02
0.07
0.03
0.07
0.02
0.15
0.00
0.17
0.01
0.19
0.01
0.17
0.00
0.17
0.00
0.10
0.02
0.10
0.07
0.00
0.07
0.04
0.03
0.20
0.03
0.09
0.01
0.20
0.02
0.00
0.03
0.03
0.03
0.10
0.15
0.22
0.15
0.22
0.10
0.22
0.07
0.21
0.37
0.85
0.61
0.80
0.97
0.82
0.77
0.82
0.16
0.17
0.21
0.18
0.30
0.18
0.47
0.19
0.68
0.21
0.75
0.21
0.68
0.21
0.55
0.30
0.47
0.37
0.37
0.55
0.30
0.68
0.26
0.75
0.21
0.55
0.18
0.47
0.17
0.21
0.22
0.22
0.17
0.15
0.10
0.07
0.10
0.01
0.15
0.00
0.15
0.01
0.10
0.01
0.10
0.01
0.07
0.03
0.07
0.07
0.02
0.15
0.00
0.17
0.00
0.19
0.00
0.22
0.00
0.22
0.03
0.17
0.03
0.17
0.07
0.15
0.10
0.10
0.15
0.03
0.15
0.00
0.17
0.00
0.03
0.04
0.07
0.00
0.01
0.00
0.02
0.03
0.07
0.17
0.03
0.22
0.10
0.19
0.15
0.19
0.15
0.19
0.10
0.21
0.55
0.82
0.44
0.80
0.83
0.81
0.75
0.81
0.00
0.17
0.26
0.19
0.37
0.17
0.47
0.19
0.55
0.26
0.55
0.37
0.47
0.47
0.26
0.68
0.26
0.75
0.21
0.75
0.26
0.78
0.21
0.68
0.21
0.37
0.26
0.21
0.26
0.17
0.18
0.15
0.22
0.02
0.17
0.00
0.10
0.00
0.07
0.00
0.02
0.02
0.02
0.03
0.01
0.10
0.01
0.07
0.00
0.10
0.04
0.10
0.00
0.10
0.01
0.07
0.01
0.03
0.03
0.01
0.10
0.01
0.15
0.00
0.15
0.01
0.15
0.01
0.15
0.00
0.07
0.09
0.01
0.09
0.00
0.00
0.30
0.00
0.20
0.03
0.09
0.17
0.00
0.10
0.03
0.19
0.15
0.17
0.15
0.15
0.15
0.17
0.30
0.68
0.19
0.81
0.76
0.88
0.76
0.77
0.75
0.04
0.19
0.19
0.19
0.19
0.21
0.21
0.19
0.37
0.18
0.47
0.18
0.55
0.19
0.55
0.19
0.68
0.19
0.55
0.26
0.68
0.26
0.55
0.26
0.26
0.30
0.18
0.26
0.19
0.19
0.17
0.22
0.07
0.07
0.03
0.00
0.03
0.01
0.02
0.01
0.03
0.04
0.03
0.04
0.03
0.00
0.07
0.04
0.10
0.00
0.07
0.00
0.07
0.01
0.03
0.02
0.02
0.07
0.01
0.10
0.01
0.15
0.00
0.15
0.00
0.15
0.00
0.07
0.00
0.03
0.00
0.04
0.00
0.00
0.01
0.30
0.01
0.09
0.03
0.00
0.15
0.01
0.15
0.07
0.19
0.17
0.17
0.19
0.15
0.19
0.22
0.68
0.47
0.00
0.80
0.83
0.82
0.77
0.82
0.09
0.15
0.18
0.19
0.19
0.19
0.19
0.30
0.21
0.55
0.21
0.68
0.21
0.68
0.19
0.47
0.21
0.55
0.30
0.37
0.37
0.30
0.55
0.19
0.47
0.19
0.30
0.19
0.21
0.19
0.19
0.00
0.01
0.35
0.30
0.44
0.30
0.16
0.04
0.04
0.00
0.10
0.00
0.17
0.02
0.19
0.02
0.17
0.03
0.19
0.07
0.19
0.10
0.17
0.19
0.30
0.82
0.00
0.81
0.86
0.80
0.76
0.82
0.57
0.19
0.19
0.18
0.17
0.19
0.19
0.18
0.26
0.17
0.37
0.18
0.37
0.18
0.47
0.18
0.37
0.19
0.37
0.21
0.37
0.21
0.30
0.26
0.18
0.21
0.19
0.19
0.17
0.19
0.03
0.17
0.00
0.07
0.00
0.02
0.00
0.00
0.00
0.01
0.03
0.00
0.03
0.00
0.10
0.00
0.10
0.00
0.07
0.01
0.10
0.00
0.07
0.00
0.07
0.03
0.00
0.07
0.00
0.10
0.01
0.15
0.01
0.10
0.01
0.10
0.00
0.15
0.00
0.15
0.00
0.10
0.00
0.10
0.03
0.03
0.10
0.00
0.15
0.01
0.07
0.00
0.07
0.03
0.02
0.07
0.00
0.15
0.01
0.07
0.01
0.03
0.16
0.01
0.16
0.01
0.20
0.35
0.09
0.16
0.01
0.04
0.03
0.01
0.15
0.01
0.17
0.07
0.15
0.10
0.15
0.15
0.15
0.17
0.26
0.30
0.75
0.81
0.94
0.80
0.76
0.80
0.20
0.19
0.19
0.18
0.17
0.19
0.19
0.19
0.21
0.21
0.21
0.19
0.30
0.18
0.30
0.18
0.47
0.19
0.37
0.17
0.30
0.17
0.21
0.19
0.19
0.22
0.19
0.22
0.19
0.19
0.17
0.10
0.02
0.03
0.00
0.02
0.09
0.02
0.16
0.02
0.00
0.02
0.01
0.01
0.01
0.01
0.00
0.00
0.00
0.04
0.02
0.04
0.03
0.00
0.03
0.00
0.10
0.00
0.07
0.00
0.07
0.00
0.03
0.00
0.03
0.02
0.02
0.03
0.01
0.07
0.00
0.07
0.04
0.02
0.20
0.04
0.09
0.00
0.09
0.35
0.00
0.20
0.02
0.00
0.10
0.00
0.10
0.02
0.17
0.07
0.10
0.10
0.10
0.15
0.17
0.47
0.30
0.00
0.80
0.83
0.85
0.75
0.82
0.30
0.10
0.19
0.19
0.19
0.18
0.18
0.19
0.18
0.26
0.18
0.37
0.18
0.37
0.18
0.37
0.18
0.47
0.21
0.30
0.26
0.26
0.30
0.19
0.30
0.17
0.26
0.19
0.21
0.22
0.17
0.07
0.17
0.02
0.07
0.00
0.03
0.01
0.00
0.01
0.00
0.02
0.04
0.03
0.09
0.03
0.04
0.03
0.04
0.03
0.00
0.03
0.01
0.02
0.02
0.00
0.07
0.00
0.10
0.01
0.10
0.00
0.15
0.01
0.10
0.00
0.07
0.02
0.07
0.00
0.00
0.00
0.09
0.00
0.16
0.00
0.35
0.01
0.16
0.00
0.09
0.10
0.00
0.07
0.10
0.10
0.15
0.03
0.19
0.07
0.17
0.07
0.30
0.55
0.19
0.82
0.80
0.95
0.78
0.76
0.68
0.02
0.22
0.19
0.19
0.21
0.19
0.26
0.17
0.37
0.17
0.37
0.18
0.47
0.18
0.47
0.19
0.47
0.21
0.30
0.30
0.30
0.30
0.19
0.37
0.18
0.37
0.19
0.26
0.19
0.17
0.15
0.19
0.03
0.07
0.01
0.00
0.01
0.01
0.01
0.00
0.00
0.04
0.00
0.09
0.02
0.09
0.02
0.04
0.00
0.00
0.01
0.00
0.01
0.00
0.04
0.03
0.04
0.07
0.09
0.02
0.00
0.03
0.00
0.00
0.03
0.00
0.00
0.00
0.03
0.09
0.02
0.20
0.00
0.35
0.00
0.20
0.16
0.09
0.20
0.01
0.09
0.03
0.04
0.10
0.00
0.17
0.00
0.17
0.03
0.10
0.03
0.19
0.55
0.18
0.80
0.80
0.98
0.86
0.77
0.82
0.00
0.07
0.18
0.19
0.19
0.22
0.21
0.17
0.26
0.19
0.19
0.21
0.19
0.26
0.17
0.37
0.17
0.37
0.17
0.37
0.18
0.37
0.17
0.26
0.18
0.21
0.19
0.18
0.19
0.22
0.19
0.07
0.10
0.01
0.03
0.09
0.00
0.16
0.01
0.20
0.00
0.16
0.01
0.09
0.01
0.04
0.04
0.00
0.04
0.00
0.09
0.02
0.04
0.02
0.16
0.03
0.04
0.03
0.04
0.07
0.00
0.03
0.00
0.00
0.00
0.01
0.03
0.00
0.03
0.00
0.03
0.09
0.02
0.30
0.00
0.30
0.03
0.30
0.20
0.16
0.04
0.01
0.01
0.02
0.01
0.10
0.00
0.19
0.02
0.19
0.03
0.19
0.10
0.18
0.55
0.17
0.79
0.80
0.96
0.82
0.76
0.80
0.00
0.15
0.19
0.22
0.21
0.19
0.26
0.17
0.21
0.19
0.26
0.19
0.21
0.26
0.19
0.37
0.17
0.37
0.19
0.37
0.19
0.37
0.19
0.26
0.18
0.21
0.17
0.18
0.19
0.22
0.22
0.07
0.10
0.01
0.03
0.04
0.03
0.09
0.02
0.04
0.00
0.00
0.02
0.00
0.00
0.00
0.01
0.02
0.00
0.02
0.00
0.02
0.01
0.07
0.00
0.03
0.02
0.02
0.03
0.00
0.03
0.00
0.03
0.01
0.03
0.00
0.10
0.00
0.07
0.02
0.03
0.00
0.01
0.01
0.09
0.01
0.04
0.00
0.20
0.00
0.16
0.02
0.00
0.03
0.00
0.15
0.10
0.17
0.10
0.15
0.15
0.07
0.22
0.19
0.82
0.22
0.77
0.77
0.82
0.78
0.77
0.80
0.09
0.22
0.22
0.18
0.19
0.21
0.17
0.30
0.19
0.30
0.19
0.26
0.26
0.30
0.26
0.37
0.30
0.30
0.30
0.26
0.47
0.21
0.47
0.21
0.37
0.18
0.26
0.19
0.19
0.22
0.19
0.07
0.15
0.00
0.03
0.01
0.02
0.00
0.01
0.02
0.00
0.03
0.04
0.03
0.00
0.03
0.00
0.03
0.00
0.03
0.00
0.02
0.03
0.00
0.03
0.00
0.10
0.00
0.07
0.00
0.10
0.01
0.10
0.00
0.10
0.00
0.03
0.02
0.02
0.00
0.00
0.04
0.09
0.00
0.16
0.04
0.20
0.01
0.04
0.07
0.02
0.07
0.03
0.17
0.10
0.15
0.17
0.10
0.19
0.07
0.19
0.19
0.75
0.01
0.82
0.83
0.81
0.76
0.82
0.35
0.10
0.19
0.22
0.18
0.19
0.21
0.19
0.30
0.17
0.30
0.17
0.37
0.18
0.30
0.18
0.26
0.21
0.21
0.26
0.19
0.30
0.19
0.30
0.18
0.30
0.19
0.21
0.22
0.18
0.15
0.19
0.02
0.07
0.00
0.00
0.01
0.01
0.01
0.04
0.00
0.04
0.00
0.04
0.02
0.09
0.02
0.09
0.00
0.00
0.00
0.00
0.01
0.03
0.00
0.03
0.04
0.07
0.01
0.07
0.00
0.07
0.02
0.01
0.03
0.01
0.07
0.00
0.03
0.04
0.02
0.30
0.04
0.20
0.04
0.30
0.16
0.09
0.00
0.00
0.00
0.02
0.01
0.10
0.03
0.19
0.03
0.17
0.02
0.17
0.15
0.19
0.55
0.19
0.80
0.81
0.83
0.77
0.80
0.75
0.10
0.17
0.17
0.22
0.19
0.19
0.19
0.18
0.21
0.21
0.21
0.21
0.18
0.30
0.19
0.37
0.19
0.37
0.19
0.37
0.19
0.47
0.17
0.37
0.17
0.26
0.17
0.19
0.22
0.19
0.10
0.10
0.02
0.00
0.00
0.00
0.00
0.04
0.02
0.04
0.02
0.09
0.02
0.09
0.03
0.00
0.00
0.00
0.00
0.02
0.04
0.03
0.00
0.07
0.00
0.07
0.00
0.07
0.01
0.02
0.02
0.02
0.07
0.01
0.07
0.01
0.07
0.04
0.02
0.09
0.01
0.35
0.01
0.09
0.09
0.20
0.09
0.01
0.04
0.07
0.01
0.15
0.02
0.17
0.03
0.19
0.07
0.22
0.07
0.22
0.19
0.68
0.19
0.79
0.76
0.86
0.77
0.75
0.72
0.00
0.18
0.22
0.19
0.18
0.26
0.21
0.19
0.26
0.26
0.30
0.21
0.37
0.19
0.55
0.19
0.47
0.19
0.55
0.19
0.37
0.26
0.37
0.26
0.21
0.21
0.19
0.19
0.19
0.19
0.17
0.19
0.02
0.15
0.01
0.07
0.00
0.07
0.00
0.07
0.04
0.03
0.01
0.03
0.00
0.02
0.02
0.00
0.02
0.00
0.07
0.00
0.07
0.01
0.10
0.00
0.07
0.00
0.07
0.02
0.03
0.03
0.00
0.10
0.00
0.15
0.00
0.07
0.00
0.03
0.04
0.04
0.09
0.00
0.09
0.30
0.01
0.09
0.07
0.01
0.10
0.01
0.17
0.03
0.19
0.10
0.19
0.10
0.10
0.19
0.19
0.75
0.19
0.72
0.76
0.83
0.80
0.79
0.81
0.04
0.19
0.19
0.18
0.19
0.19
0.17
0.30
0.18
0.30
0.18
0.37
0.18
0.30
0.18
0.37
0.19
0.37
0.19
0.37
0.21
0.26
0.19
0.21
0.19
0.19
0.18
0.19
0.22
0.07
0.07
0.16
0.20
0.57
0.20
0.50
0.04
0.30
0.00
0.04
0.03
0.02
0.03
0.03
0.02
0.10
0.00
0.17
0.00
0.17
0.02
0.17
0.02
0.17
0.19
0.82
0.15
0.82
0.82
0.83
0.76
0.79
0.64
0.00
0.22
0.19
0.18
0.19
0.18
0.17
0.17
0.21
0.17
0.26
0.17
0.30
0.19
0.26
0.18
0.26
0.21
0.21
0.26
0.19
0.21
0.19
0.19
0.19
0.17
0.19
0.19
0.07
0.17
0.01
0.03
0.04
0.01
0.04
0.00
0.01
0.09
0.01
0.16
0.02
0.09
0.02
0.09
0.03
0.04
0.02
0.09
0.02
0.00
0.02
0.01
0.00
0.01
0.00
0.00
0.00
0.02
0.00
0.02
0.00
0.02
0.09
0.03
0.04
0.03
0.09
0.02
0.04
0.00
0.09
0.00
0.01
0.00
0.00
0.04
0.00
0.09
0.00
0.16
0.02
0.16
0.00
0.16
0.00
0.09
0.00
0.04
0.00
0.01
0.20
0.04
0.44
0.00
0.44
0.30
0.57
0.16
0.30
0.09
0.09
0.01
0.00
0.01
0.07
0.00
0.10
0.00
0.15
0.01
0.07
0.07
0.30
0.19
0.44
0.79
0.91
0.86
0.80
0.80
0.68
0.10
0.17
0.17
0.19
0.18
0.22
0.19
0.19
0.21
0.19
0.19
0.17
0.17
0.18
0.19
0.21
0.19
0.21
0.19
0.21
0.19
0.19
0.22
0.17
0.22
0.19
0.19
0.22
0.19
0.03
0.15
0.01
0.03
0.09
0.01
0.16
0.01
0.30
0.01
0.30
0.01
0.20
0.04
0.20
0.04
0.16
0.04
0.04
0.16
0.04
0.09
0.01
0.16
0.01
0.16
0.02
0.16
0.02
0.09
0.02
0.04
0.01
0.00
0.00
0.01
0.01
0.02
0.00
0.07
0.04
0.03
0.16
0.00
0.20
0.09
0.20
0.09
0.20
0.35
0.20
0.30
0.00
0.20
0.03
0.16
0.03
0.01
0.10
0.00
0.10
0.02
0.10
0.03
0.17
0.26
0.47
0.30
0.75
0.94
0.96
0.80
0.77
0.44
0.00
0.17
0.22
0.17
0.19
0.19
0.17
0.19
0.26
0.19
0.30
0.18
0.37
0.17
0.37
0.19
0.47
0.21
0.37
0.26
0.37
0.37
0.21
0.30
0.21
0.30
0.18
0.26
0.22
0.18
0.15
0.22
0.03
0.07
0.01
0.02
0.01
0.00
0.00
0.01
0.01
0.00
0.03
0.04
0.02
0.04
0.02
0.09
0.03
0.09
0.03
0.04
0.02
0.01
0.00
0.02
0.01
0.03
0.01
0.07
0.01
0.03
0.04
0.07
0.00
0.07
0.01
0.03
0.01
0.02
0.00
0.04
0.00
0.16
0.00
0.35
0.00
0.35
0.09
0.30
0.00
0.16
0.02
0.00
0.02
0.03
0.02
0.15
0.07
0.17
0.02
0.15
0.02
0.18
0.30
0.17
0.81
0.77
0.98
0.83
0.76
0.81
0.09
0.15
0.17
0.22
0.19
0.19
0.26
0.19
0.26
0.17
0.26
0.18
0.19
0.21
0.21
0.26
0.19
0.26
0.19
0.30
0.18
0.37
0.18
0.30
0.19
0.26
0.19
0.19
0.22
0.19
0.17
0.15
0.03
0.01
0.02
0.04
0.02
0.09
0.02
0.09
0.00
0.09
0.02
0.09
0.00
0.04
0.01
0.01
0.04
0.00
0.00
0.03
0.00
0.07
0.00
0.07
0.00
0.03
0.01
0.03
0.01
0.03
0.02
0.00
0.02
0.01
0.07
0.00
0.07
0.00
0.10
0.04
0.00
0.04
0.00
0.16
0.09
0.00
0.20
0.09
0.30
0.01
0.09
0.03
0.09
0.07
0.02
0.10
0.07
0.03
0.15
0.03
0.10
0.03
0.21
0.37
0.18
0.80
0.76
0.94
0.77
0.77
0.72
0.00
0.22
0.22
0.19
0.19
0.19
0.26
0.17
0.30
0.17
0.30
0.17
0.37
0.17
0.37
0.19
0.37
0.18
0.26
0.26
0.19
0.26
0.18
0.30
0.17
0.26
0.19
0.19
0.22
0.19
0.07
0.19
0.01
0.03
0.09
0.02
0.09
0.02
0.09
0.02
0.00
0.01
0.01
0.01
0.00
0.00
0.03
0.00
0.03
0.04
0.07
0.00
0.07
0.00
0.03
0.00
0.03
0.00
0.00
0.03
0.00
0.07
0.04
0.10
0.00
0.07
0.00
0.07
0.04
0.02
0.04
0.00
0.16
0.20
0.01
0.30
0.16
0.30
0.01
0.04
0.07
0.04
0.07
0.00
0.17
0.07
0.17
0.15
0.10
0.15
0.03
0.18
0.26
0.55
0.50
0.81
0.88
0.80
0.76
0.81
0.20
0.22
0.19
0.17
0.18
0.17
0.26
0.19
0.47
0.18
0.55
0.19
0.47
0.18
0.37
0.21
0.37
0.26
0.30
0.37
0.26
0.37
0.21
0.47
0.18
0.30
0.17
0.30
0.22
0.17
0.17
0.22
0.02
0.07
0.02
0.00
0.00
0.00
0.02
0.00
0.03
0.04
0.03
0.04
0.03
0.09
0.03
0.01
0.02
0.00
0.02
0.00
0.02
0.01
0.00
0.02
0.01
0.07
0.01
0.07
0.01
0.10
0.01
0.07
0.00
0.10
0.01
0.03
0.01
0.00
0.00
0.16
0.00
0.16
0.00
0.35
0.04
0.20
0.00
0.00
0.03
0.00
0.03
0.15
0.10
0.17
0.07
0.22
0.03
0.19
0.10
0.30
0.68
0.19
0.80
0.77
0.85
0.80
0.79
0.79
0.03
0.17
0.19
0.19
0.21
0.19
0.26
0.19
0.21
0.21
0.21
0.30
0.19
0.37
0.19
0.55
0.19
0.47
0.18
0.55
0.19
0.37
0.21
0.30
0.21
0.21
0.19
0.17
0.18
0.19
0.19
0.07
0.17
0.00
0.07
0.00
0.02
0.04
0.02
0.00
0.00
0.00
0.01
0.00
0.04
0.00
0.04
0.03
0.04
0.02
0.04
0.07
0.04
0.07
0.00
0.03
0.01
0.02
0.01
0.02
0.00
0.02
0.02
0.02
0.02
0.00
0.03
0.04
0.02
0.09
0.01
0.30
0.01
0.20
0.09
0.35
0.04
0.09
0.01
0.00
0.00
0.00
0.02
0.15
0.03
0.19
0.07
0.22
0.03
0.22
0.19
0.75
0.17
0.75
0.77
0.86
0.77
0.76
0.77
0.20
0.19
0.22
0.19
0.19
0.26
0.17
0.26
0.19
0.30
0.21
0.21
0.30
0.19
0.37
0.18
0.47
0.19
0.47
0.19
0.47
0.19
0.30
0.18
0.26
0.19
0.18
0.19
0.19
0.17
0.15
0.22
0.02
0.10
0.04
0.03
0.04
0.02
0.09
0.00
0.01
0.01
0.00
0.01
0.00
0.00
0.00
0.09
0.07
0.04
0.03
0.04
0.03
0.04
0.03
0.04
0.03
0.00
0.03
0.00
0.00
0.02
0.01
0.02
0.01
0.07
0.04
0.03
0.09
0.00
0.20
0.09
0.30
0.00
0.30
0.20
0.16
0.09
0.00
0.04
0.03
0.04
0.10
0.00
0.17
0.02
0.17
0.02
0.15
0.07
0.22
0.30
0.30
0.30
0.79
0.83
0.85
0.76
0.81
0.20
0.03
0.19
0.19
0.18
0.19
0.19
0.17
0.19
0.21
0.18
0.21
0.17
0.30
0.17
0.37
0.17
0.37
0.18
0.30
0.21
0.30
0.21
0.26
0.21
0.19
0.19
0.19
0.18
0.22
0.19
0.03
0.17
0.01
0.03
0.09
0.02
0.04
0.00
0.04
0.01
0.01
0.00
0.01
0.09
0.02
0.09
0.02
0.09
0.03
0.09
0.02
0.04
0.02
0.00
0.02
0.02
0.01
0.03
0.00
0.07
0.00
0.10
0.00
0.07
0.01
0.03
0.01
0.00
0.00
0.00
0.04
0.30
0.00
0.16
0.04
0.50
0.00
0.30
0.00
0.09
0.03
0.00
0.10
0.03
0.10
0.15
0.03
0.17
0.03
0.19
0.17
0.68
0.26
0.16
0.81
0.83
0.82
0.76
0.82
0.68
0.15
0.17
0.17
0.22
0.26
0.19
0.26
0.19
0.30
0.17
0.30
0.17
0.37
0.18
0.26
0.19
0.30
0.26
0.21
0.30
0.19
0.30
0.17
0.30
0.19
0.26
0.19
0.19
0.22
0.22
0.10
0.03
0.03
0.01
0.02
0.04
0.02
0.09
0.02
0.09
0.02
0.16
0.00
0.09
0.00
0.09
0.01
0.04
0.00
0.00
0.00
0.00
0.04
0.02
0.09
0.02
0.04
0.03
0.09
0.03
0.09
0.03
0.09
0.00
0.04
0.01
0.01
0.04
0.01
0.16
0.00
0.44
0.09
0.30
0.04
0.50
0.20
0.20
0.09
0.00
0.01
0.01
0.01
0.07
0.02
0.10
0.00
0.15
0.01
0.15
0.07
0.26
0.37
0.09
0.81
0.91
0.86
0.81
0.78
0.75
0.07
0.10
0.19
0.17
0.18
0.22
0.19
0.19
0.21
0.17
0.18
0.18
0.19
0.19
0.18
0.21
0.18
0.26
0.17
0.30
0.19
0.37
0.17
0.30
0.19
0.19
0.19
0.19
0.19
0.15
0.17
0.01
0.07
0.16
0.00
0.20
0.00
0.20
0.01
0.16
0.01
0.20
0.04
0.09
0.09
0.04
0.16
0.00
0.16
0.01
0.30
0.00
0.16
0.00
0.16
0.00
0.09
0.00
0.16
0.01
0.00
0.04
0.00
0.09
0.02
0.16
0.02
0.16
0.02
0.35
0.01
0.30
0.09
0.44
0.16
0.30
0.44
0.20
0.35
0.04
0.20
0.02
0.16
0.03
0.00
0.10
0.00
0.03
0.02
0.02
0.02
0.17
0.30
0.19
0.77
0.78
0.99
0.95
0.80
0.83
0.20
0.02
0.19
0.19
0.19
0.22
0.19
0.19
0.21
0.18
0.19
0.21
0.18
0.21
0.17
0.30
0.17
0.37
0.17
0.37
0.18
0.37
0.17
0.21
0.19
0.19
0.19
0.19
0.19
0.19
0.19
0.03
0.19
0.00
0.02
0.09
0.02
0.16
0.01
0.09
0.00
0.04
0.09
0.01
0.16
0.00
0.16
0.00
0.16
0.02
0.16
0.02
0.09
0.02
0.09
0.00
0.01
0.01
0.00
0.04
0.03
0.09
0.03
0.09
0.03
0.04
0.02
0.00
0.00
0.00
0.01
0.02
0.00
0.00
0.09
0.00
0.35
0.00
0.20
0.04
0.50
0.00
0.16
0.01
0.01
0.01
0.00
0.01
0.15
0.02
0.17
0.02
0.19
0.02
0.19
0.22
0.82
0.19
0.79
0.81
0.95
0.82
0.76
0.72
0.10
0.22
0.19
0.18
0.19
0.21
0.19
0.37
0.18
0.47
0.18
0.37
0.18
0.30
0.18
0.26
0.21
0.26
0.26
0.19
0.37
0.18
0.37
0.17
0.37
0.19
0.26
0.22
0.19
0.17
0.22
0.03
0.07
0.00
0.00
0.02
0.01
0.02
0.09
0.03
0.04
0.03
0.09
0.03
0.04
0.02
0.00
0.00
0.00
0.01
0.03
0.01
0.07
0.00
0.07
0.00
0.10
0.01
0.10
0.00
0.10
0.00
0.03
0.02
0.02
0.07
0.00
0.10
0.01
0.10
0.00
0.07
0.04
0.07
0.16
0.00
0.20
0.00
0.09
0.09
0.16
0.16
0.01
0.09
0.07
0.00
0.07
0.01
0.19
0.02
0.19
0.02
0.19
0.02
0.17
0.19
0.82
0.19
0.79
0.76
0.91
0.80
0.76
0.79
0.30
0.22
0.17
0.18
0.19
0.19
0.19
0.19
0.21
0.19
0.21
0.17
0.37
0.17
0.37
0.19
0.37
0.17
0.37
0.18
0.30
0.18
0.21
0.19
0.18
0.19
0.19
0.21
0.19
0.17
0.10
0.19
0.00
0.03
0.04
0.01
0.04
0.00
0.04
0.09
0.01
0.16
0.01
0.16
0.00
0.20
0.00
0.30
0.02
0.20
0.00
0.20
0.00
0.16
0.01
0.00
0.00
0.00
0.04
0.00
0.04
0.02
0.16
0.02
0.16
0.03
0.09
0.02
0.20
0.00
0.20
0.00
0.20
0.16
0.20
0.50
0.04
0.50
0.30
0.61
0.04
0.35
0.01
0.09
0.00
0.00
0.00
0.02
0.02
0.07
0.00
0.07
0.01
0.22
0.19
0.55
0.61
0.80
0.96
0.82
0.78
0.81
0.68
0.02
0.17
0.19
0.22
0.22
0.18
0.19
0.21
0.22
0.21
0.22
0.21
0.19
0.26
0.19
0.19
0.19
0.18
0.17
0.17
0.19
0.19
0.26
0.22
0.21
0.22
0.18
0.17
0.19
0.10
0.15
0.00
0.01
0.01
0.09
0.00
0.20
0.01
0.30
0.01
0.30
0.00
0.30
0.01
0.20
0.00
0.09
0.04
0.09
0.00
0.00
0.09
0.00
0.16
0.02
0.20
0.02
0.16
0.03
0.09
0.02
0.04
0.00
0.04
0.01
0.01
0.00
0.00
0.04
0.00
0.20
0.04
0.50
0.04
0.50
0.04
0.61
0.16
0.35
0.04
0.16
0.01
0.00
0.00
0.03
0.02
0.10
0.00
0.15
0.00
0.15
0.03
0.37
0.21
0.01
0.81
0.83
0.86
0.77
0.80
0.67
0.07
0.19
0.19
0.19
0.19
0.22
0.26
0.19
0.30
0.19
0.21
0.18
0.21
0.21
0.19
0.26
0.18
0.30
0.19
0.30
0.17
0.37
0.19
0.37
0.19
0.21
0.19
0.17
0.22
0.22
0.17
0.03
0.07
0.04
0.02
0.16
0.03
0.16
0.02
0.16
0.03
0.16
0.02
0.09
0.00
0.00
0.01
0.00
0.04
0.03
0.09
0.03
0.09
0.07
0.04
0.07
0.01
0.07
0.01
0.02
0.02
0.02
0.03
0.00
0.07
0.01
0.10
0.00
0.10
0.09
0.03
0.16
0.01
0.30
0.00
0.20
0.04
0.16
0.00
0.01
0.03
0.02
0.02
0.10
0.10
0.19
0.03
0.22
0.03
0.19
0.07
0.19
0.47
0.30
0.44
0.81
0.83
0.83
0.75
0.83
0.04
0.07
0.18
0.22
0.19
0.17
0.19
0.21
0.19
0.30
0.19
0.37
0.19
0.47
0.17
0.47
0.18
0.55
0.18
0.47
0.21
0.37
0.19
0.26
0.21
0.19
0.19
0.17
0.19
0.22
0.22
0.03
0.17
0.09
0.00
0.20
0.01
0.35
0.30
0.50
0.44
0.16
0.44
0.00
0.20
0.02
0.09
0.07
0.01
0.17
0.00
0.17
0.07
0.17
0.15
0.15
0.15
0.15
0.17
0.19
0.55
0.85
0.17
0.81
0.82
0.95
0.77
0.80
0.35
0.02
0.19
0.22
0.18
0.17
0.18
0.19
0.21
0.21
0.17
0.30
0.18
0.30
0.17
0.47
0.17
0.47
0.17
0.47
0.19
0.30
0.26
0.21
0.30
0.19
0.26
0.22
0.19
0.15
0.22
0.02
0.10
0.01
0.02
0.01
0.00
0.00
0.04
0.03
0.04
0.07
0.09
0.03
0.04
0.03
0.00
0.03
0.00
0.02
0.00
0.00
0.07
0.01
0.07
0.01
0.10
0.04
0.10
0.00
0.07
0.00
0.03
0.00
0.02
0.02
0.01
0.03
0.01
0.07
0.00
0.10
0.00
0.10
0.00
0.10
0.00
0.10
0.01
0.07
0.03
0.02
0.07
0.00
0.15
0.01
0.10
0.01
0.17
0.00
0.15
0.00
0.03
0.16
0.00
0.16
0.01
0.35
0.20
0.20
0.04
0.01
0.00
0.10
0.00
0.15
0.02
0.19
0.07
0.19
0.03
0.22
0.03
0.17
0.19
0.37
0.44
0.80
0.86
0.82
0.77
0.82
0.16
0.03
0.18
0.17
0.18
0.22
0.26
0.19
0.21
0.17
0.26
0.19
0.18
0.26
0.17
0.30
0.19
0.30
0.19
0.30
0.19
0.30
0.19
0.21
0.22
0.18
0.19
0.19
0.22
0.22
0.22
0.10
0.10
0.01
0.03
0.16
0.02
0.20
0.02
0.16
0.00
0.09
0.00
0.00
0.00
0.00
0.04
0.02
0.20
0.02
0.16
0.03
0.09
0.03
0.04
0.03
0.04
0.02
0.00
0.02
0.00
0.01
0.07
0.00
0.07
0.04
0.10
0.00
0.10
0.01
0.10
0.01
0.07
0.00
0.03
0.04
0.00
0.20
0.00
0.04
0.30
0.16
0.16
0.01
0.09
0.07
0.04
0.15
0.00
0.19
0.03
0.19
0.07
0.10
0.15
0.07
0.18
0.37
0.26
0.80
0.76
0.98
0.80
0.77
0.81
0.30
0.17
0.19
0.22
0.19
0.19
0.30
0.19
0.30
0.17
0.47
0.17
0.47
0.19
0.30
0.26
0.26
0.37
0.26
0.37
0.21
0.55
0.19
0.47
0.17
0.47
0.19
0.26
0.19
0.18
0.22
0.17
0.15
0.00
0.10
0.04
0.07
0.04
0.03
0.09
0.07
0.04
0.02
0.04
0.00
0.01
0.01
0.00
0.00
0.02
0.04
0.02
0.04
0.07
0.09
0.07
0.09
0.07
0.04
0.03
0.04
0.07
0.04
0.03
0.04
0.03
0.01
0.02
0.01
0.01
0.01
0.09
0.00
0.20
0.16
0.50
0.01
0.44
0.16
0.50
0.00
0.30
0.00
0.09
0.01
0.01
0.01
0.02
0.01
0.15
0.00
0.10
0.00
0.22
0.17
0.30
0.68
0.77
0.98
0.97
0.81
0.81
0.50
0.00
0.19
0.17
0.17
0.19
0.19
0.19
0.21
0.19
0.19
0.18
0.18
0.19
0.17
0.30
0.19
0.37
0.19
0.37
0.18
0.26
0.18
0.21
0.18
0.17
0.18
0.19
0.17
0.19
0.22
0.07
0.15
0.09
0.03
0.30
0.01
0.30
0.00
0.20
0.04
0.20
0.09
0.09
0.30
0.09
0.30
0.00
0.35
0.00
0.35
0.00
0.30
0.00
0.20
0.01
0.09
0.04
0.04
0.09
0.01
0.20
0.02
0.20
0.00
0.30
0.00
0.20
0.00
0.30
0.00
0.20
0.01
0.35
0.04
0.35
0.16
0.50
0.04
0.44
0.35
0.30
0.35
0.04
0.30
0.00
0.30
0.03
0.16
0.07
0.00
0.07
0.00
0.03
0.01
0.19
0.26
0.19
0.77
0.80
0.99
0.97
0.77
0.80
0.20
0.01
0.22
0.15
0.19
0.19
0.17
0.19
0.19
0.17
0.19
0.19
0.22
0.21
0.22
0.26
0.22
0.26
0.19
0.30
0.19
0.26
0.19
0.18
0.19
0.19
0.19
0.22
0.22
0.10
0.17
0.01
0.07
0.20
0.00
0.30
0.00
0.30
0.04
0.16
0.09
0.09
0.20
0.01
0.30
0.01
0.30
0.01
0.20
0.04
0.16
0.09
0.00
0.09
0.01
0.09
0.02
0.16
0.02
0.09
0.03
0.16
0.03
0.09
0.03
0.16
0.02
0.04
0.03
0.04
0.00
0.00
0.00
0.09
0.20
0.04
0.44
0.00
0.35
0.09
0.50
0.09
0.30
0.00
0.04
0.01
0.01
0.07
0.02
0.07
0.03
0.07
0.03
0.02
0.19
0.19
0.55
0.64
0.81
0.94
0.82
0.77
0.83
0.50
0.03
0.22
0.19
0.17
0.19
0.19
0.22
0.26
0.19
0.26
0.19
0.21
0.17
0.19
0.18
0.18
0.21
0.17
0.26
0.17
0.30
0.17
0.30
0.19
0.26
0.22
0.18
0.22
0.19
0.19
0.10
0.15
0.01
0.00
0.16
0.02
0.20
0.02
0.16
0.02
0.16
0.00
0.04
0.00
0.01
0.04
0.00
0.04
0.02
0.09
0.03
0.04
0.07
0.09
0.07
0.04
0.03
0.04
0.03
0.01
0.02
0.01
0.02
0.02
0.00
0.00
0.00
0.03
0.00
0.02
0.16
0.00
0.35
0.09
0.30
0.01
0.50
0.04
0.20
0.01
0.00
0.01
0.00
0.00
0.10
0.03
0.17
0.03
0.17
0.00
0.19
0.10
0.47
0.30
0.02
0.82
0.82
0.85
0.76
0.81
0.57
0.15
0.17
0.17
0.22
0.19
0.22
0.30
0.19
0.26
0.19
0.26
0.18
0.19
0.18
0.19
0.19
0.18
0.26
0.17
0.26
0.19
0.30
0.19
0.21
0.19
0.18
0.19
0.19
0.22
0.15
0.19
0.00
0.03
0.09
0.02
0.20
0.01
0.16
0.00
0.16
0.04
0.04
0.00
0.04
0.09
0.01
0.16
0.01
0.16
0.00
0.20
0.00
0.20
0.02
0.09
0.01
0.04
0.00
0.00
0.01
0.04
0.00
0.02
0.09
0.03
0.09
0.02
0.16
0.01
0.16
0.01
0.30
0.20
0.30
0.09
0.44
0.44
0.30
0.16
0.00
0.00
0.01
0.01
0.07
0.01
0.15
0.00
0.15
0.00
0.15
0.10
0.19
0.37
0.02
0.82
0.83
0.86
0.77
0.80
0.77
0.03
0.10
0.19
0.19
0.17
0.19
0.18
0.18
0.17
0.19
0.18
0.21
0.19
0.21
0.17
0.30
0.19
0.30
0.17
0.26
0.17
0.26
0.19
0.19
0.17
0.17
0.17
0.19
0.19
0.17
0.19
0.00
0.10
0.04
0.03
0.09
0.01
0.09
0.01
0.00
0.04
0.00
0.04
0.00
0.09
0.00
0.16
0.02
0.16
0.02
0.04
0.00
0.04
0.02
0.00
0.00
0.00
0.00
0.00
0.00
0.03
0.04
0.03
0.04
0.03
0.04
0.07
0.16
0.00
0.09
0.00
0.30
0.16
0.04
0.20
0.30
0.20
0.00
0.16
0.02
0.09
0.03
0.01
0.15
0.02
0.15
0.07
0.10
0.03
0.07
0.19
0.21
0.37
0.67
0.80
0.91
0.80
0.76
0.81
0.44
0.17
0.22
0.19
0.19
0.19
0.18
0.17
0.19
0.17
0.26
0.17
0.30
0.19
0.30
0.17
0.26
0.18
0.26
0.21
0.21
0.19
0.19
0.26
0.17
0.26
0.19
0.21
0.22
0.17
0.10
0.22
0.02
0.07
0.01
0.02
0.00
0.00
0.01
0.04
0.02
0.04
0.03
0.04
0.03
0.09
0.03
0.00
0.03
0.00
0.02
0.00
0.00
0.00
0.00
0.07
0.00
0.07
0.01
0.10
0.01
0.07
0.00
0.07
0.01
0.03
0.00
0.02
0.00
0.04
0.01
0.20
0.00
0.16
0.04
0.35
0.04
0.20
0.02
0.00
0.07
0.00
0.10
0.07
0.15
0.15
0.03
0.17
0.07
0.17
0.17
0.55
0.26
0.04
0.81
0.82
0.83
0.75
0.83
0.20
0.15
0.19
0.19
0.19
0.21
0.17
0.26
0.17
0.30
0.17
0.37
0.19
0.37
0.26
0.26
0.37
0.21
0.30
0.21
0.47
0.19
0.47
0.18
0.37
0.17
0.26
0.19
0.19
0.22
0.19
0.17
0.15
0.03
0.02
0.00
0.00
0.02
0.00
0.03
0.00
0.03
0.04
0.07
0.00
0.03
0.01
0.02
0.00
0.02
0.01
0.00
0.03
0.00
0.03
0.00
0.07
0.00
0.07
0.00
0.10
0.00
0.10
0.00
0.07
0.00
0.02
0.00
0.00
0.00
0.00
0.04
0.16
0.02
0.30
0.04
0.20
0.00
0.04
0.02
0.02
0.02
0.07
0.10
0.15
0.10
0.17
0.07
0.17
0.07
0.17
0.26
0.37
0.68
0.81
0.88
0.80
0.77
0.82
0.20
0.15
0.19
0.22
0.18
0.19
0.21
0.19
0.26
0.19
0.26
0.17
0.21
0.18
0.19
0.19
0.17
0.26
0.17
0.30
0.19
0.30
0.17
0.19
0.17
0.19
0.19
0.19
0.22
0.15
0.07
0.04
0.16
0.61
0.35
0.64
0.20
0.35
0.09
0.35
0.02
0.04
0.03
0.01
0.03
0.00
0.02
0.02
0.00
0.10
0.00
0.07
0.00
0.10
0.15
0.68
0.22
0.80
0.82
0.86
0.81
0.75
0.79
0.16
0.07
0.17
0.19
0.19
0.18
0.22
0.18
0.19
0.19
0.19
0.19
0.19
0.18
0.18
0.18
0.17
0.18
0.21
0.17
0.26
0.19
0.26
0.22
0.19
0.22
0.17
0.19
0.19
0.07
0.03
0.00
0.09
0.01
0.16
0.01
0.20
0.00
0.20
0.01
0.20
0.01
0.16
0.01
0.16
0.04
0.04
0.04
0.00
0.09
0.00
0.16
0.02
0.16
0.02
0.16
0.01
0.09
0.00
0.09
0.01
0.04
0.00
0.00
0.09
0.01
0.09
0.02
0.09
0.02
0.09
0.02
0.09
0.02
0.04
0.00
0.04
0.01
0.01
0.04
0.01
0.09
0.02
0.09
0.02
0.16
0.03
0.09
0.02
0.16
0.01
0.20
0.16
0.20
0.09
0.20
0.50
0.16
0.20
0.00
0.16
0.03
0.04
0.03
0.00
0.07
0.02
0.07
0.03
0.03
0.07
0.10
0.19
0.19
0.09
0.76
0.91
0.98
0.80
0.79
0.30
0.03
0.19
0.22
0.19
0.17
0.21
0.21
0.19
0.30
0.19
0.37
0.19
0.37
0.19
0.47
0.19
0.47
0.19
0.37
0.19
0.37
0.19
0.26
0.18
0.18
0.18
0.19
0.18
0.22
0.17
0.10
0.19
0.02
0.15
0.01
0.07
0.00
0.00
0.01
0.00
0.02
0.00
0.03
0.00
0.03
0.00
0.03
0.16
0.03
0.04
0.02
0.01
0.02
0.02
0.00
0.03
0.00
0.10
0.00
0.10
0.01
0.15
0.00
0.10
0.01
0.10
0.00
0.03
0.03
0.03
0.07
0.00
0.07
0.00
0.03
0.04
0.02
0.20
0.02
0.16
0.00
0.20
0.00
0.04
0.00
0.03
0.01
0.03
0.03
0.17
0.02
0.19
0.03
0.22
0.03
0.22
0.19
0.82
0.00
0.81
0.88
0.94
0.80
0.81
0.44
0.10
0.18
0.22
0.26
0.19
0.30
0.19
0.37
0.19
0.37
0.19
0.37
0.26
0.26
0.26
0.21
0.37
0.19
0.47
0.19
0.47
0.18
0.30
0.17
0.30
0.19
0.19
0.19
0.17
0.19
0.15
0.10
0.02
0.07
0.01
0.03
0.04
0.03
0.09
0.03
0.00
0.02
0.00
0.00
0.01
0.01
0.01
0.01
0.02
0.00
0.03
0.04
0.03
0.00
0.07
0.00
0.10
0.00
0.07
0.01
0.03
0.00
0.00
0.02
0.01
0.02
0.00
0.03
0.00
0.03
0.04
0.02
0.04
0.00
0.09
0.16
0.00
0.20
0.20
0.30
0.00
0.16
0.03
0.04
0.07
0.01
0.15
0.02
0.17
0.07
0.10
0.07
0.10
0.19
0.37
0.21
0.79
0.76
0.95
0.78
0.76
0.79
0.16
0.19
0.22
0.17
0.19
0.19
0.18
0.19
0.21
0.19
0.30
0.17
0.30
0.17
0.37
0.17
0.30
0.18
0.37
0.19
0.30
0.21
0.21
0.26
0.17
0.21
0.19
0.19
0.22
0.19
0.10
0.17
0.01
0.03
0.04
0.00
0.04
0.01
0.00
0.04
0.04
0.09
0.01
0.09
0.00
0.09
0.02
0.16
0.00
0.16
0.02
0.09
0.02
0.09
0.02
0.01
0.01
0.00
0.01
0.02
0.04
0.07
0.04
0.03
0.04
0.02
0.04
0.02
0.09
0.01
0.04
0.16
0.16
0.35
0.01
0.35
0.16
0.44
0.00
0.20
0.00
0.09
0.03
0.00
0.10
0.02
0.07
0.10
0.02
0.03
0.03
0.19
0.26
0.30
0.68
0.80
0.91
0.81
0.76
0.83
0.44
0.15
0.22
0.22
0.19
0.19
0.18
0.19
0.19
0.17
0.30
0.17
0.21
0.19
0.26
0.17
0.30
0.18
0.30
0.19
0.19
0.21
0.21
0.19
0.18
0.19
0.19
0.19
0.22
0.19
0.10
0.19
0.00
0.03
0.00
0.00
0.04
0.01
0.00
0.04
0.00
0.04
0.00
0.16
0.02
0.09
0.02
0.09
0.00
0.00
0.00
0.01
0.01
0.00
0.01
0.02
0.00
0.07
0.00
0.07
0.00
0.07
0.00
0.03
0.01
0.02
0.00
0.01
0.01
0.04
0.00
0.20
0.09
0.20
0.01
0.44
0.09
0.20
0.01
0.04
0.00
0.00
0.02
0.03
0.03
0.10
0.02
0.17
0.00
0.15
0.07
0.30
0.26
0.03
0.83
0.82
0.86
0.77
0.81
0.44
0.07
0.22
0.19
0.19
0.17
0.19
0.21
0.19
0.21
0.19
0.26
0.19
0.26
0.17
0.26
0.19
0.18
0.21
0.19
0.26
0.18
0.21
0.17
0.26
0.19
0.19
0.22
0.17
0.17
0.22
0.03
0.10
0.00
0.02
0.04
0.00
0.04
0.04
0.00
0.09
0.00
0.16
0.02
0.16
0.00
0.16
0.00
0.09
0.00
0.04
0.00
0.00
0.09
0.00
0.09
0.02
0.09
0.02
0.04
0.00
0.00
0.02
0.00
0.00
0.00
0.04
0.02
0.20
0.01
0.20
0.04
0.44
0.04
0.35
0.20
0.44
0.09
0.20
0.00
0.00
0.00
0.00
0.01
0.07
0.00
0.15
0.00
0.10
0.00
0.17
0.19
0.47
0.00
0.83
0.83
0.86
0.76
0.78
0.64
0.04
0.22
0.15
0.19
0.17
0.19
0.19
0.18
0.22
0.19
0.22
0.18
0.19
0.17
0.19
0.17
0.19
0.17
0.17
0.19
0.17
0.22
0.18
0.22
0.18
0.19
0.19
0.15
0.22
0.00
0.03
0.04
0.04
0.09
0.30
0.04
0.35
0.04
0.35
0.04
0.35
0.04
0.35
0.04
0.30
0.20
0.16
0.20
0.04
0.30
0.04
0.20
0.00
0.30
0.00
0.16
0.01
0.16
0.00
0.09
0.01
0.09
0.04
0.00
0.04
0.00
0.16
0.01
0.30
0.04
0.50
0.20
0.44
0.16
0.61
0.20
0.35
0.16
0.09
0.04
0.04
0.04
0.02
0.01
0.07
0.00
0.07
0.00
0.03
0.02
0.19
0.19
0.00
0.81
0.83
0.85
0.77
0.81
0.75
0.01
0.03
0.22
0.10
0.19
0.15
0.17
0.19
0.17
0.22
0.19
0.22
0.19
0.19
0.19
0.18
0.19
0.18
0.22
0.19
0.22
0.19
0.22
0.18
0.19
0.17
0.17
0.22
0.15
0.15
0.03
0.00
0.00
0.16
0.00
0.20
0.00
0.30
0.00
0.20
0.00
0.20
0.04
0.16
0.04
0.16
0.16
0.00
0.16
0.01
0.20
0.01
0.16
0.01
0.16
0.01
0.00
0.01
0.04
0.01
0.00
0.00
0.02
0.00
0.03
0.04
0.02
0.16
0.02
0.16
0.00
0.44
0.04
0.09
0.20
0.35
0.16
0.04
0.09
0.02
0.00
0.03
0.00
0.10
0.02
0.17
0.02
0.15
0.02
0.15
0.22
0.37
0.18
0.77
0.77
0.86
0.77
0.77
0.80
0.44
0.17
0.17
0.19
0.22
0.17
0.19
0.17
0.17
0.18
0.21
0.17
0.21
0.18
0.30
0.19
0.30
0.17
0.30
0.18
0.37
0.18
0.26
0.18
0.19
0.19
0.19
0.18
0.22
0.17
0.10
0.19
0.01
0.07
0.20
0.00
0.35
0.09
0.57
0.50
0.50
0.30
0.16
0.35
0.01
0.16
0.03
0.04
0.10
0.00
0.10
0.02
0.10
0.07
0.07
0.07
0.07
0.10
0.02
0.22
0.19
0.88
0.03
0.82
0.86
0.86
0.80
0.81
0.67
0.03
0.22
0.22
0.17
0.19
0.21
0.19
0.30
0.17
0.30
0.19
0.30
0.18
0.26
0.19
0.26
0.26
0.26
0.26
0.26
0.47
0.21
0.47
0.19
0.37
0.17
0.26
0.22
0.17
0.10
0.15
0.00
0.03
0.00
0.00
0.01
0.01
0.00
0.00
0.03
0.04
0.03
0.09
0.03
0.00
0.03
0.01
0.02
0.01
0.02
0.00
0.00
0.02
0.00
0.03
0.01
0.07
0.00
0.03
0.00
0.07
0.04
0.03
0.00
0.07
0.00
0.03
0.01
0.03
0.01
0.02
0.02
0.00
0.03
0.00
0.03
0.00
0.07
0.00
0.07
0.01
0.03
0.01
0.00
0.02
0.01
0.03
0.00
0.03
0.00
0.03
0.09
0.01
0.16
0.04
0.00
0.30
0.20
0.35
0.04
0.09
0.02
0.04
0.07
0.00
0.10
0.00
0.15
0.07
0.07
0.07
0.03
0.22
0.19
0.30
0.64
0.78
0.98
0.86
0.81
0.82
0.57
0.22
0.22
0.19
0.19
0.19
0.19
0.21
0.30
0.18
0.37
0.18
0.47
0.19
0.47
0.21
0.47
0.17
0.37
0.19
0.30
0.19
0.26
0.19
0.19
0.18
0.19
0.17
0.22
0.19
0.17
0.22
0.03
0.15
0.01
0.07
0.00
0.03
0.04
0.02
0.00
0.01
0.00
0.01
0.01
0.01
0.00
0.00
0.03
0.09
0.03
0.04
0.03
0.00
0.03
0.01
0.03
0.02
0.01
0.07
0.01
0.07
0.01
0.15
0.01
0.10
0.01
0.15
0.00
0.07
0.03
0.07
0.07
0.02
0.07
0.01
0.03
0.09
0.01
0.16
0.03
0.16
0.04
0.04
0.01
0.02
0.02
0.15
0.02
0.17
0.03
0.22
0.10
0.22
0.15
0.22
0.17
0.17
0.78
0.30
0.57
0.76
0.91
0.86
0.77
0.82
0.00
0.19
0.26
0.17
0.30
0.26
0.30
0.37
0.37
0.55
0.30
0.55
0.30
0.75
0.26
0.68
0.26
0.75
0.30
0.75
0.37
0.75
0.37
0.47
0.30
0.37
0.30
0.19
0.30
0.19
0.19
0.19
0.19
0.10
0.17
0.02
0.15
0.02
0.15
0.00
0.10
0.07
0.03
0.10
0.03
0.15
0.02
0.10
0.02
0.17
0.00
0.19
0.03
0.19
0.03
0.15
0.07
0.15
0.10
0.07
0.17
0.03
0.19
0.00
0.17
0.03
0.19
0.03
0.19
0.07
0.17
0.03
0.15
0.07
0.03
0.07
0.00
0.02
0.04
0.07
0.16
0.02
0.04
0.07
0.00
0.17
0.03
0.17
0.15
0.22
0.22
0.19
0.22
0.19
0.22
0.22
0.55
0.68
0.19
0.82
0.80
0.85
0.77
0.80
0.30
0.10
0.19
0.18
0.17
0.30
0.18
0.37
0.19
0.47
0.19
0.55
0.21
0.55
0.21
0.47
0.21
0.47
0.30
0.47
0.30
0.37
0.30
0.21
0.37
0.19
0.30
0.17
0.26
0.22
0.18
0.15
0.22
0.02
0.10
0.02
0.03
0.01
0.00
0.00
0.01
0.07
0.04
0.07
0.04
0.07
0.00
0.03
0.01
0.03
0.02
0.02
0.03
0.00
0.10
0.01
0.15
0.00
0.15
0.00
0.15
0.03
0.03
0.10
0.00
0.15
0.01
0.10
0.01
0.15
0.01
0.07
0.00
0.03
0.04
0.01
0.04
0.00
0.09
0.09
0.00
0.00
0.03
0.01
0.15
0.00
0.19
0.07
0.19
0.15
0.19
0.10
0.19
0.19
0.26
0.78
0.19
0.81
0.82
0.82
0.76
0.83
0.44
0.22
0.22
0.21
0.19
0.26
0.19
0.30
0.21
0.26
0.26
0.30
0.30
0.21
0.47
0.26
0.55
0.21
0.68
0.26
0.55
0.21
0.68
0.21
0.47
0.19
0.37
0.18
0.21
0.17
0.19
0.22
0.10
0.07
0.01
0.07
0.04
0.07
0.04
0.03
0.00
0.00
0.01
0.00
0.00
0.01
0.02
0.01
0.07
0.04
0.07
0.00
0.07
0.00
0.03
0.02
0.03
0.02
0.00
0.07
0.00
0.07
0.00
0.07
0.00
0.07
0.00
0.07
0.00
0.03
0.00
0.01
0.04
0.20
0.09
0.20
0.00
0.44
0.09
0.30
0.01
0.16
0.02
0.00
0.03
0.02
0.03
0.15
0.02
0.15
0.00
0.15
0.02
0.18
0.37
0.18
0.79
0.76
0.91
0.78
0.76
0.75
0.01
0.19
0.17
0.19
0.19
0.19
0.21
0.19
0.30
0.17
0.30
0.18
0.21
0.19
0.26
0.19
0.30
0.30
0.21
0.30
0.19
0.37
0.18
0.30
0.17
0.37
0.19
0.21
0.22
0.19
0.15
0.15
0.03
0.03
0.00
0.00
0.01
0.04
0.02
0.04
0.03
0.09
0.02
0.09
0.02
0.09
0.03
0.09
0.02
0.00
0.02
0.00
0.00
0.02
0.00
0.03
0.01
0.10
0.01
0.10
0.01
0.10
0.01
0.07
0.02
0.07
0.02
0.00
0.02
0.01
0.00
0.20
0.04
0.20
0.00
0.35
0.09
0.20
0.01
0.04
0.03
0.01
0.03
0.07
0.02
0.17
0.03
0.19
0.02
0.19
0.03
0.17
0.26
0.47
0.67
0.76
0.91
0.82
0.77
0.82
0.09
0.10
0.17
0.22
0.21
0.19
0.30
0.19
0.30
0.17
0.37
0.18
0.30
0.19
0.30
0.21
0.21
0.26
0.21
0.37
0.18
0.47
0.19
0.37
0.19
0.30
0.19
0.26
0.22
0.17
0.15
0.15
0.02
0.02
0.00
0.00
0.00
0.04
0.00
0.16
0.00
0.16
0.02
0.16
0.00
0.04
0.01
0.04
0.00
0.01
0.04
0.01
0.09
0.02
0.09
0.02
0.09
0.03
0.09
0.02
0.01
0.00
0.01
0.00
0.03
0.04
0.02
0.09
0.02
0.16
0.01
0.35
0.09
0.35
0.04
0.44
0.35
0.20
0.20
0.00
0.16
0.03
0.16
0.03
0.01
0.10
0.02
0.07
0.02
0.03
0.03
0.10
0.26
0.21
0.20
0.77
0.86
0.86
0.76
0.80
0.44
0.00
0.22
0.17
0.19
0.22
0.17
0.19
0.19
0.17
0.19
0.19
0.19
0.21
0.19
0.26
0.19
0.30
0.19
0.26
0.19
0.26
0.19
0.21
0.19
0.19
0.22
0.19
0.19
0.22
0.15
0.03
0.02
0.04
0.00
0.20
0.01
0.20
0.01
0.20
0.01
0.20
0.01
0.20
0.00
0.20
0.04
0.09
0.09
0.04
0.20
0.01
0.30
0.00
0.20
0.00
0.09
0.00
0.04
0.04
0.01
0.09
0.00
0.16
0.03
0.16
0.00
0.16
0.00
0.09
0.09
0.30
0.35
0.16
0.30
0.20
0.61
0.09
0.35
0.00
0.16
0.02
0.04
0.03
0.01
0.10
0.02
0.07
0.03
0.02
0.17
0.22
0.68
0.22
0.68
0.77
0.86
0.82
0.76
0.82
0.30
0.17
0.19
0.19
0.22
0.17
0.22
0.19
0.22
0.21
0.19
0.21
0.19
0.26
0.19
0.21
0.17
0.21
0.18
0.19
0.18
0.19
0.19
0.17
0.19
0.17
0.18
0.22
0.19
0.17
0.19
0.00
0.07
0.04
0.03
0.16
0.02
0.16
0.00
0.16
0.01
0.04
0.04
0.00
0.09
0.00
0.20
0.02
0.20
0.00
0.09
0.02
0.04
0.01
0.00
0.01
0.01
0.01
0.02
0.00
0.03
0.04
0.03
0.09
0.03
0.09
0.03
0.16
0.00
0.16
0.04
0.20
0.30
0.00
0.30
0.20
0.35
0.00
0.30
0.03
0.09
0.02
0.00
0.10
0.02
0.15
0.03
0.10
0.07
0.07
0.22
0.37
0.37
0.67
0.81
0.98
0.85
0.80
0.82
0.57
0.19
0.22
0.19
0.19
0.19
0.19
0.17
0.21
0.17
0.26
0.19
0.30
0.19
0.37
0.18
0.37
0.18
0.37
0.19
0.26
0.21
0.21
0.26
0.19
0.26
0.17
0.21
0.22
0.19
0.15
0.19
0.01
0.10
0.04
0.02
0.09
0.01
0.00
0.09
0.01
0.16
0.00
0.16
0.01
0.16
0.02
0.16
0.02
0.09
0.02
0.09
0.00
0.04
0.00
0.01
0.01
0.02
0.00
0.03
0.04
0.03
0.04
0.03
0.04
0.03
0.04
0.02
0.00
0.04
0.04
0.16
0.16
0.30
0.01
0.35
0.20
0.44
0.00
0.30
0.02
0.09
0.02
0.01
0.07
0.03
0.07
0.10
0.02
0.15
0.02
0.19
0.19
0.68
0.64
0.75
1.00
0.91
0.82
0.83
0.50
0.15
0.19
0.22
0.18
0.19
0.26
0.19
0.30
0.19
0.37
0.17
0.30
0.17
0.37
0.18
0.30
0.18
0.30
0.21
0.26
0.26
0.19
0.26
0.17
0.26
0.19
0.21
0.22
0.17
0.10
0.19
0.01
0.03
0.09
0.01
0.04
0.04
0.04
0.16
0.00
0.20
0.00
0.30
0.01
0.20
0.01
0.20
0.04
0.16
0.04
0.09
0.04
0.00
0.04
0.01
0.09
0.01
0.09
0.02
0.16
0.02
0.09
0.00
0.09
0.01
0.01
0.00
0.01
0.00
0.00
0.16
0.00
0.30
0.04
0.50
0.01
0.30
0.16
0.44
0.04
0.20
0.00
0.00
0.04
0.02
0.00
0.10
0.01
0.10
0.01
0.15
0.01
0.22
0.19
0.37
0.68
0.77
0.98
0.95
0.80
0.82
0.30
0.02
0.19
0.19
0.18
0.22
0.21
0.19
0.30
0.19
0.26
0.17
0.26
0.19
0.21
0.19
0.19
0.26
0.17
0.26
0.18
0.30
0.19
0.26
0.19
0.21
0.22
0.19
0.22
0.19
0.17
0.10
0.07
0.00
0.01
0.09
0.00
0.16
0.00
0.20
0.00
0.16
0.01
0.16
0.00
0.09
0.00
0.00
0.04
0.01
0.09
0.00
0.09
0.02
0.09
0.02
0.04
0.03
0.09
0.03
0.04
0.02
0.00
0.00
0.01
0.00
0.01
0.00
0.02
0.04
0.03
0.09
0.02
0.30
0.01
0.35
0.16
0.16
0.16
0.30
0.30
0.09
0.20
0.00
0.04
0.03
0.04
0.15
0.02
0.17
0.03
0.10
0.10
0.07
0.17
0.17
0.85
0.19
0.80
0.81
0.86
0.80
0.81
0.75
0.07
0.19
0.19
0.19
0.17
0.19
0.19
0.26
0.17
0.30
0.17
0.37
0.17
0.47
0.17
0.47
0.19
0.37
0.26
0.26
0.47
0.21
0.37
0.19
0.37
0.17
0.26
0.19
0.21
0.19
0.19
0.03
0.17
0.00
0.07
0.04
0.03
0.04
0.00
0.01
0.00
0.02
0.09
0.00
0.04
0.03
0.09
0.07
0.04
0.03
0.04
0.02
0.00
0.03
0.02
0.00
0.07
0.01
0.07
0.09
0.10
0.04
0.07
0.00
0.03
0.00
0.00
0.01
0.00
0.02
0.04
0.00
0.16
0.00
0.44
0.00
0.35
0.09
0.57
0.04
0.16
0.00
0.01
0.04
0.03
0.01
0.10
0.02
0.17
0.00
0.15
0.01
0.19
0.17
0.78
0.20
0.82
0.86
0.83
0.77
0.83
0.50
0.10
0.22
0.22
0.19
0.22
0.18
0.19
0.21
0.19
0.26
0.19
0.26
0.19
0.30
0.19
0.26
0.18
0.26
0.19
0.19
0.19
0.18
0.21
0.19
0.21
0.22
0.19
0.17
0.19
0.07
0.17
0.01
0.02
0.09
0.01
0.16
0.04
0.04
0.16
0.01
0.20
0.00
0.30
0.01
0.20
0.00
0.00
0.04
0.00
0.04
0.02
0.16
0.00
0.16
0.03
0.09
0.03
0.09
0.07
0.09
0.00
0.00
0.01
0.00
0.04
0.03
0.04
0.03
0.16
0.02
0.20
0.01
0.44
0.09
0.16
0.16
0.35
0.35
0.00
0.20
0.00
0.09
0.03
0.00
0.15
0.00
0.17
0.00
0.15
0.01
0.17
0.19
0.47
0.19
0.77
0.77
0.91
0.80
0.76
0.80
0.44
0.19
0.15
0.17
0.17
0.18
0.22
0.18
0.19
0.18
0.17
0.17
0.18
0.17
0.19
0.19
0.21
0.19
0.26
0.19
0.26
0.19
0.26
0.22
0.21
0.22
0.18
0.17
0.19
0.03
0.00
0.20
0.61
0.57
0.67
0.44
0.50
0.09
0.50
0.00
0.16
0.02
0.04
0.02
0.01
0.03
0.00
0.03
0.02
0.00
0.03
0.00
0.10
0.00
0.37
0.30
0.02
0.78
0.86
0.86
0.76
0.82
0.64
0.03
0.03
0.19
0.19
0.18
0.19
0.21
0.22
0.21
0.19
0.19
0.17
0.19
0.19
0.19
0.26
0.19
0.26
0.19
0.30
0.19
0.26
0.19
0.19
0.22
0.19
0.19
0.17
0.07
0.00
0.01
0.04
0.00
0.20
0.00
0.16
0.00
0.16
0.00
0.20
0.02
0.20
0.02
0.09
0.00
0.01
0.00
0.02
0.04
0.03
0.09
0.03
0.09
0.03
0.04
0.03
0.00
0.02
0.00
0.03
0.01
0.01
0.02
0.01
0.03
0.09
0.03
0.04
0.07
0.09
0.07
0.04
0.07
0.09
0.03
0.01
0.02
0.01
0.00
0.00
0.01
0.03
0.04
0.10
0.04
0.10
0.04
0.07
0.00
0.02
0.04
0.04
0.20
0.04
0.20
0.35
0.16
0.30
0.01
0.09
0.07
0.00
0.10
0.00
0.15
0.03
0.15
0.07
0.10
0.15
0.07
0.17
0.37
0.17
0.82
0.80
0.88
0.76
0.78
0.44
0.01
0.17
0.19
0.19
0.19
0.18
0.19
0.17
0.26
0.19
0.30
0.19
0.37
0.17
0.30
0.21
0.21
0.21
0.17
0.37
0.19
0.30
0.19
0.26
0.19
0.18
0.19
0.22
0.19
0.17
0.19
0.10
0.19
0.01
0.07
0.09
0.03
0.16
0.02
0.09
0.00
0.09
0.00
0.04
0.01
0.04
0.01
0.04
0.00
0.00
0.00
0.00
0.09
0.00
0.09
0.07
0.04
0.10
0.04
0.10
0.00
0.07
0.00
0.07
0.00
0.03
0.02
0.03
0.02
0.00
0.03
0.00
0.07
0.16
0.00
0.35
0.00
0.20
0.00
0.44
0.01
0.20
0.00
0.00
0.00
0.02
0.00
0.15
0.03
0.15
0.03
0.17
0.00
0.22
0.22
0.82
0.10
0.80
0.80
0.83
0.77
0.79
0.77
0.00
0.22
0.17
0.19
0.22
0.21
0.22
0.26
0.19
0.30
0.19
0.26
0.17
0.21
0.18
0.19
0.19
0.19
0.21
0.18
0.26
0.19
0.30
0.19
0.26
0.22
0.18
0.22
0.19
0.22
0.15
0.10
0.02
0.02
0.16
0.00
0.16
0.00
0.20
0.00
0.20
0.00
0.20
0.00
0.16
0.00
0.00
0.04
0.00
0.09
0.01
0.16
0.02
0.16
0.02
0.16
0.03
0.09
0.02
0.04
0.02
0.04
0.00
0.01
0.00
0.02
0.09
0.00
0.20
0.00
0.35
0.04
0.44
0.04
0.30
0.50
0.35
0.30
0.09
0.16
0.02
0.16
0.03
0.04
0.15
0.01
0.17
0.00
0.15
0.02
0.15
0.17
0.55
0.15
0.82
0.83
0.95
0.77
0.76
0.61
0.04
0.19
0.17
0.18
0.22
0.18
0.22
0.19
0.17
0.18
0.18
0.18
0.21
0.17
0.30
0.19
0.30
0.17
0.30
0.19
0.37
0.17
0.26
0.17
0.26
0.17
0.18
0.17
0.19
0.19
0.07
0.19
0.00
0.07
0.16
0.02
0.16
0.00
0.09
0.00
0.00
0.00
0.00
0.09
0.02
0.20
0.00
0.20
0.03
0.16
0.03
0.00
0.03
0.00
0.03
0.00
0.07
0.00
0.02
0.02
0.00
0.07
0.01
0.10
0.00
0.10
0.04
0.03
0.09
0.00
0.30
0.04
0.04
0.16
0.30
0.44
0.01
0.20
0.02
0.09
0.03
0.00
0.19
0.02
0.19
0.02
0.15
0.07
0.15
0.22
0.30
0.82
0.20
0.83
0.97
0.88
0.83
0.80
0.68
0.19
0.22
0.19
0.19
0.21
0.18
0.21
0.26
0.21
0.37
0.17
0.47
0.17
0.47
0.18
0.47
0.19
0.55
0.21
0.47
0.21
0.37
0.30
0.26
0.37
0.19
0.37
0.19
0.21
0.19
0.19
0.07
0.17
0.00
0.03
0.01
0.01
0.02
0.00
0.02
0.09
0.03
0.09
0.03
0.16
0.07
0.09
0.07
0.04
0.07
0.04
0.02
0.00
0.03
0.00
0.02
0.02
0.01
0.07
0.00
0.07
0.00
0.15
0.00
0.10
0.00
0.10
0.00
0.03
0.04
0.01
0.16
0.09
0.01
0.16
0.09
0.20
0.02
0.16
0.10
0.04
0.15
0.00
0.17
0.03
0.17
0.10
0.10
0.17
0.15
0.21
0.55
0.18
0.81
0.80
0.98
0.80
0.76
0.64
0.00
0.18
0.19
0.19
0.19
0.19
0.37
0.18
0.47
0.18
0.68
0.19
0.75
0.21
0.55
0.30
0.37
0.37
0.37
0.37
0.26
0.55
0.19
0.55
0.18
0.37
0.19
0.30
0.19
0.19
0.19
0.22
0.07
0.07
0.03
0.00
0.03
0.00
0.07
0.00
0.07
0.04
0.10
0.00
0.10
0.04
0.15
0.04
0.07
0.01
0.10
0.02
0.07
0.03
0.03
0.10
0.00
0.17
0.01
0.17
0.01
0.15
0.00
0.10
0.02
0.07
0.03
0.03
0.07
0.00
0.10
0.00
0.03
0.20
0.00
0.09
0.02
0.44
0.00
0.20
0.00
0.00
0.03
0.00
0.00
0.15
0.07
0.22
0.02
0.22
0.03
0.22
0.15
0.47
0.68
0.17
0.83
0.83
0.86
0.76
0.82
0.30
0.19
0.22
0.18
0.19
0.26
0.19
0.37
0.17
0.37
0.18
0.30
0.21
0.21
0.30
0.19
0.47
0.19
0.55
0.18
0.47
0.18
0.47
0.18
0.30
0.18
0.19
0.17
0.19
0.19
0.17
0.22
0.03
0.15
0.04
0.07
0.16
0.03
0.09
0.02
0.04
0.02
0.09
0.01
0.04
0.01
0.00
0.00
0.00
0.09
0.03
0.16
0.03
0.09
0.07
0.04
0.10
0.00
0.03
0.00
0.02
0.00
0.00
0.00
0.00
0.07
0.09
0.07
0.16
0.02
0.20
0.01
0.35
0.04
0.09
0.16
0.35
0.16
0.04
0.04
0.02
0.04
0.07
0.00
0.17
0.00
0.19
0.02
0.17
0.07
0.17
0.22
0.68
0.21
0.75
0.77
0.88
0.77
0.76
0.79
0.30
0.19
0.17
0.19
0.22
0.21
0.19
0.21
0.17
0.26
0.19
0.21
0.21
0.18
0.30
0.18
0.37
0.18
0.47
0.18
0.47
0.18
0.37
0.17
0.30
0.18
0.19
0.18
0.19
0.19
0.10
0.19
0.01
0.10
0.09
0.07
0.16
0.07
0.16
0.00
0.04
0.01
0.00
0.00
0.01
0.00
0.00
0.09
0.02
0.09
0.07
0.04
0.07
0.04
0.07
0.04
0.03
0.01
0.02
0.02
0.00
0.03
0.01
0.03
0.00
0.07
0.09
0.03
0.16
0.02
0.35
0.00
0.09
0.04
0.30
0.35
0.00
0.09
0.02
0.04
0.03
0.01
0.15
0.00
0.19
0.02
0.17
0.00
0.17
0.17
0.55
0.26
0.61
0.76
0.86
0.82
0.76
0.82
0.44
0.22
0.19
0.18
0.22
0.19
0.19
0.26
0.19
0.21
0.18
0.26
0.19
0.18
0.26
0.18
0.30
0.18
0.47
0.18
0.37
0.18
0.30
0.19
0.21
0.21
0.18
0.21
0.22
0.17
0.10
0.22
0.00
0.03
0.16
0.00
0.20
0.30
0.57
0.61
0.50
0.50
0.20
0.50
0.16
0.57
0.04
0.30
0.00
0.30
0.01
0.09
0.00
0.09
0.01
0.01
0.00
0.00
0.09
0.07
0.19
0.68
0.20
0.80
0.97
0.91
0.81
0.81
0.75
0.01
0.02
0.19
0.10
0.22
0.19
0.22
0.22
0.19
0.22
0.22
0.19
0.22
0.19
0.19
0.17
0.19
0.18
0.22
0.18
0.22
0.17
0.22
0.19
0.19
0.19
0.19
0.03
0.07
0.09
0.01
0.30
0.04
0.44
0.09
0.35
0.20
0.20
0.30
0.16
0.44
0.09
0.35
0.04
0.35
0.04
0.20
0.04
0.20
0.04
0.09
0.04
0.09
0.16
0.01
0.20
0.00
0.20
0.01
0.20
0.01
0.20
0.00
0.20
0.00
0.16
0.04
0.04
0.09
0.00
0.09
0.01
0.20
0.01
0.20
0.01
0.20
0.01
0.16
0.00
0.16
0.04
0.00
0.16
0.00
0.16
0.01
0.20
0.00
0.50
0.20
0.50
0.16
0.61
0.35
0.57
0.30
0.30
0.09
0.04
0.04
0.01
0.00
0.07
0.04
0.07
0.00
0.07
0.00
0.22
0.19
0.19
0.79
0.77
0.96
0.80
0.76
0.80
0.30
0.15
0.17
0.19
0.19
0.22
0.17
0.22
0.18
0.22
0.18
0.22
0.19
0.22
0.19
0.19
0.18
0.19
0.17
0.19
0.19
0.17
0.22
0.19
0.19
0.19
0.10
0.19
0.07
0.22
0.02
0.07
0.01
0.00
0.09
0.16
0.09
0.20
0.00
0.30
0.00
0.30
0.00
0.30
0.01
0.30
0.00
0.20
0.00
0.20
0.09
0.09
0.09
0.09
0.04
0.00
0.09
0.02
0.16
0.02
0.09
0.02
0.09
0.00
0.04
0.00
0.04
0.00
0.00
0.04
0.00
0.16
0.01
0.30
0.04
0.50
0.09
0.20
0.30
0.44
0.30
0.09
0.20
0.01
0.16
0.02
0.00
0.10
0.00
0.15
0.01
0.10
0.00
0.17
0.19
0.68
0.03
0.82
0.83
0.85
0.76
0.80
0.64
0.02
0.19
0.19
0.17
0.22
0.19
0.22
0.21
0.19
0.26
0.17
0.18
0.18
0.19
0.21
0.18
0.26
0.18
0.30
0.19
0.30
0.19
0.30
0.17
0.21
0.19
0.17
0.22
0.22
0.22
0.10
0.15
0.01
0.03
0.09
0.00
0.16
0.02
0.16
0.02
0.04
0.00
0.04
0.01
0.00
0.00
0.01
0.04
0.00
0.04
0.03
0.09
0.02
0.04
0.03
0.04
0.03
0.01
0.00
0.01
0.01
0.02
0.00
0.02
0.09
0.03
0.04
0.00
0.16
0.02
0.20
0.09
0.35
0.00
0.20
0.35
0.16
0.16
0.04
0.04
0.02
0.04
0.07
0.00
0.15
0.00
0.10
0.00
0.10
0.03
0.22
0.26
0.18
0.75
0.76
0.91
0.82
0.77
0.82
0.09
0.03
0.19
0.17
0.17
0.22
0.19
0.19
0.18
0.17
0.17
0.18
0.17
0.21
0.17
0.26
0.19
0.30
0.17
0.26
0.17
0.26
0.18
0.21
0.19
0.17
0.17
0.22
0.17
0.17
0.22
0.00
0.07
0.04
0.00
0.16
0.04
0.09
0.00
0.09
0.20
0.04
0.20
0.00
0.30
0.01
0.20
0.01
0.30
0.00
0.09
0.09
0.09
0.09
0.00
0.09
0.00
0.16
0.00
0.16
0.02
0.16
0.02
0.16
0.00
0.09
0.00
0.09
0.00
0.16
0.16
0.20
0.50
0.09
0.35
0.30
0.50
0.09
0.44
0.01
0.30
0.01
0.09
0.02
0.00
0.03
0.01
0.02
0.00
0.02
0.19
0.30
0.19
0.82
0.81
1.00
0.83
0.80
0.79
0.30
0.19
0.10
0.19
0.17
0.17
0.22
0.18
0.19
0.19
0.17
0.17
0.19
0.19
0.21
0.19
0.21
0.19
0.26
0.19
0.26
0.19
0.18
0.18
0.17
0.17
0.19
0.17
0.19
0.22
0.03
0.17
0.00
0.03
0.09
0.01
0.09
0.04
0.04
0.09
0.04
0.20
0.01
0.16
0.01
0.30
0.01
0.16
0.00
0.16
0.04
0.09
0.04
0.04
0.16
0.01
0.09
0.00
0.16
0.00
0.20
0.01
0.20
0.01
0.16
0.01
0.16
0.04
0.09
0.16
0.16
0.20
0.30
0.50
0.16
0.35
0.30
0.61
0.09
0.44
0.00
0.16
0.01
0.09
0.02
0.01
0.03
0.02
0.00
0.03
0.00
0.22
0.19
0.30
0.68
0.77
1.00
0.88
0.82
0.82
0.61
0.15
0.17
0.19
0.22
0.19
0.17
0.19
0.21
0.19
0.26
0.19
0.26
0.19
0.26
0.17
0.26
0.17
0.26
0.18
0.19
0.21
0.18
0.26
0.19
0.21
0.22
0.21
0.22
0.17
0.17
0.19
0.07
0.02
0.03
0.01
0.02
0.00
0.03
0.00
0.03
0.44
0.75
0.88
0.88
0.88
0.88
0.88
0.88
0.88
0.88
0.88
0.88
0.82
0.15
0.10
0.64
0.75
0.82
0.80
0.82
0.81
0.82
0.82
0.82
0.83
0.83
0.81
0.81
0.76
0.76
0.81
0.80
0.85
0.82
0.86
0.83
0.83
0.81
0.78
0.76
0.78
0.80
0.81
0.81
0.68
0.68
0.16
0.35
0.01
0.04
0.07
0.00
0.10
0.03
0.15
0.10
0.10
0.10
0.17
0.17
0.17
0.19
0.15
0.22
0.07
0.22
0.15
0.19
0.15
0.19
0.19
0.22
0.22
0.17
0.22
0.19
0.19
0.19
0.19
0.17
0.19
0.17
0.17
0.17
0.19
0.19
0.19
0.19
0.22
0.22
0.22
0.22
0.19
0.19
0.19
0.19
0.15
0.19
0.17
0.19
0.15
0.19
0.19
0.19
0.19
0.22
0.22
0.17
0.19
0.17
0.19
0.15
0.19
0.15
0.19
0.15
0.22
0.15
0.22
0.17
0.17
0.19
0.17
0.22
0.15
0.22
0.07
0.19
0.02
0.15
0.01
0.03
0.02
0.02
0.00
0.00
0.00
0.07
0.10
0.07
0.19
0.15
0.19
0.15
0.19
0.15
0.19
0.17
0.19
0.55
0.47
0.67
0.81
0.81
0.76
0.80
0.75
0.10
0.19
0.26
0.19
0.30
0.19
0.55
0.21
0.55
0.37
0.47
0.30
0.37
0.55
0.37
0.68
0.30
0.75
0.26
0.68
0.26
0.68
0.21
0.47
0.21
0.37
0.19
0.19
0.18
0.18
0.18
0.22
0.19
0.10
0.19
0.02
0.15
0.01
0.07
0.01
0.07
0.02
0.03
0.03
0.00
0.10
0.00
0.10
0.00
0.19
0.02
0.15
0.03
0.17
0.07
0.17
0.10
0.17
0.17
0.10
0.17
0.07
0.22
0.07
0.22
0.07
0.22
0.02
0.15
0.03
0.07
0.01
0.01
0.03
0.01
0.01
0.16
0.07
0.04
0.10
0.02
0.17
0.10
0.19
0.17
0.22
0.22
0.19
0.22
0.17
0.19
0.19
0.88
0.22
0.79
0.80
0.81
0.76
0.83
0.61
0.19
0.19
0.19
0.19
0.26
0.21
0.26
0.26
0.26
0.37
0.30
0.55
0.30
0.55
0.30
0.55
0.30
0.75
0.26
0.75
0.26
0.68
0.26
0.37
0.30
0.30
0.26
0.18
0.21
0.22
0.19
0.10
0.19
0.02
0.15
0.00
0.07
0.00
0.07
0.00
0.03
0.02
0.00
0.10
0.01
0.10
0.01
0.15
0.00
0.17
0.02
0.15
0.07
0.15
0.10
0.10
0.15
0.07
0.17
0.02
0.19
0.03
0.19
0.02
0.17
0.07
0.07
0.03
0.00
0.02
0.04
0.03
0.04
0.00
0.09
0.07
0.01
0.17
0.02
0.15
0.10
0.22
0.19
0.19
0.22
0.17
0.22
0.10
0.18
0.37
0.78
0.44
0.83
0.86
0.77
0.77
0.80
0.09
0.19
0.17
0.18
0.26
0.21
0.37
0.21
0.55
0.21
0.68
0.26
0.68
0.26
0.68
0.30
0.75
0.30
0.68
0.30
0.55
0.37
0.47
0.37
0.30
0.37
0.21
0.37
0.17
0.21
0.19
0.19
0.10
0.15
0.04
0.00
0.04
0.00
0.20
0.44
0.16
0.35
0.01
0.20
0.03
0.09
0.07
0.00
0.17
0.07
0.17
0.15
0.17
0.19
0.15
0.22
0.15
0.22
0.10
0.19
0.17
0.88
0.21
0.75
0.77
0.86
0.80
0.80
0.67
0.03
0.22
0.19
0.21
0.18
0.30
0.18
0.37
0.18
0.37
0.18
0.47
0.18
0.47
0.21
0.37
0.30
0.26
0.47
0.26
0.55
0.21
0.47
0.19
0.37
0.17
0.26
0.19
0.17
0.19
0.19
0.07
0.03
0.02
0.01
0.03
0.00
0.03
0.01
0.10
0.04
0.03
0.00
0.10
0.00
0.07
0.01
0.03
0.02
0.01
0.07
0.00
0.10
0.01
0.10
0.01
0.10
0.00
0.10
0.01
0.07
0.01
0.07
0.00
0.07
0.00
0.02
0.03
0.01
0.07
0.00
0.15
0.01
0.07
0.00
0.07
0.00
0.03
0.00
0.02
0.02
0.01
0.03
0.00
0.07
0.04
0.07
0.04
0.00
0.20
0.09
0.00
0.09
0.20
0.44
0.00
0.20
0.00
0.04
0.10
0.01
0.10
0.00
0.17
0.02
0.17
0.02
0.15
0.15
0.26
0.26
0.30
0.81
0.86
0.82
0.76
0.82
0.64
0.17
0.19
0.17
0.17
0.18
0.22
0.19
0.19
0.21
0.18
0.19
0.19
0.18
0.26
0.18
0.26
0.17
0.30
0.19
0.21
0.19
0.21
0.19
0.17
0.19
0.19
0.19
0.17
0.22
0.10
0.19
0.01
0.10
0.04
0.02
0.20
0.00
0.16
0.01
0.09
0.00
0.04
0.09
0.09
0.16
0.01
0.20
0.01
0.20
0.00
0.16
0.01
0.16
0.01
0.04
0.01
0.01
0.00
0.02
0.04
0.02
0.04
0.07
0.04
0.07
0.00
0.03
0.04
0.02
0.01
0.00
0.00
0.09
0.04
0.35
0.04
0.20
0.09
0.50
0.04
0.30
0.00
0.04
0.00
0.00
0.07
0.03
0.07
0.10
0.03
0.10
0.00
0.17
0.19
0.78
0.19
0.79
0.80
0.86
0.81
0.76
0.80
0.04
0.15
0.22
0.19
0.22
0.19
0.19
0.21
0.19
0.26
0.19
0.30
0.19
0.21
0.19
0.30
0.19
0.21
0.19
0.21
0.21
0.17
0.26
0.19
0.26
0.22
0.19
0.22
0.17
0.10
0.22
0.03
0.03
0.00
0.00
0.01
0.04
0.00
0.09
0.00
0.16
0.02
0.16
0.02
0.16
0.00
0.16
0.00
0.09
0.01
0.00
0.00
0.00
0.04
0.00
0.00
0.03
0.00
0.03
0.00
0.03
0.04
0.02
0.00
0.03
0.04
0.02
0.00
0.01
0.04
0.04
0.09
0.30
0.04
0.20
0.09
0.57
0.04
0.30
0.00
0.09
0.02
0.00
0.07
0.03
0.03
0.03
0.10
0.10
0.02
0.19
0.19
0.78
0.15
0.80
0.82
0.96
0.85
0.76
0.80
0.16
0.17
0.19
0.18
0.22
0.19
0.19
0.26
0.19
0.21
0.17
0.26
0.18
0.19
0.21
0.19
0.26
0.17
0.30
0.18
0.30
0.17
0.30
0.17
0.30
0.19
0.21
0.19
0.18
0.19
0.22
0.10
0.03
0.02
0.04
0.02
0.16
0.00
0.16
0.00
0.16
0.01
0.16
0.01
0.09
0.04
0.00
0.09
0.01
0.16
0.00
0.16
0.00
0.16
0.02
0.09
0.00
0.16
0.02
0.04
0.00
0.00
0.00
0.01
0.00
0.01
0.09
0.02
0.09
0.02
0.16
0.00
0.30
0.09
0.57
0.00
0.35
0.20
0.50
0.09
0.16
0.16
0.01
0.09
0.00
0.04
0.10
0.01
0.10
0.00
0.07
0.01
0.15
0.17
0.47
0.20
0.77
0.98
0.98
0.82
0.77
0.57
0.00
0.19
0.17
0.19
0.17
0.18
0.22
0.19
0.19
0.19
0.18
0.19
0.21
0.19
0.26
0.19
0.26
0.17
0.26
0.19
0.21
0.17
0.19
0.17
0.17
0.18
0.22
0.17
0.15
0.19
0.03
0.15
0.04
0.02
0.16
0.01
0.09
0.00
0.04
0.04
0.04
0.09
0.04
0.16
0.00
0.20
0.01
0.20
0.01
0.16
0.00
0.16
0.00
0.04
0.01
0.01
0.04
0.02
0.09
0.02
0.09
0.03
0.09
0.00
0.04
0.02
0.04
0.00
0.04
0.01
0.00
0.04
0.02
0.09
0.00
0.20
0.04
0.44
0.01
0.44
0.16
0.35
0.04
0.20
0.00
0.00
0.00
0.00
0.03
0.10
0.02
0.10
0.00
0.15
0.00
0.17
0.26
0.30
0.79
0.76
0.98
0.81
0.77
0.81
0.16
0.10
0.19
0.19
0.17
0.22
0.21
0.19
0.30
0.19
0.30
0.17
0.26
0.18
0.30
0.19
0.26
0.21
0.19
0.21
0.18
0.30
0.17
0.30
0.19
0.26
0.19
0.18
0.19
0.19
0.10
0.15
0.02
0.02
0.02
0.04
0.01
0.09
0.02
0.09
0.02
0.09
0.02
0.16
0.02
0.04
0.02
0.04
0.02
0.01
0.00
0.01
0.01
0.02
0.00
0.03
0.04
0.07
0.00
0.03
0.00
0.10
0.01
0.07
0.01
0.03
0.02
0.01
0.03
0.00
0.03
0.04
0.03
0.09
0.01
0.35
0.00
0.16
0.09
0.30
0.09
0.00
0.00
0.00
0.00
0.03
0.00
0.17
0.03
0.19
0.02
0.17
0.02
0.19
0.19
0.68
0.18
0.75
0.77
0.94
0.80
0.76
0.80
0.20
0.22
0.22
0.19
0.22
0.19
0.17
0.19
0.19
0.19
0.26
0.18
0.26
0.18
0.37
0.18
0.37
0.17
0.47
0.19
0.37
0.19
0.37
0.19
0.26
0.19
0.18
0.18
0.22
0.19
0.15
0.19
0.00
0.10
0.00
0.03
0.04
0.00
0.00
0.00
0.00
0.01
0.01
0.00
0.00
0.04
0.03
0.04
0.07
0.00
0.10
0.00
0.07
0.01
0.03
0.00
0.02
0.03
0.02
0.07
0.00
0.07
0.01
0.10
0.00
0.10
0.01
0.10
0.01
0.02
0.01
0.01
0.04
0.16
0.00
0.09
0.04
0.44
0.01
0.20
0.02
0.00
0.10
0.01
0.10
0.03
0.15
0.10
0.07
0.17
0.10
0.19
0.19
0.75
0.22
0.75
0.77
0.83
0.80
0.77
0.80
0.01
0.19
0.19
0.19
0.17
0.21
0.17
0.26
0.17
0.37
0.18
0.37
0.18
0.37
0.19
0.30
0.21
0.26
0.30
0.21
0.30
0.19
0.47
0.18
0.37
0.18
0.30
0.19
0.19
0.22
0.19
0.10
0.10
0.03
0.00
0.00
0.00
0.02
0.04
0.02
0.09
0.03
0.04
0.03
0.04
0.03
0.04
0.02
0.00
0.02
0.01
0.00
0.02
0.01
0.07
0.00
0.10
0.01
0.10
0.01
0.10
0.01
0.07
0.01
0.03
0.00
0.07
0.01
0.02
0.01
0.00
0.04
0.30
0.01
0.20
0.04
0.44
0.00
0.09
0.02
0.01
0.03
0.02
0.07
0.10
0.07
0.19
0.03
0.19
0.02
0.22
0.22
0.78
0.19
0.67
0.77
0.86
0.80
0.76
0.81
0.30
0.22
0.22
0.17
0.22
0.26
0.19
0.26
0.17
0.30
0.17
0.26
0.17
0.30
0.21
0.26
0.26
0.21
0.37
0.19
0.37
0.18
0.37
0.18
0.30
0.19
0.21
0.22
0.17
0.17
0.22
0.03
0.07
0.00
0.01
0.01
0.04
0.02
0.09
0.02
0.09
0.02
0.09
0.02
0.09
0.03
0.04
0.02
0.01
0.00
0.00
0.01
0.00
0.02
0.02
0.00
0.07
0.01
0.03
0.04
0.07
0.01
0.10
0.01
0.07
0.00
0.07
0.02
0.00
0.00
0.09
0.00
0.35
0.00
0.30
0.04
0.35
0.00
0.09
0.00
0.03
0.01
0.10
0.00
0.17
0.07
0.19
0.03
0.19
0.07
0.19
0.18
0.55
0.19
0.80
0.77
0.86
0.77
0.79
0.61
0.01
0.19
0.22
0.19
0.19
0.26
0.19
0.26
0.21
0.26
0.37
0.19
0.47
0.19
0.55
0.19
0.55
0.26
0.55
0.26
0.47
0.30
0.37
0.26
0.30
0.26
0.19
0.21
0.17
0.19
0.17
0.22
0.02
0.17
0.00
0.10
0.01
0.07
0.00
0.03
0.03
0.02
0.07
0.00
0.07
0.00
0.07
0.01
0.07
0.00
0.10
0.01
0.15
0.00
0.10
0.01
0.10
0.02
0.15
0.03
0.03
0.07
0.02
0.10
0.01
0.15
0.00
0.10
0.00
0.07
0.09
0.00
0.09
0.00
0.16
0.16
0.00
0.00
0.03
0.01
0.10
0.00
0.17
0.03
0.22
0.07
0.22
0.07
0.17
0.15
0.19
0.68
0.18
0.72
0.76
0.83
0.81
0.78
0.82
0.04
0.15
0.17
0.19
0.18
0.19
0.19
0.19
0.18
0.26
0.18
0.37
0.17
0.37
0.18
0.47
0.18
0.47
0.19
0.37
0.19
0.30
0.21
0.21
0.21
0.17
0.21
0.19
0.17
0.17
0.22
0.02
0.10
0.00
0.03
0.09
0.00
0.16
0.00
0.09
0.00
0.04
0.00
0.01
0.09
0.01
0.04
0.01
0.09
0.02
0.09
0.03
0.16
0.02
0.00
0.00
0.00
0.00
0.00
0.01
0.01
0.01
0.00
0.00
0.07
0.04
0.03
0.09
0.00
0.16
0.09
0.30
0.04
0.09
0.30
0.20
0.30
0.04
0.16
0.00
0.04
0.03
0.01
0.17
0.00
0.15
0.03
0.07
0.03
0.10
0.17
0.55
0.07
0.82
0.82
0.94
0.77
0.77
0.68
0.16
0.22
0.15
0.17
0.19
0.19
0.19
0.17
0.18
0.19
0.19
0.19
0.26
0.19
0.26
0.19
0.30
0.17
0.21
0.18
0.19
0.19
0.18
0.21
0.18
0.18
0.22
0.18
0.17
0.22
0.03
0.17
0.04
0.00
0.16
0.00
0.09
0.09
0.04
0.09
0.00
0.20
0.00
0.16
0.01
0.30
0.00
0.20
0.01
0.20
0.01
0.09
0.04
0.04
0.01
0.04
0.00
0.00
0.04
0.01
0.09
0.00
0.09
0.02
0.16
0.00
0.20
0.01
0.30
0.04
0.44
0.09
0.20
0.35
0.44
0.35
0.09
0.30
0.00
0.16
0.00
0.04
0.03
0.00
0.07
0.03
0.07
0.03
0.00
0.22
0.19
0.37
0.75
0.77
1.00
0.86
0.81
0.82
0.50
0.17
0.22
0.19
0.19
0.22
0.18
0.19
0.21
0.19
0.26
0.19
0.26
0.17
0.21
0.17
0.26
0.19
0.21
0.19
0.21
0.26
0.18
0.19
0.19
0.21
0.22
0.21
0.22
0.17
0.15
0.17
0.02
0.00
0.01
0.04
0.00
0.09
0.01
0.16
0.01
0.09
0.00
0.16
0.00
0.16
0.02
0.16
0.00
0.09
0.02
0.04
0.01
0.01
0.00
0.01
0.00
0.02
0.00
0.02
0.00
0.07
0.00
0.03
0.04
0.07
0.04
0.03
0.00
0.01
0.00
0.20
0.09
0.30
0.00
0.35
0.09
0.30
0.01
0.20
0.03
0.09
0.02
0.03
0.07
0.03
0.03
0.10
0.02
0.15
0.07
0.26
0.55
0.18
0.82
0.81
1.00
0.86
0.78
0.82
0.04
0.15
0.18
0.22
0.21
0.19
0.37
0.19
0.30
0.18
0.37
0.21
0.26
0.30
0.21
0.30
0.21
0.47
0.21
0.55
0.19
0.55
0.19
0.37
0.18
0.30
0.17
0.19
0.17
0.19
0.22
0.15
0.15
0.00
0.10
0.04
0.00
0.04
0.03
0.09
0.03
0.04
0.03
0.09
0.02
0.00
0.02
0.00
0.02
0.00
0.00
0.01
0.00
0.02
0.01
0.07
0.01
0.10
0.01
0.10
0.00
0.10
0.00
0.10
0.01
0.03
0.00
0.02
0.02
0.00
0.00
0.04
0.00
0.16
0.01
0.16
0.01
0.35
0.00
0.20
0.00
0.00
0.00
0.01
0.02
0.10
0.03
0.17
0.02
0.19
0.00
0.19
0.19
0.68
0.37
0.57
0.77
0.91
0.83
0.77
0.82
0.44
0.22
0.19
0.17
0.22
0.21
0.19
0.26
0.18
0.21
0.19
0.21
0.21
0.18
0.21
0.17
0.30
0.17
0.30
0.18
0.26
0.18
0.21
0.19
0.18
0.18
0.19
0.19
0.22
0.19
0.10
0.19
0.00
0.10
0.09
0.03
0.09
0.02
0.16
0.01
0.04
0.00
0.04
0.00
0.01
0.04
0.00
0.04
0.00
0.04
0.02
0.09
0.03
0.09
0.03
0.09
0.07
0.04
0.02
0.01
0.03
0.00
0.00
0.03
0.04
0.03
0.09
0.03
0.16
0.00
0.30
0.00
0.50
0.00
0.20
0.20
0.44
0.20
0.16
0.09
0.00
0.04
0.02
0.00
0.15
0.01
0.15
0.01
0.17
0.01
0.17
0.19
0.75
0.17
0.82
0.81
0.91
0.77
0.76
0.75
0.20
0.22
0.17
0.17
0.22
0.17
0.19
0.17
0.21
0.19
0.21
0.19
0.30
0.19
0.26
0.19
0.30
0.17
0.26
0.19
0.21
0.19
0.18
0.21
0.17
0.26
0.22
0.19
0.19
0.19
0.03
0.17
0.01
0.02
0.09
0.04
0.00
0.09
0.04
0.09
0.00
0.20
0.00
0.20
0.02
0.30
0.00
0.20
0.02
0.16
0.00
0.09
0.02
0.04
0.00
0.01
0.00
0.00
0.00
0.02
0.00
0.02
0.09
0.03
0.09
0.03
0.16
0.02
0.20
0.00
0.44
0.00
0.30
0.20
0.50
0.30
0.09
0.20
0.02
0.09
0.03
0.00
0.10
0.01
0.15
0.00
0.10
0.01
0.10
0.19
0.30
0.21
0.75
0.77
0.94
0.80
0.77
0.81
0.50
0.22
0.15
0.19
0.22
0.17
0.19
0.17
0.18
0.22
0.21
0.19
0.26
0.19
0.30
0.19
0.30
0.17
0.26
0.19
0.18
0.26
0.18
0.21
0.19
0.21
0.22
0.21
0.17
0.17
0.07
0.19
0.01
0.03
0.09
0.01
0.09
0.00
0.00
0.09
0.00
0.16
0.01
0.16
0.01
0.16
0.00
0.30
0.02
0.20
0.02
0.20
0.02
0.09
0.02
0.09
0.00
0.00
0.00
0.02
0.04
0.03
0.04
0.03
0.16
0.03
0.16
0.02
0.20
0.04
0.35
0.20
0.16
0.30
0.30
0.35
0.04
0.20
0.02
0.16
0.02
0.04
0.15
0.00
0.17
0.02
0.10
0.02
0.07
0.22
0.21
0.37
0.64
0.81
0.91
0.83
0.77
0.81
0.64
0.03
0.22
0.22
0.19
0.19
0.19
0.22
0.26
0.22
0.21
0.19
0.21
0.19
0.19
0.18
0.18
0.21
0.19
0.26
0.19
0.30
0.19
0.26
0.19
0.21
0.22
0.17
0.22
0.22
0.17
0.10
0.03
0.01
0.01
0.09
0.02
0.20
0.00
0.20
0.00
0.20
0.00
0.20
0.00
0.16
0.01
0.09
0.01
0.09
0.00
0.04
0.00
0.01
0.04
0.00
0.09
0.00
0.04
0.03
0.04
0.07
0.16
0.03
0.09
0.02
0.16
0.01
0.16
0.09
0.35
0.30
0.04
0.44
0.20
0.50
0.01
0.30
0.00
0.09
0.03
0.00
0.07
0.00
0.10
0.03
0.02
0.03
0.02
0.19
0.19
0.37
0.67
0.80
0.96
0.82
0.77
0.83
0.57
0.07
0.22
0.19
0.17
0.19
0.19
0.22
0.26
0.19
0.30
0.19
0.21
0.17
0.21
0.18
0.21
0.19
0.21
0.21
0.17
0.26
0.19
0.30
0.19
0.26
0.22
0.21
0.19
0.19
0.10
0.17
0.02
0.03
0.00
0.00
0.00
0.04
0.01
0.09
0.02
0.16
0.02
0.20
0.02
0.20
0.03
0.16
0.02
0.09
0.01
0.00
0.00
0.01
0.09
0.02
0.16
0.07
0.09
0.03
0.09
0.03
0.09
0.03
0.00
0.03
0.00
0.00
0.04
0.16
0.09
0.35
0.00
0.35
0.16
0.50
0.00
0.35
0.02
0.04
0.00
0.00
0.07
0.07
0.03
0.10
0.02
0.15
0.00
0.22
0.19
0.78
0.00
0.82
0.85
0.85
0.77
0.81
0.68
0.00
0.22
0.17
0.18
0.22
0.21
0.19
0.30
0.19
0.26
0.19
0.26
0.17
0.19
0.19
0.18
0.21
0.17
0.30
0.19
0.37
0.19
0.37
0.19
0.30
0.19
0.19
0.22
0.17
0.15
0.19
0.03
0.02
0.01
0.00
0.00
0.09
0.02
0.16
0.03
0.16
0.03
0.16
0.03
0.16
0.03
0.09
0.03
0.04
0.00
0.01
0.00
0.02
0.01
0.07
0.00
0.07
0.04
0.10
0.00
0.10
0.00
0.10
0.00
0.10
0.00
0.02
0.00
0.01
0.00
0.30
0.00
0.20
0.04
0.44
0.00
0.16
0.03
0.00
0.03
0.02
0.03
0.17
0.07
0.22
0.07
0.22
0.03
0.19
0.19
0.85
0.22
0.79
0.78
0.85
0.77
0.78
0.75
0.04
0.19
0.22
0.19
0.22
0.26
0.19
0.30
0.18
0.26
0.21
0.21
0.26
0.21
0.37
0.19
0.47
0.18
0.55
0.18
0.55
0.18
0.37
0.18
0.26
0.18
0.19
0.17
0.22
0.22
0.03
0.02
0.50
0.20
0.64
0.16
0.44
0.01
0.44
0.02
0.00
0.10
0.00
0.10
0.02
0.07
0.07
0.07
0.10
0.07
0.15
0.02
0.17
0.07
0.37
0.47
0.17
0.82
0.83
0.86
0.77
0.82
0.50
0.03
0.19
0.17
0.19
0.26
0.19
0.30
0.19
0.26
0.17
0.47
0.19
0.37
0.18
0.47
0.19
0.30
0.19
0.37
0.26
0.26
0.30
0.18
0.30
0.22
0.26
0.22
0.18
0.07
0.19
0.02
0.03
0.01
0.00
0.02
0.04
0.03
0.09
0.07
0.09
0.03
0.09
0.07
0.00
0.00
0.00
0.00
0.02
0.00
0.03
0.01
0.07
0.00
0.07
0.04
0.10
0.04
0.07
0.00
0.03
0.01
0.02
0.02
0.01
0.03
0.00
0.07
0.09
0.03
0.04
0.07
0.04
0.07
0.04
0.03
0.04
0.02
0.00
0.02
0.00
0.00
0.02
0.00
0.03
0.04
0.03
0.04
0.07
0.16
0.03
0.09
0.02
0.16
0.04
0.30
0.04
0.16
0.35
0.09
0.20
0.01
0.16
0.07
0.16
0.03
0.00
0.17
0.01
0.17
0.01
0.17
0.07
0.17
0.26
0.02
0.81
0.86
0.98
0.85
0.75
0.79
0.03
0.19
0.21
0.22
0.26
0.19
0.30
0.17
0.30
0.19
0.26
0.30
0.21
0.47
0.19
0.47
0.17
0.55
0.17
0.47
0.17
0.37
0.19
0.21
0.19
0.18
0.19
0.22
0.17
0.17
0.19
0.03
0.17
0.01
0.07
0.04
0.03
0.09
0.02
0.04
0.01
0.01
0.01
0.01
0.00
0.03
0.09
0.03
0.16
0.07
0.09
0.03
0.04
0.02
0.01
0.02
0.02
0.02
0.07
0.00
0.10
0.00
0.15
0.00
0.15
0.01
0.17
0.00
0.10
0.02
0.10
0.02
0.03
0.10
0.02
0.15
0.01
0.10
0.09
0.02
0.20
0.00
0.04
0.00
0.16
0.09
0.00
0.00
0.10
0.00
0.15
0.02
0.22
0.07
0.22
0.03
0.22
0.07
0.22
0.19
0.78
0.37
0.64
0.77
0.88
0.81
0.76
0.80
0.04
0.17
0.19
0.21
0.19
0.47
0.18
0.55
0.19
0.55
0.26
0.37
0.30
0.37
0.37
0.30
0.68
0.26
0.68
0.21
0.75
0.21
0.68
0.18
0.47
0.19
0.30
0.19
0.19
0.19
0.22
0.19
0.10
0.15
0.00
0.07
0.00
0.07
0.00
0.10
0.00
0.10
0.00
0.07
0.00
0.03
0.00
0.02
0.03
0.00
0.07
0.00
0.10
0.00
0.15
0.01
0.15
0.00
0.10
0.02
0.03
0.07
0.03
0.10
0.02
0.15
0.01
0.15
0.01
0.17
0.00
0.10
0.01
0.02
0.00
0.09
0.00
0.04
0.01
0.30
0.00
0.09
0.07
0.00
0.15
0.01
0.17
0.07
0.22
0.15
0.17
0.15
0.07
0.19
0.22
0.78
0.21
0.20
0.75
0.83
0.82
0.77
0.82
0.01
0.17
0.18
0.22
0.18
0.17
0.19
0.26
0.19
0.37
0.18
0.47
0.17
0.37
0.18
0.47
0.19
0.47
0.21
0.30
0.21
0.21
0.30
0.19
0.26
0.17
0.26
0.19
0.18
0.17
0.19
0.02
0.17
0.00
0.07
0.09
0.02
0.09
0.02
0.09
0.01
0.00
0.00
0.00
0.09
0.02
0.09
0.02
0.09
0.03
0.09
0.03
0.09
0.02
0.00
0.01
0.02
0.00
0.07
0.04
0.07
0.04
0.10
0.00
0.07
0.09
0.07
0.01
0.02
0.00
0.01
0.00
0.09
0.09
0.20
0.00
0.44
0.09
0.20
0.00
0.16
0.07
0.04
0.10
0.01
0.17
0.02
0.17
0.07
0.10
0.07
0.15
0.21
0.37
0.17
0.83
0.77
0.88
0.77
0.76
0.75
0.04
0.22
0.22
0.19
0.17
0.19
0.19
0.22
0.26
0.19
0.26
0.19
0.30
0.19
0.26
0.19
0.26
0.19
0.26
0.19
0.19
0.19
0.21
0.19
0.17
0.19
0.22
0.18
0.19
0.19
0.03
0.17
0.00
0.03
0.04
0.00
0.04
0.01
0.00
0.04
0.01
0.04
0.00
0.09
0.02
0.09
0.03
0.09
0.00
0.00
0.02
0.01
0.00
0.00
0.01
0.02
0.01
0.07
0.00
0.07
0.00
0.07
0.00
0.03
0.01
0.03
0.02
0.02
0.00
0.00
0.00
0.16
0.04
0.20
0.01
0.35
0.04
0.20
0.00
0.09
0.03
0.01
0.07
0.03
0.15
0.15
0.15
0.15
0.07
0.17
0.15
0.30
0.47
0.19
0.82
0.77
0.86
0.76
0.78
0.68
0.00
0.22
0.19
0.19
0.18
0.19
0.26
0.19
0.30
0.17
0.30
0.17
0.19
0.26
0.19
0.26
0.19
0.37
0.19
0.26
0.18
0.30
0.17
0.30
0.17
0.30
0.19
0.19
0.22
0.19
0.19
0.15
0.10
0.00
0.03
0.04
0.03
0.04
0.02
0.09
0.03
0.04
0.03
0.04
0.02
0.01
0.01
0.00
0.00
0.03
0.01
0.02
0.01
0.07
0.00
0.10
0.00
0.10
0.01
0.03
0.01
0.03
0.00
0.02
0.02
0.01
0.07
0.00
0.07
0.04
0.03
0.16
0.00
0.16
0.01
0.35
0.16
0.09
0.00
0.00
0.01
0.03
0.00
0.10
0.03
0.22
0.02
0.17
0.02
0.19
0.07
0.26
0.37
0.19
0.82
0.80
0.85
0.76
0.81
0.79
0.00
0.10
0.19
0.17
0.18
0.19
0.19
0.19
0.19
0.17
0.21
0.18
0.19
0.21
0.19
0.26
0.17
0.30
0.17
0.37
0.18
0.37
0.18
0.26
0.17
0.21
0.19
0.18
0.19
0.22
0.19
0.07
0.03
0.00
0.02
0.04
0.02
0.04
0.03
0.09
0.02
0.04
0.03
0.00
0.02
0.01
0.00
0.02
0.00
0.03
0.00
0.07
0.00
0.10
0.00
0.07
0.00
0.10
0.01
0.03
0.00
0.03
0.02
0.00
0.07
0.00
0.07
0.00
0.07
0.04
0.03
0.20
0.00
0.09
0.00
0.30
0.04
0.04
0.00
0.00
0.01
0.03
0.02
0.17
0.07
0.22
0.03
0.19
0.03
0.22
0.17
0.47
0.37
0.01
0.82
0.83
0.82
0.77
0.83
0.44
0.19
0.22
0.18
0.22
0.19
0.17
0.21
0.18
0.21
0.19
0.19
0.19
0.19
0.21
0.19
0.30
0.18
0.37
0.17
0.37
0.17
0.37
0.17
0.26
0.18
0.18
0.18
0.19
0.17
0.19
0.22
0.02
0.15
0.01
0.07
0.09
0.03
0.04
0.03
0.00
0.02
0.00
0.02
0.04
0.00
0.02
0.00
0.03
0.00
0.03
0.04
0.03
0.04
0.03
0.01
0.03
0.02
0.03
0.03
0.00
0.07
0.00
0.10
0.00
0.10
0.01
0.15
0.00
0.07
0.00
0.02
0.09
0.09
0.00
0.04
0.16
0.30
0.01
0.09
0.03
0.00
0.07
0.01
0.10
0.02
0.17
0.02
0.15
0.02
0.15
0.17
0.26
0.26
0.30
0.81
0.86
0.82
0.76
0.82
0.64
0.15
0.17
0.19
0.22
0.18
0.19
0.19
0.18
0.17
0.21
0.17
0.26
0.17
0.30
0.19
0.26
0.17
0.30
0.18
0.26
0.19
0.21
0.26
0.17
0.21
0.17
0.21
0.22
0.18
0.19
0.22
0.07
0.07
0.03
0.01
0.00
0.04
0.03
0.04
0.02
0.04
0.03
0.09
0.03
0.04
0.03
0.01
0.00
0.01
0.00
0.00
0.01
0.02
0.01
0.07
0.04
0.07
0.00
0.07
0.00
0.07
0.01
0.02
0.00
0.00
0.02
0.00
0.02
0.00
0.02
0.09
0.00
0.35
0.01
0.16
0.00
0.35
0.01
0.20
0.01
0.01
0.02
0.00
0.07
0.10
0.10
0.15
0.03
0.15
0.03
0.19
0.19
0.85
0.15
0.82
0.85
0.86
0.80
0.81
0.67
0.19
0.22
0.19
0.19
0.19
0.19
0.19
0.26
0.19
0.30
0.19
0.37
0.18
0.47
0.18
0.47
0.19
0.47
0.19
0.30
0.26
0.26
0.30
0.19
0.37
0.18
0.26
0.22
0.18
0.22
0.22
0.15
0.03
0.07
0.01
0.02
0.09
0.03
0.16
0.02
0.16
0.03
0.09
0.00
0.09
0.01
0.00
0.01
0.00
0.00
0.01
0.04
0.00
0.04
0.03
0.09
0.02
0.04
0.03
0.09
0.02
0.00
0.00
0.01
0.01
0.01
0.00
0.01
0.04
0.02
0.20
0.00
0.30
0.09
0.44
0.00
0.44
0.16
0.30
0.09
0.09
0.00
0.01
0.04
0.03
0.00
0.10
0.00
0.10
0.00
0.15
0.00
0.18
0.37
0.22
0.83
0.82
1.00
0.83
0.77
0.79
0.00
0.15
0.17
0.19
0.18
0.22
0.21
0.19
0.19
0.19
0.17
0.17
0.19
0.18
0.19
0.18
0.19
0.19
0.19
0.19
0.19
0.21
0.22
0.18
0.22
0.19
0.19
0.19
0.19
0.10
0.19
0.00
0.07
0.09
0.00
0.20
0.01
0.20
0.04
0.20
0.04
0.16
0.09
0.04
0.16
0.01
0.30
0.01
0.16
0.01
0.16
0.00
0.09
0.02
0.04
0.00
0.01
0.01
0.00
0.01
0.03
0.01
0.02
0.04
0.07
0.00
0.07
0.00
0.07
0.00
0.07
0.00
0.03
0.04
0.00
0.04
0.04
0.16
0.04
0.09
0.35
0.04
0.20
0.00
0.00
0.07
0.04
0.15
0.02
0.17
0.02
0.17
0.03
0.15
0.03
0.19
0.47
0.19
0.44
0.77
0.86
0.83
0.76
0.83
0.16
0.07
0.19
0.22
0.19
0.17
0.19
0.21
0.17
0.30
0.19
0.30
0.17
0.30
0.17
0.30
0.19
0.26
0.21
0.21
0.26
0.18
0.26
0.19
0.26
0.19
0.21
0.22
0.18
0.17
0.22
0.07
0.15
0.00
0.00
0.01
0.00
0.01
0.20
0.01
0.09
0.00
0.16
0.00
0.09
0.00
0.16
0.01
0.04
0.01
0.00
0.00
0.01
0.04
0.02
0.09
0.07
0.04
0.07
0.00
0.07
0.00
0.02
0.00
0.00
0.01
0.00
0.02
0.00
0.02
0.04
0.01
0.00
0.01
0.30
0.04
0.20
0.01
0.44
0.09
0.20
0.00
0.04
0.00
0.02
0.00
0.07
0.02
0.19
0.03
0.19
0.03
0.17
0.07
0.21
0.55
0.19
0.82
0.80
0.86
0.76
0.81
0.61
0.07
0.22
0.19
0.22
0.18
0.19
0.21
0.19
0.26
0.19
0.26
0.17
0.21
0.19
0.21
0.19
0.19
0.30
0.18
0.30
0.17
0.37
0.17
0.26
0.18
0.26
0.17
0.18
0.19
0.22
0.22
0.03
0.10
0.00
0.07
0.09
0.02
0.04
0.00
0.09
0.01
0.00
0.01
0.01
0.04
0.02
0.04
0.00
0.09
0.03
0.09
0.03
0.04
0.07
0.01
0.03
0.00
0.02
0.00
0.00
0.02
0.00
0.10
0.00
0.07
0.00
0.10
0.01
0.07
0.04
0.00
0.04
0.16
0.09
0.16
0.00
0.44
0.04
0.30
0.01
0.16
0.03
0.04
0.07
0.00
0.15
0.03
0.10
0.07
0.07
0.07
0.15
0.30
0.30
0.01
0.80
0.83
0.83
0.77
0.81
0.20
0.03
0.19
0.17
0.17
0.19
0.18
0.19
0.19
0.19
0.17
0.21
0.17
0.26
0.19
0.30
0.19
0.30
0.17
0.26
0.17
0.30
0.17
0.19
0.18
0.17
0.19
0.22
0.18
0.19
0.19
0.03
0.15
0.00
0.03
0.16
0.01
0.04
0.00
0.01
0.04
0.00
0.09
0.01
0.16
0.02
0.16
0.00
0.09
0.02
0.04
0.00
0.04
0.00
0.01
0.00
0.02
0.00
0.03
0.04
0.03
0.04
0.07
0.04
0.03
0.04
0.03
0.04
0.00
0.04
0.00
0.04
0.35
0.09
0.30
0.09
0.57
0.09
0.35
0.00
0.09
0.00
0.00
0.00
0.02
0.02
0.07
0.00
0.07
0.00
0.10
0.10
0.37
0.19
0.68
0.77
0.86
0.80
0.77
0.80
0.01
0.07
0.22
0.19
0.22
0.19
0.19
0.17
0.19
0.18
0.19
0.19
0.22
0.21
0.22
0.21
0.19
0.21
0.19
0.21
0.17
0.21
0.18
0.17
0.18
0.22
0.17
0.19
0.17
0.15
0.19
0.02
0.02
0.01
0.00
0.01
0.16
0.01
0.20
0.00
0.20
0.00
0.16
0.01
0.20
0.00
0.16
0.00
0.16
0.00
0.04
0.00
0.01
0.04
0.00
0.16
0.00
0.09
0.03
0.09
0.02
0.04
0.02
0.04
0.00
0.01
0.01
0.01
0.09
0.01
0.20
0.09
0.50
0.00
0.35
0.20
0.50
0.00
0.20
0.00
0.04
0.00
0.01
0.03
0.07
0.07
0.10
0.00
0.07
0.00
0.19
0.18
0.37
0.68
0.81
0.91
0.80
0.76
0.81
0.35
0.19
0.19
0.19
0.22
0.19
0.17
0.19
0.19
0.19
0.26
0.19
0.26
0.17
0.26
0.17
0.21
0.21
0.19
0.26
0.17
0.30
0.17
0.30
0.19
0.26
0.17
0.19
0.19
0.19
0.22
0.15
0.15
0.00
0.07
0.04
0.02
0.16
0.02
0.09
0.00
0.00
0.00
0.01
0.04
0.01
0.00
0.00
0.04
0.03
0.09
0.03
0.04
0.02
0.00
0.02
0.00
0.03
0.00
0.00
0.00
0.00
0.03
0.00
0.03
0.04
0.07
0.00
0.02
0.04
0.01
0.09
0.16
0.16
0.04
0.09
0.44
0.04
0.20
0.00
0.09
0.03
0.00
0.10
0.01
0.17
0.03
0.15
0.02
0.07
0.07
0.22
0.55
0.17
0.68
0.76
0.85
0.81
0.78
0.80
0.01
0.10
0.17
0.22
0.18
0.19
0.19
0.19
0.19
0.17
0.19
0.19
0.18
0.19
0.18
0.26
0.19
0.30
0.17
0.37
0.17
0.30
0.17
0.26
0.19
0.19
0.19
0.19
0.19
0.17
0.22
0.02
0.07
0.04
0.03
0.09
0.02
0.16
0.02
0.09
0.00
0.04
0.00
0.00
0.00
0.01
0.00
0.00
0.09
0.02
0.09
0.03
0.09
0.03
0.00
0.02
0.01
0.02
0.00
0.00
0.02
0.01
0.07
0.01
0.03
0.04
0.07
0.04
0.02
0.16
0.01
0.20
0.20
0.09
0.16
0.30
0.16
0.00
0.09
0.03
0.09
0.03
0.00
0.15
0.02
0.17
0.02
0.10
0.02
0.10
0.19
0.47
0.18
0.79
0.76
0.95
0.80
0.76
0.79
0.30
0.22
0.17
0.19
0.22
0.17
0.19
0.17
0.17
0.17
0.19
0.17
0.21
0.19
0.26
0.19
0.30
0.17
0.30
0.17
0.26
0.17
0.19
0.19
0.17
0.21
0.19
0.19
0.19
0.19
0.07
0.19
0.01
0.03
0.09
0.00
0.09
0.01
0.04
0.00
0.01
0.16
0.01
0.16
0.00
0.20
0.00
0.16
0.00
0.09
0.01
0.00
0.01
0.00
0.04
0.00
0.09
0.00
0.09
0.03
0.16
0.02
0.09
0.02
0.04
0.00
0.00
0.01
0.00
0.16
0.04
0.20
0.16
0.30
0.00
0.50
0.09
0.35
0.00
0.09
0.01
0.04
0.00
0.03
0.03
0.07
0.02
0.10
0.02
0.10
0.10
0.37
0.30
0.00
0.77
0.88
0.96
0.77
0.80
0.20
0.03
0.22
0.19
0.17
0.18
0.18
0.26
0.19
0.30
0.18
0.37
0.18
0.37
0.18
0.47
0.21
0.37
0.21
0.37
0.30
0.26
0.37
0.21
0.47
0.18
0.37
0.19
0.30
0.22
0.17
0.15
0.19
0.03
0.03
0.00
0.00
0.02
0.00
0.00
0.04
0.02
0.09
0.02
0.09
0.02
0.09
0.03
0.04
0.02
0.01
0.00
0.00
0.01
0.03
0.01
0.10
0.00
0.07
0.04
0.07
0.01
0.07
0.01
0.03
0.03
0.02
0.02
0.02
0.07
0.04
0.03
0.04
0.00
0.35
0.01
0.16
0.04
0.30
0.01
0.04
0.01
0.02
0.00
0.07
0.07
0.15
0.10
0.17
0.03
0.17
0.02
0.19
0.21
0.87
0.09
0.81
0.95
0.97
0.83
0.75
0.61
0.02
0.18
0.19
0.26
0.19
0.37
0.18
0.47
0.21
0.68
0.26
0.47
0.30
0.37
0.47
0.26
0.55
0.26
0.68
0.21
0.55
0.21
0.68
0.21
0.47
0.21
0.30
0.21
0.18
0.19
0.22
0.19
0.07
0.15
0.00
0.10
0.00
0.07
0.00
0.07
0.01
0.03
0.00
0.00
0.00
0.00
0.03
0.00
0.03
0.00
0.10
0.01
0.10
0.01
0.10
0.00
0.03
0.03
0.07
0.03
0.00
0.07
0.00
0.15
0.01
0.10
0.01
0.10
0.01
0.10
0.00
0.07
0.00
0.02
0.00
0.00
0.09
0.01
0.00
0.20
0.00
0.09
0.03
0.04
0.07
0.00
0.15
0.03
0.15
0.10
0.15
0.15
0.10
0.15
0.22
0.75
0.21
0.57
0.77
0.86
0.83
0.77
0.82
0.00
0.15
0.17
0.19
0.18
0.19
0.19
0.21
0.18
0.26
0.18
0.30
0.18
0.37
0.17
0.47
0.18
0.55
0.19
0.47
0.19
0.30
0.19
0.26
0.19
0.18
0.18
0.19
0.18
0.17
0.22
0.03
0.17
0.01
0.07
0.00
0.00
0.04
0.00
0.01
0.04
0.00
0.04
0.02
0.09
0.02
0.16
0.03
0.04
0.03
0.04
0.02
0.00
0.00
0.00
0.00
0.02
0.01
0.03
0.00
0.07
0.04
0.07
0.00
0.07
0.00
0.07
0.00
0.03
0.00
0.00
0.01
0.04
0.00
0.30
0.04
0.16
0.04
0.44
0.00
0.30
0.00
0.04
0.02
0.00
0.03
0.03
0.10
0.07
0.03
0.15
0.02
0.15
0.10
0.37
0.21
0.30
0.77
0.86
0.85
0.76
0.83
0.44
0.10
0.17
0.19
0.19
0.18
0.22
0.18
0.22
0.21
0.22
0.21
0.19
0.19
0.19
0.19
0.18
0.18
0.18
0.19
0.19
0.19
0.21
0.19
0.19
0.22
0.18
0.19
0.19
0.15
0.17
0.00
0.01
0.09
0.30
0.16
0.50
0.35
0.68
0.50
0.67
0.30
0.61
0.20
0.30
0.04
0.09
0.04
0.01
0.04
0.03
0.04
0.07
0.00
0.07
0.00
0.07
0.01
0.02
0.10
0.30
0.55
0.44
0.75
0.97
0.85
0.78
0.82
0.61
0.07
0.03
0.22
0.15
0.19
0.17
0.19
0.22
0.19
0.22
0.19
0.19
0.19
0.19
0.19
0.17
0.19
0.18
0.22
0.19
0.22
0.18
0.22
0.17
0.22
0.19
0.17
0.10
0.07
0.01
0.01
0.20
0.00
0.30
0.00
0.35
0.00
0.20
0.04
0.16
0.00
0.09
0.04
0.09
0.09
0.00
0.16
0.00
0.16
0.00
0.09
0.00
0.09
0.00
0.04
0.01
0.00
0.00
0.00
0.04
0.00
0.09
0.01
0.09
0.01
0.16
0.01
0.30
0.01
0.30
0.04
0.30
0.04
0.20
0.20
0.20
0.20
0.09
0.30
0.04
0.30
0.00
0.35
0.00
0.30
0.00
0.20
0.04
0.09
0.16
0.09
0.35
0.09
0.50
0.09
0.50
0.30
0.64
0.16
0.44
0.00
0.09
0.00
0.01
0.00
0.03
0.03
0.07
0.03
0.10
0.02
0.15
0.19
0.47
0.17
0.44
0.75
0.86
0.85
0.77
0.83
0.35
0.10
0.22
0.19
0.19
0.18
0.19
0.26
0.19
0.26
0.19
0.30
0.19
0.30
0.18
0.30
0.18
0.19
0.19
0.19
0.19
0.17
0.21
0.19
0.19
0.22
0.17
0.17
0.19
0.17
0.22
0.10
0.03
0.00
0.01
0.00
0.09
0.04
0.16
0.01
0.20
0.01
0.30
0.01
0.20
0.01
0.16
0.00
0.09
0.04
0.04
0.16
0.01
0.20
0.00
0.16
0.02
0.16
0.01
0.04
0.00
0.04
0.01
0.00
0.00
0.02
0.16
0.00
0.20
0.00
0.09
0.00
0.20
0.01
0.30
0.16
0.44
0.20
0.20
0.30
0.50
0.30
0.20
0.09
0.00
0.16
0.00
0.00
0.07
0.00
0.07
0.00
0.07
0.04
0.10
0.22
0.47
0.22
0.82
0.80
0.96
0.80
0.77
0.79
0.35
0.19
0.10
0.22
0.15
0.19
0.19
0.17
0.22
0.19
0.19
0.19
0.19
0.22
0.18
0.22
0.19
0.22
0.18
0.22
0.18
0.19
0.17
0.19
0.19
0.19
0.17
0.19
0.15
0.15
0.00
0.03
0.16
0.00
0.35
0.00
0.44
0.09
0.35
0.09
0.30
0.16
0.20
0.20
0.09
0.30
0.04
0.35
0.04
0.35
0.00
0.30
0.00
0.20
0.01
0.16
0.04
0.09
0.16
0.00
0.16
0.00
0.16
0.01
0.16
0.04
0.16
0.04
0.20
0.04
0.30
0.20
0.64
0.20
0.50
0.35
0.61
0.44
0.16
0.44
0.01
0.20
0.00
0.09
0.00
0.00
0.00
0.07
0.01
0.03
0.04
0.22
0.22
0.47
0.04
0.82
0.81
0.91
0.77
0.76
0.80
0.44
0.22
0.10
0.19
0.19
0.19
0.19
0.19
0.19
0.17
0.17
0.19
0.18
0.19
0.19
0.19
0.21
0.19
0.26
0.19
0.21
0.22
0.18
0.19
0.18
0.19
0.19
0.19
0.19
0.17
0.03
0.03
0.04
0.02
0.16
0.01
0.30
0.00
0.30
0.00
0.30
0.00
0.20
0.00
0.20
0.04
0.16
0.04
0.09
0.09
0.00
0.16
0.01
0.16
0.00
0.16
0.00
0.20
0.02
0.16
0.02
0.16
0.02
0.16
0.01
0.04
0.00
0.09
0.09
0.09
0.35
0.20
0.30
0.16
0.57
0.20
0.44
0.00
0.20
0.00
0.09
0.07
0.01
0.10
0.01
0.07
0.02
0.03
0.10
0.15
0.37
0.21
0.20
0.75
0.86
0.86
0.76
0.80
0.61
0.00
0.22
0.22
0.22
0.17
0.22
0.19
0.22
0.21
0.19
0.19
0.17
0.19
0.17
0.18
0.18
0.19
0.18
0.17
0.21
0.19
0.26
0.19
0.26
0.22
0.19
0.22
0.19
0.17
0.22
0.03
0.03
0.01
0.01
0.00
0.04
0.04
0.16
0.01
0.09
0.01
0.30
0.01
0.20
0.01
0.20
0.00
0.04
0.04
0.04
0.09
0.00
0.09
0.00
0.16
0.02
0.09
0.00
0.16
0.00
0.04
0.00
0.00
0.01
0.00
0.04
0.00
0.09
0.00
0.20
0.09
0.50
0.00
0.44
0.20
0.57
0.04
0.35
0.01
0.16
0.01
0.04
0.02
0.02
0.02
0.07
0.01
0.15
0.00
0.19
0.19
0.75
0.20
0.81
0.97
0.94
0.81
0.77
0.72
0.09
0.22
0.15
0.19
0.22
0.18
0.22
0.21
0.22
0.19
0.19
0.19
0.17
0.18
0.19
0.17
0.26
0.19
0.26
0.19
0.30
0.19
0.26
0.19
0.21
0.22
0.17
0.22
0.22
0.15
0.10
0.02
0.01
0.00
0.20
0.00
0.30
0.01
0.35
0.00
0.20
0.04
0.20
0.09
0.09
0.16
0.16
0.20
0.04
0.30
0.00
0.30
0.00
0.20
0.00
0.20
0.00
0.09
0.01
0.04
0.01
0.00
0.00
0.00
0.04
0.00
0.04
0.01
0.20
0.00
0.35
0.09
0.57
0.09
0.35
0.30
0.57
0.20
0.35
0.20
0.00
0.20
0.01
0.04
0.07
0.04
0.03
0.04
0.03
0.04
0.07
0.22
0.55
0.03
0.82
0.83
1.00
0.86
0.81
0.79
0.30
0.22
0.17
0.19
0.22
0.17
0.19
0.18
0.18
0.17
0.19
0.19
0.21
0.19
0.26
0.19
0.26
0.19
0.26
0.17
0.26
0.18
0.19
0.18
0.17
0.18
0.19
0.17
0.19
0.19
0.03
0.17
0.00
0.07
0.16
0.00
0.09
0.01
0.16
0.01
0.04
0.00
0.04
0.09
0.00
0.09
0.01
0.16
0.00
0.16
0.02
0.16
0.02
0.16
0.03
0.09
0.03
0.04
0.00
0.01
0.01
0.00
0.00
0.02
0.01
0.02
0.09
0.03
0.04
0.03
0.04
0.00
0.16
0.01
0.30
0.09
0.09
0.00
0.35
0.35
0.04
0.30
0.01
0.09
0.03
0.04
0.10
0.02
0.15
0.03
0.10
0.03
0.07
0.15
0.18
0.78
0.17
0.80
0.83
0.94
0.82
0.77
0.81
0.09
0.19
0.22
0.17
0.22
0.19
0.19
0.26
0.17
0.37
0.18
0.30
0.17
0.37
0.18
0.37
0.19
0.47
0.21
0.30
0.26
0.26
0.30
0.18
0.30
0.19
0.21
0.22
0.18
0.19
0.22
0.03
0.10
0.00
0.03
0.00
0.00
0.00
0.00
0.00
0.00
0.02
0.04
0.03
0.09
0.07
0.16
0.07
0.04
0.03
0.00
0.02
0.01
0.03
0.00
0.02
0.03
0.00
0.07
0.00
0.10
0.01
0.10
0.00
0.10
0.00
0.10
0.00
0.03
0.00
0.01
0.00
0.00
0.01
0.30
0.00
0.20
0.00
0.50
0.01
0.16
0.02
0.01
0.00
0.00
0.03
0.15
0.03
0.17
0.03
0.17
0.00
0.19
0.22
0.78
0.22
0.77
0.78
0.86
0.80
0.77
0.79
0.16
0.22
0.19
0.18
0.22
0.21
0.22
0.26
0.19
0.26
0.19
0.26
0.17
0.21
0.19
0.21
0.21
0.19
0.30
0.18
0.37
0.19
0.37
0.17
0.30
0.19
0.21
0.19
0.19
0.19
0.17
0.15
0.00
0.03
0.04
0.03
0.16
0.02
0.16
0.02
0.16
0.00
0.09
0.02
0.04
0.01
0.04
0.01
0.01
0.04
0.02
0.04
0.03
0.09
0.07
0.04
0.10
0.04
0.07
0.00
0.03
0.01
0.00
0.00
0.00
0.02
0.00
0.03
0.09
0.03
0.20
0.00
0.35
0.04
0.20
0.00
0.50
0.16
0.30
0.00
0.04
0.01
0.00
0.01
0.10
0.01
0.15
0.00
0.17
0.01
0.15
0.15
0.47
0.17
0.44
0.77
0.86
0.83
0.76
0.83
0.57
0.10
0.10
0.19
0.15
0.17
0.19
0.21
0.22
0.19
0.22
0.21
0.19
0.19
0.17
0.17
0.18
0.19
0.21
0.19
0.21
0.19
0.21
0.22
0.21
0.19
0.17
0.22
0.19
0.17
0.15
0.07
0.00
0.01
0.20
0.01
0.30
0.01
0.35
0.01
0.30
0.04
0.35
0.00
0.30
0.09
0.16
0.04
0.04
0.30
0.00
0.20
0.00
0.20
0.01
0.30
0.02
0.20
0.01
0.16
0.00
0.04
0.04
0.01
0.04
0.00
0.16
0.00
0.20
0.01
0.35
0.00
0.50
0.20
0.35
0.16
0.50
0.35
0.30
0.20
0.04
0.20
0.00
0.16
0.07
0.04
0.10
0.00
0.07
0.00
0.03
0.03
0.18
0.21
0.30
0.81
0.91
0.85
0.80
0.82
0.72
0.07
0.03
0.19
0.15
0.22
0.19
0.22
0.19
0.22
0.18
0.22
0.18
0.22
0.19
0.22
0.21
0.22
0.26
0.19
0.21
0.19
0.19
0.18
0.17
0.17
0.19
0.17
0.19
0.19
0.10
0.19
0.01
0.07
0.16
0.02
0.20
0.00
0.20
0.02
0.09
0.01
0.00
0.04
0.01
0.16
0.00
0.16
0.02
0.16
0.03
0.16
0.02
0.16
0.03
0.04
0.03
0.04
0.02
0.01
0.00
0.00
0.04
0.07
0.04
0.07
0.04
0.07
0.09
0.00
0.20
0.00
0.35
0.04
0.16
0.16
0.30
0.30
0.00
0.16
0.02
0.00
0.03
0.00
0.15
0.01
0.15
0.03
0.10
0.07
0.07
0.22
0.30
0.37
0.57
0.83
0.86
0.82
0.76
0.83
0.64
0.15
0.19
0.17
0.19
0.19
0.19
0.19
0.26
0.19
0.30
0.19
0.30
0.19
0.37
0.17
0.30
0.17
0.26
0.21
0.19
0.21
0.18
0.30
0.17
0.19
0.22
0.19
0.15
0.22
0.02
0.03
0.16
0.44
0.57
0.50
0.44
0.30
0.16
0.20
0.01
0.00
0.03
0.01
0.07
0.00
0.10
0.01
0.15
0.01
0.15
0.01
0.10
0.00
0.19
0.37
0.19
0.75
0.77
0.82
0.80
0.78
0.80
0.01
0.03
0.19
0.19
0.21
0.22
0.19
0.19
0.19
0.17
0.18
0.19
0.17
0.21
0.19
0.30
0.19
0.30
0.19
0.26
0.19
0.26
0.19
0.19
0.19
0.19
0.22
0.17
0.19
0.00
0.07
0.09
0.02
0.30
0.01
0.20
0.00
0.09
0.00
0.04
0.04
0.01
0.16
0.01
0.16
0.02
0.16
0.02
0.16
0.00
0.16
0.01
0.00
0.00
0.00
0.04
0.02
0.16
0.02
0.16
0.02
0.16
0.00
0.09
0.01
0.04
0.00
0.00
0.04
0.00
0.16
0.02
0.16
0.00
0.20
0.00
0.16
0.02
0.20
0.00
0.16
0.00
0.16
0.01
0.09
0.00
0.04
0.00
0.01
0.04
0.01
0.16
0.00
0.35
0.09
0.44
0.04
0.61
0.30
0.57
0.16
0.20
0.04
0.01
0.01
0.02
0.04
0.07
0.00
0.10
0.01
0.10
0.00
0.17
0.19
0.47
0.01
0.82
0.83
0.86
0.76
0.78
0.68
0.16
0.19
0.10
0.17
0.17
0.19
0.22
0.18
0.19
0.17
0.19
0.19
0.19
0.19
0.18
0.19
0.18
0.22
0.19
0.22
0.19
0.19
0.17
0.17
0.22
0.17
0.19
0.22
0.07
0.22
0.02
0.10
0.04
0.07
0.20
0.01
0.20
0.00
0.20
0.01
0.16
0.00
0.04
0.04
0.04
0.04
0.00
0.16
0.00
0.16
0.03
0.16
0.03
0.04
0.03
0.09
0.07
0.00
0.03
0.00
0.02
0.02
0.00
0.02
0.01
0.03
0.00
0.03
0.00
0.10
0.04
0.07
0.00
0.03
0.00
0.00
0.04
0.04
0.04
0.04
0.09
0.30
0.01
0.16
0.03
0.04
0.10
0.00
0.15
0.07
0.15
0.15
0.07
0.19
0.03
0.17
0.19
0.78
0.21
0.20
0.75
0.86
0.88
0.77
0.81
0.44
0.15
0.19
0.19
0.19
0.30
0.19
0.30
0.17
0.30
0.17
0.30
0.19
0.26
0.21
0.19
0.37
0.19
0.47
0.19
0.55
0.18
0.47
0.17
0.37
0.19
0.21
0.19
0.18
0.22
0.22
0.17
0.07
0.07
0.00
0.02
0.04
0.02
0.16
0.00
0.16
0.02
0.16
0.02
0.16
0.02
0.16
0.01
0.04
0.00
0.00
0.01
0.00
0.01
0.01
0.04
0.02
0.04
0.02
0.04
0.03
0.00
0.07
0.09
0.07
0.09
0.07
0.04
0.07
0.00
0.00
0.04
0.00
0.16
0.20
0.04
0.16
0.01
0.57
0.04
0.30
0.01
0.09
0.02
0.00
0.00
0.02
0.07
0.15
0.03
0.15
0.01
0.17
0.10
0.47
0.30
0.00
0.78
0.95
0.98
0.82
0.77
0.68
0.10
0.19
0.19
0.22
0.21
0.19
0.30
0.19
0.30
0.19
0.26
0.21
0.19
0.30
0.18
0.37
0.17
0.55
0.18
0.47
0.18
0.47
0.18
0.26
0.17
0.19
0.19
0.19
0.17
0.19
0.22
0.02
0.15
0.04
0.03
0.09
0.02
0.04
0.00
0.04
0.00
0.04
0.04
0.00
0.04
0.01
0.09
0.01
0.16
0.02
0.09
0.02
0.09
0.03
0.09
0.02
0.09
0.07
0.00
0.02
0.00
0.02
0.02
0.01
0.03
0.01
0.07
0.00
0.07
0.04
0.07
0.00
0.03
0.00
0.01
0.04
0.16
0.04
0.04
0.04
0.44
0.01
0.20
0.02
0.04
0.07
0.04
0.10
0.00
0.17
0.02
0.17
0.03
0.07
0.15
0.19
0.75
0.22
0.80
0.82
0.86
0.81
0.78
0.80
0.00
0.15
0.19
0.22
0.17
0.17
0.18
0.19
0.17
0.30
0.19
0.30
0.19
0.37
0.19
0.26
0.17
0.30
0.19
0.19
0.21
0.19
0.37
0.19
0.26
0.19
0.21
0.22
0.18
0.19
0.22
0.07
0.03
0.07
0.00
0.02
0.04
0.02
0.04
0.02
0.16
0.03
0.09
0.03
0.09
0.03
0.09
0.03
0.09
0.03
0.01
0.02
0.00
0.00
0.02
0.00
0.07
0.00
0.10
0.00
0.10
0.01
0.15
0.00
0.10
0.01
0.15
0.01
0.07
0.02
0.00
0.01
0.04
0.01
0.16
0.00
0.16
0.00
0.44
0.00
0.20
0.02
0.04
0.03
0.01
0.07
0.07
0.07
0.15
0.03
0.17
0.03
0.19
0.15
0.47
0.30
0.03
0.82
0.82
0.83
0.76
0.81
0.68
0.10
0.17
0.18
0.22
0.19
0.22
0.30
0.19
0.26
0.17
0.26
0.19
0.21
0.26
0.21
0.37
0.17
0.37
0.18
0.47
0.18
0.37
0.19
0.26
0.18
0.19
0.18
0.17
0.19
0.22
0.22
0.07
0.10
0.01
0.10
0.09
0.07
0.09
0.07
0.09
0.03
0.04
0.02
0.04
0.02
0.00
0.02
0.00
0.01
0.01
0.01
0.00
0.01
0.02
0.00
0.07
0.04
0.10
0.00
0.07
0.00
0.07
0.00
0.07
0.01
0.02
0.00
0.00
0.02
0.04
0.02
0.16
0.09
0.35
0.00
0.44
0.09
0.44
0.04
0.09
0.01
0.01
0.01
0.03
0.00
0.15
0.02
0.17
0.00
0.15
0.00
0.19
0.18
0.47
0.20
0.82
0.83
0.83
0.77
0.81
0.50
0.04
0.19
0.17
0.17
0.19
0.18
0.22
0.18
0.17
0.18
0.19
0.19
0.21
0.19
0.30
0.19
0.30
0.19
0.30
0.19
0.26
0.17
0.21
0.17
0.18
0.18
0.19
0.19
0.17
0.19
0.03
0.17
0.00
0.07
0.09
0.01
0.09
0.00
0.04
0.04
0.04
0.04
0.00
0.16
0.01
0.09
0.00
0.16
0.00
0.16
0.00
0.16
0.00
0.09
0.02
0.04
0.00
0.00
0.01
0.04
0.04
0.01
0.04
0.01
0.00
0.00
0.00
0.01
0.16
0.00
0.30
0.09
0.50
0.00
0.44
0.20
0.44
0.16
0.16
0.16
0.00
0.09
0.03
0.04
0.07
0.02
0.07
0.02
0.07
0.03
0.07
0.22
0.30
0.19
0.80
0.76
0.94
0.77
0.76
0.79
0.20
0.22
0.15
0.19
0.22
0.22
0.19
0.22
0.18
0.22
0.19
0.22
0.21
0.19
0.19
0.19
0.18
0.19
0.18
0.17
0.17
0.19
0.19
0.18
0.22
0.18
0.19
0.17
0.15
0.22
0.02
0.07
0.04
0.00
0.09
0.04
0.09
0.16
0.04
0.20
0.00
0.20
0.00
0.30
0.01
0.20
0.00
0.30
0.04
0.16
0.04
0.09
0.04
0.04
0.09
0.04
0.16
0.01
0.16
0.01
0.16
0.01
0.16
0.00
0.20
0.00
0.20
0.01
0.20
0.04
0.16
0.20
0.30
0.44
0.09
0.50
0.30
0.57
0.09
0.44
0.01
0.20
0.00
0.04
0.00
0.02
0.02
0.00
0.00
0.03
0.04
0.17
0.19
0.55
0.16
0.82
0.83
0.83
0.77
0.80
0.68
0.02
0.17
0.15
0.22
0.17
0.17
0.19
0.18
0.22
0.18
0.19
0.18
0.19
0.18
0.19
0.18
0.17
0.17
0.17
0.19
0.19
0.19
0.19
0.22
0.19
0.19
0.17
0.17
0.19
0.07
0.10
0.01
0.00
0.04
0.04
0.04
0.16
0.00
0.20
0.01
0.20
0.01
0.30
0.00
0.20
0.01
0.16
0.00
0.16
0.01
0.09
0.00
0.00
0.00
0.00
0.00
0.02
0.04
0.02
0.09
0.03
0.09
0.02
0.09
0.02
0.09
0.02
0.09
0.00
0.04
0.09
0.04
0.35
0.16
0.44
0.04
0.50
0.16
0.30
0.04
0.09
0.01
0.00
0.04
0.07
0.01
0.10
0.01
0.15
0.01
0.10
0.02
0.17
0.26
0.19
0.77
0.76
0.83
0.81
0.77
0.82
0.04
0.03
0.17
0.19
0.18
0.22
0.19
0.19
0.19
0.19
0.18
0.18
0.18
0.18
0.17
0.21
0.17
0.26
0.19
0.26
0.19
0.21
0.19
0.26
0.22
0.19
0.19
0.19
0.19
0.19
0.15
0.03
0.07
0.00
0.00
0.09
0.00
0.20
0.00
0.16
0.00
0.09
0.01
0.09
0.01
0.09
0.00
0.00
0.04
0.01
0.09
0.02
0.09
0.00
0.16
0.03
0.09
0.03
0.09
0.03
0.04
0.01
0.01
0.01
0.00
0.00
0.02
0.00
0.03
0.16
0.00
0.16
0.00
0.35
0.16
0.16
0.20
0.50
0.35
0.09
0.20
0.00
0.09
0.00
0.04
0.07
0.01
0.07
0.00
0.07
0.00
0.03
0.17
0.17
0.26
0.57
0.80
0.91
0.82
0.77
0.82
0.61
0.15
0.10
0.22
0.17
0.19
0.22
0.22
0.22
0.22
0.17
0.22
0.18
0.22
0.19
0.22
0.19
0.22
0.19
0.22
0.19
0.19
0.17
0.19
0.19
0.19
0.22
0.19
0.17
0.22
0.03
0.10
0.09
0.00
0.20
0.00
0.30
0.00
0.20
0.04
0.20
0.09
0.09
0.20
0.04
0.30
0.00
0.30
0.01
0.30
0.01
0.20
0.00
0.16
0.04
0.04
0.16
0.01
0.16
0.01
0.20
0.01
0.16
0.01
0.35
0.01
0.16
0.01
0.09
0.04
0.20
0.16
0.35
0.44
0.35
0.44
0.20
0.64
0.20
0.50
0.09
0.35
0.01
0.20
0.01
0.01
0.00
0.02
0.00
0.03
0.00
0.03
0.02
0.21
0.18
0.20
0.77
0.88
0.94
0.80
0.81
0.64
0.02
0.17
0.19
0.17
0.19
0.19
0.18
0.22
0.21
0.22
0.19
0.22
0.21
0.19
0.21
0.17
0.21
0.18
0.18
0.19
0.17
0.19
0.19
0.21
0.19
0.19
0.22
0.18
0.17
0.22
0.07
0.10
0.00
0.02
0.04
0.01
0.00
0.00
0.01
0.09
0.00
0.09
0.00
0.16
0.00
0.16
0.02
0.09
0.00
0.04
0.00
0.00
0.00
0.01
0.00
0.00
0.00
0.02
0.09
0.02
0.04
0.03
0.09
0.03
0.00
0.02
0.00
0.00
0.01
0.01
0.00
0.09
0.00
0.35
0.16
0.20
0.04
0.57
0.04
0.35
0.00
0.04
0.00
0.00
0.01
0.07
0.01
0.17
0.02
0.17
0.00
0.10
0.15
0.26
0.37
0.09
0.80
0.95
0.94
0.83
0.81
0.67
0.17
0.19
0.21
0.19
0.21
0.17
0.26
0.19
0.21
0.26
0.21
0.37
0.19
0.37
0.19
0.47
0.19
0.55
0.19
0.47
