0.00
0.00
0.00
0.00
0.00
0.00
0.00
0.00
0.00
0.07
0.06
0.15
0.38
0.68
0.73
0.68
0.68
0.76
0.65
0.46
0.07
0.15
0.32
0.31
0.31
0.31
0.31
0.31
0.31
0.36
0.32
0.32
0.17
0.17
0.09
0.09
0.09
0.06
0.06
0.06
0.06
0.06
0.06
0.09
0.09
0.09
0.09
0.09
0.17
0.17
0.17
0.17
0.17
0.09
0.09
0.09
0.09
0.06
0.06
0.06
0.15
0.06
0.06
0.09
0.09
0.07
0.07
0.07
0.07
0.00
0.00
0.00
0.00
0.00
0.00
0.00
0.00
0.00
0.00
0.00
0.00
0.19
0.19
0.31
0.31
0.31
0.31
0.38
0.41
0.41
0.41
0.41
0.41
0.41
0.38
0.38
0.38
0.38
0.38
0.38
0.38
0.38
0.38
0.38
0.12
0.19
0.64
0.74
0.69
0.87
0.87
0.71
0.73
0.66
0.41
0.00
0.07
0.09
0.09
0.09
0.09
0.09
0.09
0.07
0.07
0.07
0.07
0.07
0.07
0.07
0.00
0.00
0.00
0.00
0.00
0.12
0.12
0.12
0.12
0.00
0.00
0.00
0.00
0.00
0.00
0.00
0.00
0.00
0.00
0.00
0.12
0.12
0.12
0.12
0.12
0.12
0.12
0.12
0.12
0.00
0.00
0.00
0.00
0.12
0.12
0.12
0.00
0.00
0.00
0.00
0.00
0.00
0.00
0.00
0.12
0.19
0.19
0.19
0.19
0.00
0.00
0.12
0.12
0.12
0.12
0.12
0.12
0.12
0.12
0.12
0.12
0.00
0.00
0.00
0.00
0.00
0.07
0.14
0.00
0.66
0.75
0.68
0.77
0.68
0.75
0.67
0.31
0.06
0.06
0.36
0.31
0.31
0.31
0.31
0.31
0.31
0.31
0.31
0.31
0.36
0.17
0.17
0.17
0.17
0.17
0.09
0.09
0.09
0.09
0.09
0.09
0.09
0.09
0.09
0.09
0.09
0.17
0.09
0.09
0.09
0.09
0.06
0.06
0.06
0.15
0.15
0.06
0.06
0.06
0.06
0.06
0.06
0.15
0.15
0.14
0.14
0.14
0.06
0.06
0.06
0.06
0.06
0.14
0.15
0.15
0.06
0.09
0.07
0.07
0.07
0.07
0.07
0.07
0.07
0.07
0.07
0.07
0.07
0.07
0.00
0.00
0.07
0.00
0.00
0.07
0.07
0.07
0.07
0.07
0.06
0.17
0.07
0.64
0.74
0.69
0.71
0.69
0.74
0.66
0.00
0.14
0.17
0.36
0.31
0.46
0.31
0.31
0.31
0.31
0.31
0.31
0.31
0.32
0.17
0.17
0.17
0.09
0.09
0.17
0.09
0.09
0.09
0.09
0.09
0.09
0.09
0.09
0.17
0.17
0.17
0.17
0.09
0.09
0.09
0.09
0.09
0.06
0.15
0.15
0.06
0.06
0.06
0.06
0.06
0.06
0.06
0.06
0.06
0.15
0.14
0.14
0.14
0.06
0.06
0.06
0.14
0.14
0.15
0.15
0.06
0.09
0.07
0.07
0.07
0.07
0.07
0.07
0.00
0.00
0.00
0.07
0.00
0.00
0.00
0.00
0.00
0.00
0.00
0.00
0.07
0.07
0.07
0.07
0.14
0.32
0.00
0.66
0.76
0.69
0.69
0.70
0.73
0.63
0.12
0.14
0.17
0.36
0.31
0.46
0.46
0.31
0.31
0.31
0.32
0.32
0.17
0.17
0.17
0.17
0.09
0.09
0.06
0.06
0.06
0.06
0.06
0.09
0.06
0.06
0.09
0.09
0.09
0.09
0.17
0.09
0.09
0.09
0.09
0.09
0.09
0.06
0.06
0.06
0.06
0.06
0.15
0.14
0.06
0.09
0.09
0.09
0.09
0.09
0.09
0.09
0.09
0.07
0.07
0.09
0.09
0.09
0.09
0.09
0.07
0.00
0.00
0.00
0.00
0.00
0.00
0.00
0.12
0.12
0.12
0.00
0.00
0.00
0.12
0.12
0.12
0.12
0.00
0.00
0.12
0.12
0.00
0.00
0.14
0.07
0.64
0.74
0.71
0.73
0.69
0.76
0.65
0.41
0.09
0.15
0.17
0.36
0.36
0.32
0.32
0.17
0.17
0.17
0.17
0.09
0.09
0.06
0.06
0.15
0.15
0.15
0.15
0.14
0.14
0.14
0.14
0.15
0.15
0.15
0.06
0.06
0.06
0.06
0.06
0.06
0.15
0.14
0.09
0.09
0.09
0.09
0.09
0.09
0.09
0.07
0.07
0.07
0.07
0.07
0.07
0.07
0.07
0.07
0.07
0.07
0.00
0.00
0.07
0.07
0.07
0.07
0.00
0.00
0.00
0.12
0.12
0.12
0.00
0.00
0.12
0.12
0.12
0.12
0.12
0.12
0.12
0.19
0.12
0.12
0.12
0.12
0.12
0.12
0.12
0.00
0.00
0.14
0.00
0.65
0.74
0.69
0.73
0.69
0.75
0.66
0.41
0.07
0.15
0.17
0.17
0.17
0.17
0.17
0.17
0.17
0.17
0.09
0.09
0.06
0.06
0.06
0.06
0.06
0.06
0.15
0.06
0.06
0.14
0.15
0.06
0.06
0.06
0.06
0.06
0.09
0.09
0.09
0.09
0.09
0.09
0.09
0.15
0.14
0.06
0.06
0.06
0.06
0.06
0.06
0.06
0.06
0.06
0.09
0.09
0.09
0.09
0.09
0.09
0.09
0.09
0.09
0.09
0.09
0.09
0.07
0.07
0.00
0.00
0.00
0.00
0.00
0.00
0.00
0.00
0.00
0.00
0.00
0.00
0.12
0.12
0.12
0.12
0.12
0.12
0.00
0.00
0.12
0.00
0.07
0.06
0.00
0.63
0.74
0.71
0.71
0.69
0.75
0.66
0.38
0.09
0.06
0.17
0.31
0.31
0.36
0.17
0.17
0.17
0.17
0.17
0.09
0.09
0.09
0.06
0.06
0.15
0.15
0.15
0.14
0.06
0.06
0.14
0.06
0.14
0.15
0.15
0.14
0.06
0.06
0.06
0.06
0.06
0.06
0.06
0.09
0.09
0.09
0.09
0.09
0.09
0.09
0.07
0.07
0.07
0.07
0.00
0.00
0.07
0.00
0.00
0.00
0.00
0.00
0.00
0.07
0.07
0.00
0.00
0.00
0.12
0.19
0.19
0.19
0.19
0.19
0.19
0.19
0.19
0.19
0.19
0.19
0.19
0.19
0.19
0.19
0.19
0.19
0.19
0.19
0.19
0.12
0.07
0.09
0.51
0.71
0.70
0.73
0.73
0.73
0.68
0.51
0.00
0.06
0.09
0.09
0.17
0.17
0.17
0.17
0.09
0.09
0.09
0.09
0.06
0.06
0.15
0.14
0.14
0.14
0.14
0.06
0.06
0.06
0.06
0.06
0.14
0.15
0.15
0.06
0.06
0.06
0.06
0.06
0.06
0.06
0.06
0.06
0.06
0.15
0.14
0.06
0.14
0.14
0.06
0.09
0.09
0.09
0.09
0.09
0.09
0.09
0.09
0.09
0.09
0.09
0.09
0.09
0.09
0.09
0.07
0.00
0.00
0.00
0.00
0.00
0.00
0.00
0.00
0.00
0.00
0.00
0.00
0.12
0.12
0.12
0.00
0.00
0.12
0.12
0.12
0.12
0.00
0.00
0.00
0.06
0.12
0.67
0.76
0.68
0.73
0.71
0.74
0.65
0.12
0.06
0.09
0.32
0.36
0.36
0.31
0.17
0.17
0.17
0.17
0.09
0.09
0.09
0.06
0.06
0.06
0.06
0.14
0.06
0.06
0.06
0.06
0.06
0.06
0.14
0.14
0.15
0.15
0.06
0.06
0.06
0.15
0.06
0.06
0.06
0.09
0.09
0.09
0.07
0.07
0.00
0.00
0.07
0.07
0.00
0.00
0.00
0.00
0.00
0.00
0.00
0.00
0.00
0.00
0.07
0.07
0.07
0.00
0.00
0.00
0.12
0.12
0.19
0.19
0.19
0.19
0.19
0.19
0.12
0.12
0.12
0.12
0.12
0.00
0.00
0.12
0.12
0.12
0.12
0.00
0.00
0.00
0.15
0.00
0.65
0.76
0.68
0.77
0.71
0.74
0.66
0.38
0.07
0.15
0.17
0.36
0.36
0.32
0.32
0.17
0.17
0.17
0.17
0.09
0.09
0.06
0.06
0.06
0.14
0.06
0.06
0.09
0.09
0.07
0.00
0.00
0.00
0.00
0.00
0.00
0.00
0.00
0.00
0.00
0.00
0.00
0.00
0.00
0.00
0.12
0.12
0.12
0.12
0.12
0.12
0.12
0.19
0.19
0.19
0.19
0.19
0.31
0.31
0.31
0.31
0.31
0.19
0.19
0.19
0.31
0.38
0.38
0.38
0.38
0.38
0.38
0.38
0.38
0.38
0.38
0.38
0.46
0.46
0.46
0.38
0.38
0.38
0.46
0.46
0.46
0.38
0.38
0.38
0.41
0.12
0.38
0.65
0.73
0.80
0.90
0.80
0.73
0.68
0.58
0.19
0.07
0.09
0.06
0.14
0.14
0.14
0.06
0.06
0.06
0.06
0.06
0.06
0.06
0.09
0.09
0.09
0.09
0.07
0.07
0.07
0.07
0.07
0.09
0.09
0.09
0.09
0.09
0.09
0.06
0.06
0.06
0.06
0.06
0.06
0.06
0.06
0.06
0.06
0.09
0.09
0.06
0.06
0.06
0.06
0.06
0.06
0.09
0.09
0.09
0.09
0.09
0.09
0.06
0.14
0.14
0.06
0.06
0.09
0.00
0.00
0.07
0.07
0.07
0.00
0.00
0.00
0.00
0.00
0.00
0.00
0.00
0.00
0.00
0.00
0.00
0.00
0.00
0.00
0.00
0.00
0.07
0.06
0.15
0.46
0.71
0.70
0.71
0.69
0.73
0.66
0.46
0.09
0.06
0.32
0.31
0.46
0.46
0.46
0.46
0.31
0.31
0.31
0.31
0.31
0.36
0.17
0.17
0.17
0.17
0.17
0.17
0.17
0.09
0.09
0.09
0.17
0.17
0.17
0.17
0.17
0.17
0.09
0.09
0.17
0.09
0.09
0.09
0.09
0.09
0.09
0.06
0.06
0.06
0.06
0.06
0.06
0.06
0.15
0.15
0.15
0.14
0.14
0.06
0.06
0.06
0.06
0.06
0.15
0.15
0.15
0.06
0.06
0.09
0.07
0.07
0.07
0.07
0.07
0.07
0.00
0.00
0.07
0.07
0.00
0.00
0.00
0.00
0.00
0.00
0.00
0.00
0.00
0.00
0.00
0.06
0.06
0.07
0.65
0.75
0.69
0.69
0.70
0.73
0.65
0.12
0.06
0.17
0.31
0.46
0.46
0.46
0.31
0.31
0.31
0.31
0.31
0.36
0.36
0.17
0.17
0.17
0.09
0.09
0.06
0.06
0.06
0.06
0.06
0.06
0.06
0.06
0.06
0.09
0.09
0.09
0.09
0.09
0.09
0.06
0.06
0.06
0.15
0.15
0.14
0.14
0.06
0.06
0.06
0.06
0.06
0.06
0.06
0.06
0.09
0.09
0.09
0.09
0.09
0.09
0.09
0.06
0.06
0.06
0.06
0.09
0.00
0.00
0.00
0.00
0.00
0.00
0.00
0.00
0.00
0.00
0.00
0.00
0.00
0.00
0.00
0.00
0.00
0.00
0.00
0.00
0.00
0.00
0.07
0.15
0.09
0.61
0.73
0.69
0.73
0.68
0.76
0.65
0.38
0.09
0.15
0.17
0.36
0.32
0.32
0.32
0.32
0.17
0.17
0.17
0.17
0.09
0.09
0.06
0.06
0.06
0.06
0.14
0.14
0.15
0.15
0.15
0.15
0.15
0.06
0.06
0.06
0.06
0.06
0.06
0.06
0.06
0.06
0.06
0.15
0.14
0.06
0.06
0.06
0.14
0.06
0.06
0.06
0.06
0.06
0.06
0.06
0.09
0.09
0.09
0.09
0.09
0.00
0.00
0.07
0.07
0.07
0.07
0.00
0.00
0.00
0.12
0.12
0.12
0.12
0.12
0.12
0.00
0.00
0.00
0.00
0.12
0.12
0.00
0.00
0.00
0.00
0.00
0.00
0.00
0.00
0.07
0.06
0.06
0.51
0.69
0.71
0.71
0.71
0.76
0.65
0.38
0.00
0.14
0.06
0.09
0.09
0.09
0.09
0.09
0.06
0.06
0.15
0.14
0.06
0.06
0.09
0.09
0.07
0.07
0.00
0.00
0.00
0.00
0.00
0.00
0.12
0.00
0.00
0.00
0.00
0.00
0.00
0.00
0.00
0.00
0.00
0.12
0.12
0.12
0.12
0.12
0.12
0.19
0.19
0.19
0.19
0.19
0.19
0.19
0.19
0.19
0.19
0.31
0.31
0.38
0.31
0.19
0.19
0.31
0.31
0.31
0.41
0.38
0.38
0.38
0.38
0.38
0.38
0.38
0.38
0.38
0.38
0.38
0.38
0.38
0.38
0.38
0.38
0.38
0.38
0.38
0.38
0.38
0.38
0.00
0.00
0.63
0.73
0.68
0.87
0.86
0.70
0.73
0.63
0.19
0.07
0.06
0.06
0.09
0.09
0.09
0.09
0.09
0.06
0.06
0.09
0.09
0.09
0.09
0.09
0.06
0.06
0.06
0.06
0.06
0.06
0.06
0.06
0.06
0.06
0.06
0.06
0.06
0.06
0.09
0.09
0.09
0.09
0.09
0.09
0.06
0.06
0.06
0.06
0.06
0.06
0.06
0.06
0.06
0.15
0.15
0.06
0.06
0.14
0.06
0.06
0.06
0.06
0.06
0.14
0.14
0.14
0.14
0.09
0.07
0.00
0.00
0.07
0.07
0.07
0.07
0.07
0.00
0.00
0.07
0.07
0.00
0.00
0.00
0.00
0.00
0.00
0.00
0.00
0.00
0.00
0.00
0.14
0.06
0.19
0.65
0.74
0.68
0.71
0.71
0.72
0.63
0.12
0.14
0.17
0.36
0.31
0.31
0.31
0.31
0.31
0.36
0.32
0.32
0.17
0.17
0.17
0.09
0.09
0.09
0.06
0.06
0.06
0.06
0.06
0.06
0.06
0.06
0.06
0.06
0.09
0.09
0.09
0.06
0.06
0.09
0.06
0.06
0.06
0.06
0.06
0.06
0.15
0.14
0.06
0.06
0.06
0.06
0.15
0.14
0.14
0.14
0.06
0.06
0.06
0.06
0.06
0.06
0.06
0.14
0.14
0.06
0.07
0.07
0.07
0.07
0.07
0.07
0.07
0.00
0.00
0.07
0.07
0.07
0.07
0.00
0.00
0.00
0.00
0.00
0.07
0.07
0.07
0.00
0.07
0.15
0.09
0.12
0.65
0.76
0.68
0.69
0.73
0.69
0.58
0.00
0.15
0.32
0.31
0.46
0.46
0.46
0.46
0.46
0.31
0.31
0.31
0.36
0.36
0.32
0.17
0.17
0.17
0.09
0.09
0.09
0.09
0.09
0.09
0.09
0.09
0.09
0.09
0.09
0.09
0.17
0.09
0.09
0.09
0.09
0.09
0.09
0.09
0.06
0.06
0.06
0.09
0.06
0.06
0.06
0.06
0.15
0.15
0.14
0.09
0.07
0.07
0.07
0.00
0.00
0.00
0.00
0.00
0.00
0.00
0.00
0.12
0.19
0.31
0.19
0.19
0.19
0.19
0.31
0.31
0.31
0.38
0.38
0.41
0.41
0.38
0.38
0.38
0.41
0.41
0.38
0.38
0.38
0.38
0.12
0.19
0.63
0.73
0.69
0.87
0.89
0.69
0.74
0.66
0.41
0.00
0.00
0.07
0.09
0.07
0.07
0.07
0.07
0.09
0.07
0.00
0.00
0.00
0.00
0.00
0.00
0.00
0.00
0.12
0.12
0.12
0.12
0.19
0.19
0.19
0.12
0.12
0.00
0.00
0.12
0.12
0.12
0.12
0.12
0.12
0.12
0.12
0.12
0.12
0.12
0.12
0.19
0.19
0.19
0.19
0.19
0.19
0.19
0.19
0.19
0.19
0.19
0.12
0.12
0.12
0.00
0.00
0.12
0.19
0.31
0.31
0.31
0.31
0.19
0.19
0.19
0.19
0.19
0.19
0.31
0.31
0.19
0.19
0.19
0.19
0.19
0.19
0.19
0.19
0.12
0.00
0.06
0.07
0.61
0.74
0.68
0.80
0.77
0.73
0.65
0.41
0.07
0.06
0.17
0.36
0.31
0.31
0.31
0.31
0.31
0.31
0.31
0.31
0.36
0.36
0.36
0.32
0.32
0.32
0.17
0.17
0.17
0.17
0.17
0.17
0.17
0.17
0.17
0.17
0.17
0.17
0.17
0.17
0.17
0.17
0.17
0.09
0.09
0.09
0.09
0.09
0.09
0.09
0.09
0.09
0.09
0.09
0.09
0.06
0.06
0.09
0.15
0.15
0.06
0.06
0.06
0.09
0.09
0.06
0.06
0.14
0.06
0.09
0.09
0.09
0.09
0.06
0.09
0.09
0.09
0.09
0.09
0.09
0.09
0.09
0.09
0.09
0.09
0.09
0.06
0.09
0.09
0.06
0.06
0.31
0.09
0.65
0.76
0.71
0.69
0.73
0.72
0.58
0.07
0.09
0.31
0.46
0.58
0.58
0.58
0.58
0.58
0.58
0.58
0.46
0.31
0.31
0.31
0.31
0.31
0.31
0.36
0.17
0.17
0.17
0.17
0.17
0.17
0.17
0.17
0.17
0.17
0.17
0.32
0.32
0.17
0.17
0.17
0.17
0.17
0.09
0.09
0.09
0.06
0.06
0.06
0.06
0.06
0.06
0.06
0.06
0.15
0.15
0.06
0.15
0.14
0.06
0.06
0.06
0.06
0.14
0.15
0.06
0.09
0.07
0.07
0.00
0.00
0.00
0.00
0.00
0.00
0.00
0.00
0.00
0.00
0.00
0.00
0.00
0.00
0.00
0.00
0.00
0.00
0.00
0.00
0.00
0.09
0.06
0.07
0.64
0.74
0.70
0.68
0.70
0.74
0.66
0.31
0.06
0.09
0.32
0.31
0.31
0.31
0.31
0.36
0.32
0.32
0.17
0.17
0.09
0.09
0.09
0.06
0.06
0.06
0.15
0.15
0.15
0.14
0.14
0.14
0.14
0.15
0.06
0.06
0.06
0.14
0.06
0.06
0.06
0.06
0.06
0.06
0.09
0.09
0.09
0.09
0.09
0.09
0.09
0.09
0.09
0.09
0.09
0.09
0.09
0.07
0.07
0.07
0.07
0.07
0.09
0.09
0.09
0.09
0.07
0.00
0.00
0.12
0.12
0.12
0.00
0.00
0.00
0.00
0.00
0.12
0.12
0.12
0.12
0.12
0.12
0.12
0.12
0.12
0.12
0.12
0.12
0.00
0.07
0.06
0.38
0.63
0.76
0.68
0.73
0.70
0.73
0.65
0.19
0.09
0.06
0.17
0.32
0.17
0.17
0.17
0.17
0.17
0.09
0.09
0.09
0.09
0.06
0.06
0.06
0.06
0.15
0.15
0.14
0.15
0.06
0.14
0.15
0.06
0.06
0.06
0.06
0.06
0.15
0.06
0.06
0.06
0.06
0.06
0.09
0.09
0.09
0.09
0.09
0.09
0.09
0.09
0.09
0.07
0.07
0.07
0.07
0.07
0.07
0.07
0.00
0.00
0.00
0.00
0.07
0.07
0.07
0.07
0.07
0.00
0.00
0.12
0.12
0.12
0.12
0.00
0.00
0.12
0.12
0.12
0.00
0.00
0.00
0.00
0.00
0.00
0.00
0.00
0.00
0.00
0.12
0.00
0.07
0.09
0.38
0.68
0.73
0.71
0.77
0.71
0.73
0.65
0.31
0.00
0.06
0.06
0.06
0.06
0.06
0.15
0.06
0.06
0.06
0.06
0.09
0.09
0.09
0.07
0.07
0.07
0.00
0.00
0.00
0.00
0.12
0.12
0.12
0.12
0.12
0.12
0.12
0.12
0.12
0.12
0.12
0.12
0.12
0.12
0.12
0.19
0.12
0.00
0.00
0.00
0.06
0.09
0.31
0.46
0.69
0.85
0.93
0.96
0.96
0.97
0.99
0.99
0.93
0.36
0.46
0.63
0.68
0.70
0.69
0.69
0.69
0.69
0.70
0.70
0.70
0.70
0.68
0.68
0.68
0.68
0.65
0.64
0.64
0.63
0.65
0.65
0.66
0.65
0.66
0.66
0.65
0.63
0.61
0.54
0.46
0.38
0.38
0.31
0.19
0.12
0.12
0.00
0.00
0.00
0.00
0.00
0.00
0.00
0.00
0.07
0.07
0.00
0.00
0.07
0.07
0.07
0.07
0.07
0.07
0.07
0.07
0.07
0.07
0.07
0.07
0.07
0.07
0.07
0.07
0.07
0.07
0.09
0.09
0.07
0.07
0.07
0.09
0.09
0.07
0.07
0.07
0.07
0.07
0.07
0.07
0.07
0.07
0.07
0.07
0.09
0.09
0.07
0.07
0.07
0.09
0.06
0.06
0.14
0.06
0.09
0.09
0.07
0.07
0.07
0.07
0.09
0.09
0.09
0.09
0.09
0.09
0.09
0.09
0.07
0.07
0.09
0.09
0.09
0.09
0.09
0.09
0.14
0.32
0.06
0.38
0.72
0.71
0.69
0.69
0.75
0.65
0.19
0.15
0.36
0.31
0.58
0.58
0.58
0.58
0.58
0.58
0.46
0.46
0.46
0.46
0.31
0.36
0.36
0.31
0.31
0.36
0.36
0.32
0.17
0.32
0.36
0.36
0.31
0.46
0.46
0.46
0.46
0.46
0.58
0.46
0.46
0.46
0.46
0.31
0.31
0.31
0.32
0.32
0.17
0.09
0.09
0.09
0.09
0.09
0.09
0.06
0.06
0.06
0.06
0.06
0.06
0.14
0.14
0.14
0.14
0.14
0.14
0.14
0.06
0.09
0.07
0.00
0.00
0.00
0.00
0.00
0.00
0.00
0.00
0.00
0.00
0.00
0.00
0.00
0.00
0.00
0.00
0.00
0.00
0.00
0.00
0.00
0.00
0.06
0.14
0.38
0.68
0.73
0.68
0.68
0.76
0.65
0.38
0.07
0.15
0.17
0.36
0.36
0.36
0.32
0.17
0.17
0.17
0.17
0.17
0.09
0.09
0.06
0.06
0.06
0.06
0.15
0.14
0.14
0.14
0.14
0.06
0.06
0.14
0.15
0.15
0.15
0.06
0.06
0.06
0.06
0.15
0.15
0.14
0.06
0.06
0.06
0.07
0.07
0.07
0.07
0.07
0.07
0.07
0.07
0.07
0.07
0.07
0.00
0.00
0.00
0.00
0.00
0.07
0.07
0.07
0.00
0.00
0.00
0.12
0.12
0.12
0.12
0.12
0.12
0.19
0.12
0.12
0.12
0.12
0.12
0.19
0.19
0.19
0.12
0.12
0.00
0.00
0.00
0.00
0.00
0.14
0.07
0.61
0.73
0.71
0.73
0.68
0.76
0.65
0.38
0.07
0.14
0.09
0.17
0.17
0.17
0.17
0.17
0.17
0.17
0.09
0.09
0.06
0.06
0.06
0.06
0.15
0.15
0.06
0.15
0.15
0.15
0.15
0.15
0.15
0.15
0.06
0.06
0.06
0.06
0.06
0.06
0.06
0.06
0.06
0.06
0.14
0.14
0.06
0.06
0.06
0.09
0.09
0.09
0.09
0.07
0.07
0.07
0.07
0.07
0.00
0.00
0.00
0.00
0.00
0.00
0.07
0.00
0.00
0.00
0.00
0.00
0.12
0.12
0.12
0.12
0.12
0.12
0.12
0.12
0.19
0.19
0.12
0.12
0.00
0.00
0.00
0.00
0.00
0.00
0.00
0.00
0.00
0.06
0.06
0.00
0.66
0.75
0.68
0.73
0.71
0.74
0.65
0.38
0.07
0.14
0.09
0.09
0.09
0.09
0.06
0.06
0.15
0.14
0.06
0.06
0.06
0.06
0.09
0.07
0.07
0.00
0.00
0.00
0.00
0.00
0.00
0.00
0.00
0.00
0.00
0.00
0.00
0.00
0.00
0.00
0.00
0.00
0.12
0.12
0.12
0.12
0.19
0.19
0.19
0.19
0.31
0.19
0.19
0.31
0.31
0.31
0.31
0.31
0.31
0.38
0.38
0.31
0.31
0.31
0.31
0.31
0.38
0.41
0.38
0.38
0.38
0.38
0.38
0.38
0.38
0.38
0.38
0.38
0.38
0.46
0.46
0.46
0.46
0.46
0.46
0.38
0.46
0.46
0.46
0.38
0.41
0.19
0.46
0.65
0.73
0.87
0.90
0.89
0.71
0.70
0.58
0.19
0.00
0.06
0.06
0.06
0.06
0.06
0.06
0.06
0.14
0.06
0.06
0.14
0.06
0.06
0.06
0.06
0.09
0.09
0.09
0.09
0.09
0.09
0.09
0.06
0.06
0.06
0.06
0.15
0.06
0.06
0.06
0.06
0.06
0.06
0.06
0.06
0.15
0.15
0.06
0.15
0.15
0.14
0.14
0.14
0.15
0.15
0.14
0.14
0.14
0.06
0.06
0.06
0.06
0.06
0.15
0.06
0.06
0.15
0.06
0.06
0.09
0.09
0.07
0.07
0.07
0.09
0.07
0.07
0.07
0.07
0.07
0.07
0.07
0.07
0.00
0.00
0.07
0.07
0.07
0.07
0.07
0.07
0.14
0.17
0.12
0.67
0.74
0.68
0.71
0.70
0.73
0.58
0.00
0.06
0.17
0.36
0.31
0.46
0.46
0.46
0.31
0.31
0.31
0.36
0.36
0.32
0.17
0.17
0.17
0.09
0.09
0.09
0.09
0.09
0.09
0.09
0.09
0.09
0.09
0.09
0.17
0.09
0.09
0.09
0.09
0.09
0.09
0.06
0.06
0.15
0.15
0.15
0.06
0.06
0.06
0.15
0.15
0.15
0.15
0.14
0.14
0.06
0.06
0.14
0.06
0.06
0.06
0.14
0.14
0.14
0.15
0.15
0.14
0.09
0.07
0.00
0.00
0.00
0.07
0.07
0.07
0.00
0.00
0.07
0.00
0.00
0.07
0.00
0.00
0.00
0.07
0.07
0.07
0.07
0.00
0.00
0.06
0.17
0.00
0.66
0.76
0.69
0.71
0.71
0.74
0.65
0.19
0.14
0.09
0.36
0.46
0.46
0.46
0.46
0.46
0.31
0.31
0.31
0.31
0.36
0.32
0.17
0.17
0.17
0.09
0.09
0.09
0.09
0.09
0.09
0.09
0.09
0.17
0.17
0.17
0.17
0.17
0.17
0.09
0.09
0.09
0.09
0.09
0.06
0.06
0.06
0.06
0.06
0.06
0.06
0.14
0.15
0.15
0.15
0.15
0.15
0.06
0.06
0.06
0.06
0.06
0.06
0.09
0.06
0.14
0.15
0.06
0.09
0.07
0.00
0.00
0.07
0.07
0.07
0.00
0.00
0.00
0.00
0.00
0.00
0.00
0.00
0.00
0.00
0.00
0.00
0.00
0.00
0.00
0.00
0.07
0.06
0.15
0.41
0.66
0.73
0.68
0.69
0.76
0.66
0.46
0.09
0.06
0.32
0.31
0.46
0.46
0.46
0.31
0.31
0.31
0.31
0.36
0.36
0.32
0.17
0.09
0.09
0.06
0.06
0.06
0.06
0.09
0.09
0.06
0.06
0.09
0.09
0.09
0.09
0.06
0.06
0.06
0.06
0.06
0.14
0.14
0.06
0.06
0.06
0.06
0.06
0.06
0.06
0.09
0.09
0.06
0.09
0.09
0.09
0.09
0.09
0.09
0.09
0.07
0.07
0.09
0.09
0.09
0.06
0.09
0.00
0.00
0.00
0.00
0.00
0.00
0.00
0.00
0.00
0.12
0.12
0.00
0.00
0.00
0.12
0.12
0.12
0.12
0.12
0.12
0.12
0.12
0.00
0.00
0.06
0.07
0.61
0.74
0.70
0.71
0.68
0.76
0.64
0.38
0.07
0.15
0.17
0.32
0.36
0.36
0.32
0.17
0.17
0.17
0.09
0.09
0.09
0.09
0.06
0.06
0.14
0.14
0.06
0.06
0.06
0.06
0.06
0.09
0.09
0.09
0.09
0.09
0.06
0.06
0.06
0.06
0.06
0.06
0.06
0.09
0.09
0.09
0.07
0.07
0.07
0.07
0.00
0.00
0.07
0.07
0.00
0.00
0.00
0.00
0.00
0.00
0.00
0.00
0.00
0.00
0.00
0.00
0.07
0.00
0.00
0.00
0.12
0.19
0.19
0.19
0.19
0.19
0.19
0.19
0.12
0.12
0.19
0.19
0.19
0.19
0.19
0.19
0.19
0.19
0.19
0.12
0.00
0.07
0.06
0.00
0.65
0.74
0.69
0.69
0.69
0.75
0.67
0.31
0.09
0.06
0.17
0.17
0.32
0.17
0.17
0.17
0.17
0.09
0.06
0.06
0.06
0.14
0.06
0.06
0.09
0.07
0.07
0.07
0.00
0.00
0.00
0.00
0.00
0.00
0.00
0.00
0.00
0.00
0.00
0.00
0.00
0.00
0.00
0.12
0.12
0.12
0.12
0.12
0.19
0.19
0.19
0.19
0.19
0.19
0.19
0.19
0.31
0.31
0.31
0.31
0.31
0.38
0.31
0.31
0.19
0.19
0.31
0.38
0.38
0.38
0.38
0.38
0.38
0.38
0.38
0.38
0.38
0.38
0.38
0.38
0.38
0.38
0.41
0.41
0.41
0.38
0.38
0.38
0.31
0.19
0.12
0.00
0.12
0.65
0.75
0.71
0.86
0.80
0.73
0.68
0.46
0.00
0.09
0.15
0.06
0.09
0.09
0.09
0.09
0.09
0.09
0.09
0.06
0.06
0.06
0.06
0.06
0.15
0.15
0.14
0.14
0.14
0.14
0.14
0.14
0.14
0.15
0.15
0.06
0.06
0.06
0.06
0.06
0.06
0.06
0.06
0.06
0.15
0.14
0.14
0.14
0.06
0.06
0.14
0.14
0.06
0.06
0.06
0.06
0.06
0.06
0.06
0.06
0.06
0.09
0.09
0.06
0.06
0.06
0.06
0.09
0.07
0.00
0.00
0.07
0.07
0.07
0.00
0.00
0.00
0.00
0.00
0.00
0.00
0.00
0.07
0.07
0.07
0.07
0.07
0.07
0.07
0.07
0.09
0.17
0.06
0.61
0.74
0.69
0.71
0.69
0.75
0.67
0.31
0.14
0.17
0.36
0.46
0.46
0.46
0.31
0.31
0.46
0.31
0.36
0.36
0.36
0.36
0.32
0.17
0.17
0.17
0.09
0.09
0.09
0.09
0.09
0.09
0.09
0.09
0.17
0.17
0.17
0.17
0.17
0.17
0.17
0.09
0.09
0.09
0.09
0.06
0.06
0.06
0.06
0.06
0.15
0.15
0.15
0.15
0.14
0.14
0.14
0.06
0.06
0.06
0.06
0.06
0.06
0.06
0.14
0.14
0.14
0.06
0.09
0.07
0.07
0.07
0.07
0.07
0.07
0.07
0.00
0.00
0.07
0.07
0.00
0.00
0.00
0.00
0.00
0.00
0.00
0.00
0.00
0.00
0.07
0.09
0.09
0.14
0.38
0.70
0.73
0.68
0.69
0.76
0.64
0.38
0.09
0.06
0.32
0.31
0.36
0.36
0.31
0.31
0.36
0.32
0.17
0.17
0.17
0.09
0.09
0.06
0.06
0.06
0.06
0.06
0.06
0.06
0.06
0.15
0.15
0.06
0.06
0.06
0.06
0.06
0.06
0.06
0.06
0.06
0.06
0.06
0.06
0.14
0.15
0.09
0.36
0.69
0.79
0.80
0.89
0.94
0.97
0.99
0.99
1.00
1.00
0.99
0.93
0.09
0.51
0.66
0.65
0.67
0.67
0.65
0.63
0.63
0.64
0.63
0.63
0.63
0.63
0.63
0.65
0.66
0.66
0.67
0.65
0.65
0.66
0.66
0.65
0.61
0.58
0.58
0.51
0.46
0.38
0.41
0.31
0.19
0.12
0.00
0.00
0.00
0.07
0.07
0.07
0.09
0.09
0.09
0.09
0.07
0.07
0.09
0.09
0.07
0.07
0.07
0.07
0.07
0.07
0.07
0.07
0.07
0.07
0.07
0.07
0.07
0.07
0.07
0.07
0.00
0.00
0.07
0.07
0.07
0.00
0.00
0.00
0.00
0.00
0.00
0.00
0.00
0.00
0.00
0.00
0.00
0.00
0.00
0.00
0.00
0.00
0.00
0.00
0.00
0.00
0.00
0.00
0.00
0.00
0.00
0.00
0.00
0.00
0.00
0.07
0.00
0.00
0.00
0.12
0.12
0.00
0.00
0.00
0.00
0.00
0.00
0.00
0.00
0.00
0.00
0.00
0.00
0.00
0.00
0.00
0.00
0.00
0.00
0.06
0.14
0.41
0.63
0.76
0.68
0.68
0.73
0.68
0.51
0.00
0.15
0.32
0.31
0.31
0.31
0.31
0.31
0.31
0.32
0.32
0.17
0.17
0.17
0.09
0.09
0.09
0.09
0.09
0.09
0.09
0.09
0.09
0.09
0.09
0.09
0.17
0.17
0.17
0.17
0.17
0.17
0.32
0.32
0.32
0.17
0.17
0.17
0.17
0.09
0.09
0.06
0.06
0.15
0.15
0.15
0.06
0.06
0.06
0.06
0.06
0.06
0.09
0.09
0.09
0.09
0.06
0.06
0.06
0.09
0.00
0.00
0.00
0.00
0.00
0.00
0.12
0.12
0.12
0.12
0.12
0.12
0.19
0.19
0.19
0.19
0.12
0.12
0.19
0.19
0.19
0.19
0.12
0.00
0.09
0.07
0.58
0.74
0.71
0.77
0.71
0.73
0.65
0.38
0.00
0.14
0.09
0.17
0.17
0.17
0.17
0.17
0.09
0.09
0.09
0.09
0.06
0.06
0.15
0.15
0.06
0.06
0.09
0.09
0.09
0.09
0.07
0.07
0.07
0.09
0.09
0.06
0.06
0.06
0.06
0.06
0.09
0.09
0.09
0.07
0.07
0.07
0.07
0.07
0.07
0.07
0.00
0.00
0.00
0.00
0.00
0.00
0.00
0.00
0.00
0.00
0.00
0.00
0.00
0.00
0.00
0.00
0.00
0.00
0.12
0.19
0.31
0.19
0.19
0.19
0.19
0.31
0.31
0.31
0.31
0.31
0.31
0.31
0.31
0.31
0.19
0.19
0.12
0.12
0.12
0.12
0.00
0.00
0.15
0.19
0.66
0.73
0.69
0.80
0.71
0.74
0.66
0.31
0.09
0.15
0.09
0.17
0.17
0.17
0.17
0.09
0.09
0.09
0.09
0.09
0.09
0.09
0.09
0.06
0.06
0.06
0.06
0.06
0.15
0.14
0.14
0.14
0.14
0.14
0.14
0.06
0.06
0.06
0.06
0.06
0.06
0.06
0.09
0.09
0.09
0.07
0.00
0.00
0.00
0.00
0.00
0.00
0.00
0.00
0.12
0.12
0.12
0.12
0.19
0.19
0.19
0.19
0.19
0.12
0.12
0.12
0.19
0.38
0.38
0.38
0.38
0.38
0.38
0.38
0.38
0.38
0.41
0.38
0.38
0.38
0.38
0.38
0.38
0.38
0.38
0.41
0.41
0.31
0.31
0.31
0.12
0.00
0.31
0.65
0.76
0.69
0.86
0.73
0.74
0.66
0.46
0.00
0.06
0.15
0.06
0.06
0.06
0.06
0.06
0.06
0.06
0.06
0.15
0.15
0.14
0.06
0.06
0.06
0.06
0.06
0.06
0.06
0.06
0.06
0.06
0.06
0.06
0.06
0.06
0.14
0.14
0.14
0.15
0.15
0.15
0.06
0.06
0.06
0.06
0.06
0.06
0.06
0.06
0.06
0.06
0.06
0.06
0.06
0.09
0.09
0.09
0.09
0.09
0.09
0.09
0.09
0.09
0.09
0.06
0.09
0.00
0.00
0.00
0.00
0.00
0.00
0.00
0.00
0.00
0.00
0.00
0.00
0.00
0.00
0.00
0.00
0.00
0.00
0.00
0.00
0.00
0.00
0.00
0.07
0.06
0.06
0.51
0.72
0.70
0.73
0.68
0.76
0.64
0.38
0.07
0.06
0.32
0.31
0.31
0.31
0.31
0.31
0.31
0.31
0.31
0.36
0.32
0.17
0.17
0.09
0.09
0.09
0.09
0.09
0.06
0.06
0.09
0.06
0.06
0.09
0.09
0.09
0.09
0.09
0.09
0.09
0.09
0.09
0.09
0.09
0.06
0.06
0.06
0.15
0.14
0.14
0.15
0.15
0.14
0.14
0.14
0.06
0.06
0.06
0.06
0.06
0.06
0.06
0.06
0.06
0.14
0.14
0.14
0.14
0.06
0.07
0.07
0.07
0.00
0.00
0.07
0.07
0.00
0.00
0.00
0.07
0.00
0.00
0.00
0.00
0.00
0.00
0.00
0.00
0.00
0.00
0.00
0.07
0.14
0.15
0.38
0.68
0.73
0.69
0.69
0.73
0.68
0.46
0.00
0.15
0.17
0.31
0.31
0.31
0.31
0.31
0.32
0.17
0.17
0.17
0.17
0.09
0.09
0.06
0.06
0.06
0.06
0.14
0.14
0.06
0.06
0.06
0.15
0.06
0.06
0.06
0.06
0.06
0.06
0.06
0.06
0.06
0.06
0.15
0.14
0.14
0.06
0.06
0.06
0.06
0.06
0.06
0.06
0.09
0.09
0.09
0.09
0.07
0.07
0.07
0.00
0.00
0.00
0.00
0.00
0.07
0.07
0.00
0.00
0.00
0.12
0.12
0.12
0.00
0.12
0.12
0.00
0.00
0.00
0.00
0.00
0.00
0.00
0.00
0.00
0.00
0.00
0.00
0.00
0.00
0.00
0.09
0.15
0.19
0.66
0.74
0.69
0.80
0.71
0.74
0.64
0.12
0.09
0.06
0.09
0.17
0.17
0.17
0.17
0.17
0.17
0.17
0.09
0.09
0.06
0.06
0.06
0.14
0.14
0.14
0.06
0.06
0.06
0.06
0.14
0.14
0.14
0.15
0.14
0.15
0.15
0.15
0.15
0.06
0.06
0.15
0.14
0.06
0.06
0.14
0.06
0.06
0.09
0.09
0.09
0.09
0.09
0.09
0.09
0.09
0.07
0.07
0.07
0.00
0.00
0.00
0.00
0.00
0.07
0.07
0.07
0.00
0.00
0.12
0.12
0.12
0.12
0.00
0.00
0.00
0.00
0.00
0.00
0.00
0.00
0.12
0.00
0.00
0.00
0.00
0.00
0.00
0.00
0.00
0.00
0.15
0.15
0.38
0.66
0.73
0.69
0.69
0.73
0.68
0.46
0.07
0.06
0.17
0.36
0.31
0.31
0.31
0.36
0.36
0.36
0.32
0.17
0.17
0.17
0.09
0.09
0.06
0.06
0.06
0.15
0.14
0.06
0.06
0.06
0.06
0.06
0.06
0.06
0.06
0.06
0.06
0.06
0.06
0.06
0.06
0.14
0.06
0.06
0.06
0.06
0.09
0.09
0.09
0.09
0.09
0.09
0.09
0.09
0.09
0.09
0.07
0.07
0.07
0.07
0.07
0.07
0.09
0.09
0.07
0.00
0.00
0.00
0.00
0.12
0.12
0.12
0.12
0.12
0.12
0.12
0.12
0.12
0.12
0.12
0.12
0.12
0.12
0.12
0.12
0.12
0.12
0.12
0.00
0.14
0.07
0.54
0.73
0.70
0.73
0.69
0.73
0.68
0.46
0.07
0.15
0.17
0.36
0.32
0.32
0.32
0.32
0.32
0.17
0.09
0.09
0.09
0.06
0.06
0.06
0.15
0.14
0.06
0.06
0.06
0.06
0.06
0.14
0.14
0.15
0.15
0.06
0.06
0.06
0.06
0.06
0.06
0.14
0.14
0.06
0.09
0.09
0.07
0.07
0.07
0.07
0.07
0.00
0.00
0.07
0.00
0.00
0.00
0.00
0.00
0.00
0.00
0.00
0.00
0.00
0.07
0.00
0.00
0.00
0.12
0.12
0.19
0.19
0.19
0.19
0.19
0.19
0.19
0.19
0.12
0.12
0.12
0.12
0.12
0.19
0.12
0.12
0.12
0.19
0.19
0.12
0.00
0.06
0.07
0.58
0.74
0.71
0.80
0.71
0.73
0.68
0.54
0.00
0.06
0.06
0.09
0.09
0.17
0.09
0.09
0.09
0.06
0.06
0.06
0.06
0.06
0.06
0.15
0.15
0.15
0.15
0.15
0.15
0.15
0.15
0.14
0.14
0.15
0.06
0.14
0.14
0.15
0.06
0.15
0.06
0.06
0.06
0.09
0.09
0.09
0.09
0.07
0.00
0.00
0.00
0.00
0.00
0.00
0.00
0.00
0.12
0.12
0.12
0.12
0.19
0.19
0.12
0.12
0.12
0.12
0.12
0.19
0.41
0.41
0.41
0.38
0.38
0.38
0.38
0.38
0.38
0.38
0.38
0.38
0.38
0.38
0.46
0.38
0.38
0.46
0.46
0.38
0.38
0.46
0.38
0.31
0.31
0.61
0.72
0.71
0.89
0.90
0.77
0.76
0.64
0.51
0.19
0.00
0.07
0.07
0.07
0.07
0.07
0.07
0.07
0.00
0.00
0.00
0.07
0.00
0.00
0.00
0.00
0.00
0.00
0.00
0.00
0.00
0.00
0.00
0.00
0.00
0.00
0.07
0.07
0.07
0.07
0.07
0.07
0.00
0.00
0.07
0.07
0.07
0.07
0.00
0.00
0.07
0.07
0.00
0.00
0.07
0.07
0.07
0.00
0.00
0.00
0.00
0.07
0.07
0.09
0.09
0.09
0.07
0.00
0.00
0.00
0.00
0.00
0.00
0.00
0.00
0.00
0.00
0.00
0.00
0.00
0.00
0.00
0.00
0.00
0.00
0.00
0.00
0.00
0.00
0.00
0.06
0.15
0.31
0.64
0.73
0.71
0.77
0.71
0.74
0.63
0.00
0.15
0.17
0.31
0.31
0.31
0.31
0.31
0.31
0.31
0.31
0.32
0.32
0.17
0.17
0.32
0.17
0.17
0.09
0.09
0.09
0.09
0.09
0.09
0.09
0.09
0.09
0.09
0.17
0.17
0.09
0.09
0.09
0.09
0.09
0.09
0.09
0.06
0.06
0.06
0.06
0.06
0.06
0.06
0.06
0.06
0.06
0.06
0.15
0.15
0.14
0.14
0.14
0.06
0.06
0.06
0.15
0.15
0.15
0.14
0.06
0.09
0.07
0.07
0.07
0.07
0.07
0.00
0.00
0.07
0.07
0.07
0.07
0.07
0.07
0.00
0.00
0.00
0.00
0.07
0.07
0.07
0.07
0.07
0.15
0.17
0.19
0.64
0.73
0.69
0.69
0.73
0.68
0.51
0.00
0.06
0.32
0.36
0.31
0.31
0.31
0.31
0.31
0.31
0.36
0.32
0.32
0.17
0.17
0.09
0.09
0.09
0.09
0.09
0.09
0.06
0.06
0.09
0.09
0.09
0.09
0.09
0.17
0.09
0.09
0.09
0.09
0.09
0.09
0.09
0.06
0.06
0.06
0.06
0.06
0.06
0.06
0.15
0.15
0.15
0.15
0.14
0.14
0.06
0.06
0.06
0.06
0.06
0.06
0.06
0.06
0.14
0.14
0.06
0.09
0.07
0.00
0.00
0.00
0.00
0.00
0.00
0.00
0.00
0.00
0.00
0.00
0.00
0.00
0.00
0.00
0.00
0.00
0.00
0.00
0.00
0.00
0.00
0.15
0.14
0.46
0.71
0.70
0.69
0.68
0.74
0.65
0.38
0.07
0.15
0.17
0.36
0.31
0.31
0.36
0.36
0.36
0.17
0.17
0.09
0.09
0.09
0.06
0.06
0.06
0.15
0.14
0.06
0.06
0.14
0.14
0.06
0.15
0.15
0.06
0.06
0.06
0.06
0.06
0.06
0.06
0.06
0.06
0.14
0.14
0.14
0.06
0.06
0.06
0.06
0.06
0.06
0.09
0.09
0.06
0.06
0.09
0.09
0.09
0.07
0.07
0.07
0.09
0.09
0.06
0.06
0.09
0.07
0.00
0.00
0.00
0.00
0.00
0.00
0.00
0.00
0.00
0.00
0.00
0.00
0.00
0.00
0.00
0.00
0.00
0.00
0.00
0.00
0.00
0.00
0.00
0.14
0.06
0.38
0.68
0.71
0.73
0.71
0.73
0.69
0.58
0.00
0.14
0.09
0.17
0.32
0.32
0.17
0.17
0.17
0.17
0.17
0.09
0.09
0.09
0.06
0.15
0.15
0.15
0.15
0.06
0.06
0.06
0.06
0.06
0.06
0.06
0.06
0.09
0.09
0.09
0.09
0.09
0.06
0.06
0.06
0.14
0.06
0.06
0.09
0.09
0.09
0.07
0.07
0.07
0.00
0.00
0.00
0.00
0.00
0.00
0.00
0.12
0.12
0.19
0.12
0.12
0.12
0.12
0.12
0.12
0.19
0.31
0.41
0.38
0.38
0.41
0.41
0.38
0.38
0.38
0.38
0.38
0.38
0.38
0.38
0.38
0.38
0.38
0.38
0.38
0.38
0.38
0.38
0.38
0.12
0.41
0.66
0.76
0.73
0.90
0.89
0.71
0.73
0.64
0.38
0.00
0.07
0.07
0.09
0.09
0.09
0.07
0.07
0.07
0.07
0.07
0.00
0.00
0.00
0.00
0.00
0.00
0.00
0.00
0.00
0.00
0.00
0.00
0.00
0.00
0.00
0.00
0.07
0.07
0.07
0.07
0.07
0.07
0.07
0.07
0.00
0.00
0.07
0.07
0.07
0.07
0.07
0.07
0.07
0.09
0.09
0.07
0.07
0.07
0.07
0.07
0.07
0.09
0.06
0.06
0.06
0.09
0.07
0.00
0.00
0.00
0.00
0.00
0.00
0.00
0.00
0.00
0.00
0.00
0.00
0.00
0.00
0.00
0.00
0.00
0.00
0.00
0.00
0.00
0.00
0.07
0.14
0.06
0.54
0.73
0.71
0.73
0.69
0.74
0.66
0.38
0.07
0.06
0.32
0.31
0.31
0.31
0.31
0.31
0.31
0.36
0.32
0.17
0.17
0.17
0.17
0.09
0.09
0.09
0.09
0.09
0.06
0.06
0.06
0.15
0.15
0.06
0.06
0.06
0.09
0.09
0.09
0.09
0.09
0.09
0.06
0.06
0.06
0.06
0.06
0.06
0.06
0.15
0.15
0.14
0.14
0.15
0.14
0.14
0.06
0.06
0.06
0.06
0.06
0.06
0.06
0.14
0.15
0.14
0.14
0.07
0.07
0.00
0.00
0.00
0.00
0.07
0.00
0.00
0.00
0.00
0.00
0.00
0.00
0.00
0.00
0.00
0.00
0.00
0.00
0.00
0.00
0.00
0.06
0.17
0.07
0.65
0.74
0.68
0.73
0.69
0.74
0.66
0.12
0.06
0.09
0.36
0.31
0.31
0.46
0.31
0.31
0.31
0.31
0.31
0.17
0.17
0.17
0.17
0.17
0.09
0.09
0.09
0.09
0.09
0.09
0.09
0.09
0.09
0.09
0.09
0.09
0.17
0.09
0.09
0.09
0.09
0.06
0.06
0.06
0.06
0.06
0.06
0.06
0.06
0.06
0.06
0.06
0.06
0.06
0.06
0.15
0.14
0.14
0.14
0.06
0.06
0.06
0.06
0.14
0.15
0.14
0.06
0.09
0.07
0.00
0.00
0.07
0.07
0.00
0.00
0.00
0.00
0.00
0.00
0.00
0.00
0.00
0.00
0.00
0.00
0.00
0.00
0.07
0.07
0.07
0.06
0.32
0.14
0.61
0.74
0.69
0.71
0.69
0.75
0.65
0.38
0.07
0.15
0.09
0.17
0.09
0.09
0.09
0.09
0.06
0.06
0.06
0.14
0.06
0.09
0.09
0.07
0.07
0.07
0.00
0.00
0.00
0.00
0.00
0.00
0.00
0.00
0.00
0.00
0.00
0.00
0.00
0.00
0.00
0.00
0.00
0.00
0.00
0.12
0.12
0.12
0.12
0.19
0.12
0.12
0.19
0.19
0.19
0.19
0.19
0.19
0.19
0.19
0.19
0.19
0.19
0.19
0.19
0.31
0.38
0.38
0.38
0.38
0.38
0.38
0.38
0.38
0.38
0.38
0.38
0.38
0.38
0.38
0.38
0.38
0.38
0.38
0.38
0.41
0.41
0.41
0.31
0.12
0.00
0.54
0.69
0.71
0.86
0.89
0.69
0.74
0.66
0.31
0.07
0.14
0.15
0.06
0.09
0.09
0.09
0.09
0.06
0.06
0.06
0.06
0.06
0.06
0.06
0.15
0.14
0.15
0.14
0.14
0.06
0.06
0.06
0.14
0.15
0.06
0.06
0.06
0.06
0.06
0.06
0.06
0.06
0.06
0.06
0.14
0.15
0.15
0.06
0.06
0.14
0.14
0.14
0.14
0.06
0.06
0.06
0.06
0.06
0.06
0.06
0.09
0.09
0.06
0.06
0.06
0.06
0.09
0.07
0.00
0.00
0.00
0.00
0.00
0.00
0.00
0.00
0.00
0.00
0.00
0.00
0.00
0.00
0.00
0.00
0.00
0.00
0.00
0.00
0.00
0.00
0.09
0.15
0.19
0.66
0.76
0.69
0.71
0.71
0.74
0.65
0.19
0.06
0.06
0.17
0.32
0.36
0.36
0.31
0.36
0.32
0.17
0.17
0.17
0.09
0.09
0.09
0.09
0.06
0.06
0.06
0.06
0.06
0.15
0.15
0.06
0.06
0.06
0.06
0.06
0.06
0.06
0.09
0.09
0.06
0.06
0.06
0.06
0.06
0.06
0.06
0.15
0.15
0.15
0.15
0.15
0.15
0.15
0.14
0.14
0.14
0.14
0.06
0.06
0.14
0.06
0.06
0.06
0.15
0.09
0.07
0.07
0.07
0.07
0.07
0.07
0.07
0.00
0.00
0.07
0.07
0.07
0.00
0.00
0.00
0.00
0.00
0.00
0.00
0.00
0.00
0.07
0.09
0.06
0.15
0.38
0.68
0.73
0.69
0.68
0.74
0.66
0.46
0.07
0.06
0.32
0.31
0.31
0.31
0.31
0.31
0.36
0.36
0.36
0.32
0.17
0.17
0.17
0.17
0.09
0.09
0.09
0.06
0.06
0.06
0.06
0.09
0.06
0.06
0.06
0.09
0.09
0.09
0.09
0.09
0.09
0.06
0.06
0.06
0.06
0.06
0.15
0.15
0.15
0.14
0.06
0.06
0.06
0.06
0.06
0.06
0.09
0.09
0.09
0.07
0.07
0.09
0.07
0.07
0.07
0.07
0.00
0.00
0.12
0.19
0.19
0.19
0.19
0.19
0.31
0.31
0.31
0.31
0.31
0.31
0.38
0.41
0.38
0.38
0.38
0.41
0.41
0.41
0.41
0.31
0.00
0.12
0.58
0.72
0.71
0.86
0.87
0.69
0.75
0.65
0.41
0.00
0.00
0.09
0.09
0.09
0.09
0.09
0.09
0.09
0.07
0.07
0.07
0.07
0.07
0.07
0.07
0.00
0.00
0.00
0.00
0.00
0.00
0.00
0.00
0.00
0.00
0.07
0.07
0.07
0.07
0.07
0.09
0.09
0.07
0.07
0.09
0.07
0.07
0.07
0.07
0.07
0.07
0.07
0.07
0.07
0.07
0.07
0.07
0.07
0.09
0.09
0.09
0.06
0.06
0.09
0.07
0.00
0.00
0.00
0.00
0.00
0.00
0.00
0.00
0.00
0.00
0.00
0.00
0.00
0.00
0.00
0.00
0.00
0.00
0.00
0.00
0.00
0.00
0.09
0.06
0.15
0.46
0.71
0.70
0.71
0.68
0.74
0.64
0.41
0.06
0.09
0.31
0.46
0.46
0.58
0.46
0.46
0.46
0.46
0.31
0.31
0.31
0.36
0.32
0.17
0.17
0.17
0.09
0.09
0.09
0.09
0.09
0.09
0.09
0.09
0.09
0.17
0.17
0.17
0.17
0.17
0.09
0.09
0.09
0.09
0.06
0.06
0.06
0.06
0.06
0.06
0.06
0.06
0.06
0.06
0.06
0.14
0.14
0.14
0.06
0.06
0.06
0.15
0.15
0.15
0.06
0.06
0.09
0.09
0.09
0.07
0.07
0.07
0.07
0.07
0.07
0.07
0.07
0.07
0.00
0.00
0.07
0.00
0.00
0.00
0.00
0.00
0.00
0.07
0.07
0.14
0.09
0.12
0.65
0.73
0.69
0.71
0.73
0.71
0.54
0.00
0.15
0.17
0.36
0.31
0.46
0.46
0.31
0.31
0.36
0.36
0.31
0.32
0.17
0.09
0.09
0.09
0.06
0.06
0.06
0.06
0.06
0.06
0.06
0.06
0.15
0.15
0.06
0.06
0.06
0.06
0.06
0.06
0.06
0.06
0.06
0.06
0.15
0.15
0.15
0.15
0.15
0.06
0.14
0.14
0.14
0.14
0.06
0.06
0.06
0.06
0.06
0.06
0.14
0.14
0.14
0.14
0.09
0.07
0.00
0.00
0.00
0.00
0.00
0.00
0.00
0.00
0.00
0.00
0.00
0.00
0.00
0.00
0.00
0.00
0.00
0.00
0.00
0.00
0.00
0.00
0.14
0.15
0.38
0.68
0.73
0.69
0.71
0.73
0.70
0.51
0.00
0.15
0.17
0.32
0.36
0.31
0.31
0.31
0.32
0.32
0.32
0.32
0.17
0.17
0.09
0.09
0.09
0.06
0.06
0.06
0.15
0.15
0.06
0.06
0.06
0.06
0.06
0.06
0.06
0.06
0.06
0.06
0.06
0.06
0.06
0.06
0.06
0.14
0.14
0.06
0.06
0.06
0.06
0.09
0.09
0.09
0.09
0.07
0.07
0.07
0.07
0.07
0.07
0.09
0.09
0.09
0.07
0.00
0.00
0.00
0.12
0.00
0.00
0.00
0.00
0.12
0.12
0.00
0.00
0.12
0.12
0.12
0.12
0.12
0.12
0.12
0.12
0.12
0.12
0.00
0.00
0.15
0.12
0.66
0.76
0.69
0.73
0.71
0.74
0.66
0.31
0.09
0.15
0.17
0.32
0.32
0.32
0.32
0.17
0.17
0.09
0.09
0.06
0.06
0.06
0.06
0.15
0.14
0.06
0.06
0.06
0.06
0.06
0.06
0.06
0.14
0.15
0.14
0.14
0.15
0.15
0.06
0.06
0.06
0.14
0.14
0.06
0.06
0.06
0.06
0.06
0.06
0.09
0.09
0.06
0.07
0.07
0.07
0.07
0.00
0.00
0.07
0.07
0.09
0.09
0.07
0.00
0.00
0.00
0.12
0.12
0.12
0.12
0.12
0.12
0.19
0.19
0.12
0.12
0.12
0.12
0.12
0.12
0.12
0.12
0.12
0.00
0.00
0.00
0.00
0.00
0.14
0.00
0.65
0.75
0.69
0.77
0.68
0.76
0.65
0.41
0.07
0.15
0.09
0.17
0.32
0.32
0.17
0.17
0.17
0.17
0.09
0.09
0.06
0.06
0.15
0.15
0.15
0.14
0.06
0.06
0.06
0.06
0.06
0.06
0.06
0.06
0.06
0.06
0.14
0.15
0.15
0.15
0.14
0.14
0.14
0.06
0.06
0.06
0.06
0.09
0.09
0.09
0.09
0.09
0.09
0.09
0.09
0.09
0.09
0.07
0.07
0.09
0.06
0.09
0.09
0.07
0.00
0.00
0.12
0.12
0.12
0.00
0.00
0.00
0.00
0.00
0.00
0.00
0.00
0.00
0.00
0.00
0.00
0.00
0.00
0.00
0.00
0.00
0.00
0.00
0.15
0.07
0.63
0.73
0.71
0.71
0.68
0.76
0.65
0.38
0.00
0.14
0.06
0.17
0.32
0.17
0.17
0.17
0.17
0.17
0.09
0.06
0.06
0.06
0.06
0.15
0.06
0.06
0.06
0.06
0.06
0.06
0.06
0.06
0.06
0.06
0.14
0.14
0.14
0.14
0.14
0.06
0.06
0.14
0.14
0.06
0.06
0.06
0.06
0.06
0.06
0.06
0.06
0.06
0.06
0.06
0.06
0.06
0.09
0.09
0.09
0.09
0.09
0.06
0.09
0.07
0.00
0.00
0.00
0.00
0.00
0.00
0.00
0.00
0.12
0.12
0.12
0.19
0.19
0.31
0.19
0.19
0.19
0.19
0.31
0.31
0.31
0.31
0.19
0.00
0.00
0.51
0.70
0.70
0.83
0.89
0.69
0.76
0.65
0.38
0.12
0.00
0.07
0.09
0.09
0.07
0.07
0.07
0.00
0.00
0.00
0.00
0.00
0.00
0.12
0.12
0.12
0.19
0.19
0.19
0.19
0.31
0.31
0.31
0.31
0.31
0.31
0.19
0.19
0.31
0.19
0.19
0.19
0.31
0.31
0.19
0.19
0.19
0.19
0.19
0.19
0.19
0.19
0.19
0.19
0.19
0.12
0.12
0.12
0.00
0.00
0.00
0.00
0.00
0.00
0.12
0.19
0.19
0.19
0.19
0.19
0.19
0.19
0.19
0.19
0.19
0.19
0.19
0.19
0.19
0.19
0.19
0.19
0.19
0.12
0.12
0.12
0.00
0.07
0.09
0.41
0.64
0.73
0.73
0.80
0.69
0.75
0.65
0.38
0.09
0.06
0.17
0.36
0.36
0.36
0.36
0.36
0.36
0.32
0.17
0.17
0.17
0.17
0.17
0.09
0.09
0.09
0.06
0.06
0.06
0.06
0.06
0.06
0.06
0.06
0.06
0.06
0.06
0.06
0.06
0.09
0.09
0.06
0.06
0.06
0.06
0.06
0.06
0.06
0.06
0.06
0.06
0.06
0.15
0.15
0.06
0.06
0.06
0.15
0.15
0.06
0.06
0.06
0.06
0.15
0.06
0.09
0.09
0.09
0.09
0.09
0.09
0.09
0.09
0.09
0.09
0.07
0.07
0.07
0.07
0.07
0.07
0.07
0.07
0.07
0.07
0.09
0.15
0.17
0.06
0.63
0.74
0.71
0.69
0.69
0.75
0.65
0.31
0.14
0.17
0.46
0.58
0.46
0.46
0.46
0.46
0.46
0.31
0.31
0.31
0.31
0.31
0.31
0.32
0.32
0.17
0.17
0.17
0.17
0.17
0.17
0.09
0.09
0.17
0.17
0.17
0.17
0.17
0.17
0.17
0.09
0.09
0.09
0.09
0.09
0.09
0.09
0.09
0.09
0.06
0.06
0.06
0.06
0.06
0.06
0.06
0.06
0.06
0.06
0.06
0.06
0.09
0.06
0.06
0.06
0.09
0.09
0.09
0.07
0.07
0.07
0.07
0.07
0.07
0.07
0.07
0.00
0.00
0.00
0.00
0.00
0.00
0.00
0.00
0.00
0.00
0.00
0.06
0.06
0.19
0.66
0.76
0.68
0.69
0.70
0.73
0.63
0.00
0.15
0.32
0.31
0.31
0.46
0.46
0.31
0.31
0.36
0.36
0.17
0.17
0.09
0.09
0.06
0.14
0.06
0.06
0.09
0.09
0.07
0.07
0.07
0.07
0.07
0.07
0.07
0.00
0.00
0.07
0.00
0.00
0.00
0.00
0.00
0.00
0.00
0.00
0.12
0.12
0.12
0.12
0.12
0.12
0.12
0.12
0.12
0.12
0.12
0.12
0.12
0.00
0.00
0.00
0.00
0.00
0.12
0.19
0.19
0.31
0.31
0.31
0.19
0.19
0.19
0.31
0.31
0.19
0.19
0.31
0.31
0.19
0.19
0.19
0.19
0.19
0.19
0.19
0.12
0.00
0.09
0.41
0.66
0.73
0.73
0.86
0.69
0.75
0.66
0.19
0.07
0.14
0.09
0.17
0.17
0.17
0.17
0.17
0.17
0.09
0.09
0.09
0.09
0.09
0.06
0.06
0.06
0.15
0.14
0.14
0.14
0.14
0.14
0.14
0.15
0.15
0.15
0.06
0.06
0.06
0.06
0.06
0.06
0.06
0.06
0.06
0.15
0.15
0.15
0.14
0.14
0.14
0.06
0.06
0.06
0.06
0.06
0.06
0.06
0.06
0.14
0.15
0.06
0.06
0.06
0.14
0.09
0.09
0.07
0.07
0.07
0.07
0.07
0.07
0.07
0.07
0.07
0.07
0.07
0.07
0.07
0.07
0.07
0.07
0.07
0.07
0.07
0.07
0.09
0.09
0.09
0.41
0.66
0.70
0.69
0.71
0.74
0.66
0.38
0.07
0.09
0.36
0.31
0.46
0.46
0.46
0.46
0.31
0.31
0.31
0.32
0.32
0.32
0.17
0.09
0.09
0.09
0.09
0.09
0.06
0.06
0.09
0.09
0.09
0.09
0.09
0.09
0.09
0.09
0.17
0.17
0.17
0.17
0.09
0.09
0.09
0.09
0.09
0.09
0.06
0.15
0.15
0.15
0.06
0.14
0.14
0.06
0.06
0.06
0.06
0.06
0.06
0.09
0.09
0.09
0.07
0.00
0.00
0.00
0.12
0.00
0.00
0.00
0.12
0.12
0.00
0.00
0.00
0.00
0.00
0.00
0.00
0.00
0.00
0.00
0.00
0.00
0.00
0.00
0.06
0.14
0.38
0.66
0.73
0.69
0.77
0.71
0.71
0.58
0.12
0.06
0.09
0.17
0.32
0.32
0.32
0.32
0.17
0.17
0.17
0.09
0.09
0.09
0.06
0.06
0.06
0.06
0.15
0.14
0.06
0.06
0.14
0.14
0.15
0.15
0.15
0.06
0.06
0.06
0.06
0.06
0.06
0.06
0.06
0.06
0.14
0.06
0.06
0.06
0.06
0.06
0.06
0.09
0.09
0.09
0.07
0.07
0.07
0.07
0.07
0.09
0.06
0.09
0.09
0.07
0.00
0.00
0.00
0.00
0.00
0.00
0.00
0.00
0.00
0.00
0.12
0.12
0.12
0.12
0.12
0.00
0.00
0.12
0.12
0.12
0.12
0.00
0.00
0.00
0.15
0.19
0.65
0.74
0.68
0.77
0.71
0.74
0.64
0.19
0.06
0.06
0.32
0.36
0.31
0.36
0.36
0.32
0.32
0.17
0.17
0.09
0.09
0.09
0.09
0.06
0.06
0.06
0.06
0.06
0.06
0.06
0.06
0.06
0.06
0.06
0.06
0.15
0.15
0.15
0.06
0.14
0.06
0.06
0.06
0.09
0.07
0.00
0.00
0.00
0.00
0.00
0.00
0.00
0.00
0.00
0.00
0.00
0.12
0.12
0.00
0.00
0.00
0.00
0.12
0.12
0.19
0.31
0.38
0.38
0.38
0.38
0.38
0.38
0.38
0.38
0.38
0.38
0.38
0.38
0.38
0.38
0.38
0.38
0.38
0.38
0.38
0.38
0.38
0.31
0.19
0.65
0.73
0.69
0.89
0.90
0.71
0.76
0.66
0.38
0.12
0.00
0.07
0.06
0.06
0.06
0.09
0.09
0.06
0.06
0.06
0.09
0.07
0.07
0.07
0.07
0.07
0.00
0.00
0.00
0.00
0.00
0.07
0.07
0.00
0.00
0.07
0.07
0.07
0.07
0.09
0.09
0.09
0.07
0.07
0.09
0.09
0.09
0.09
0.09
0.09
0.09
0.09
0.09
0.09
0.09
0.09
0.09
0.09
0.09
0.06
0.06
0.06
0.06
0.09
0.07
0.00
0.00
0.00
0.00
0.07
0.00
0.00
0.00
0.00
0.00
0.00
0.00
0.00
0.00
0.00
0.00
0.00
0.00
0.07
0.07
0.07
0.09
0.09
0.14
0.46
0.71
0.71
0.73
0.68
0.74
0.66
0.38
0.09
0.09
0.36
0.46
0.58
0.46
0.46
0.46
0.46
0.46
0.46
0.31
0.31
0.31
0.31
0.36
0.32
0.17
0.17
0.17
0.17
0.17
0.17
0.17
0.17
0.17
0.17
0.17
0.32
0.32
0.17
0.17
0.17
0.17
0.17
0.17
0.09
0.09
0.09
0.09
0.09
0.09
0.09
0.09
0.09
0.09
0.09
0.09
0.06
0.06
0.06
0.06
0.09
0.09
0.09
0.06
0.15
0.06
0.09
0.09
0.09
0.09
0.09
0.09
0.07
0.07
0.09
0.09
0.09
0.07
0.07
0.07
0.07
0.07
0.00
0.00
0.07
0.07
0.07
0.06
0.09
0.06
0.61
0.73
0.71
0.69
0.71
0.74
0.66
0.19
0.14
0.32
0.31
0.46
0.46
0.46
0.31
0.31
0.31
0.31
0.36
0.32
0.32
0.17
0.09
0.09
0.09
0.06
0.15
0.15
0.15
0.15
0.15
0.15
0.15
0.06
0.06
0.06
0.06
0.06
0.06
0.06
0.14
0.15
0.15
0.14
0.06
0.09
0.09
0.09
0.07
0.07
0.07
0.07
0.07
0.07
0.07
0.07
0.07
0.07
0.07
0.09
0.09
0.09
0.07
0.00
0.00
0.00
0.12
0.12
0.12
0.00
0.00
0.12
0.12
0.12
0.12
0.00
0.00
0.12
0.19
0.19
0.19
0.12
0.12
0.19
0.19
0.12
0.00
0.09
0.09
0.46
0.70
0.73
0.71
0.73
0.73
0.71
0.58
0.00
0.14
0.09
0.32
0.36
0.31
0.36
0.32
0.32
0.32
0.17
0.17
0.17
0.09
0.09
0.09
0.09
0.06
0.06
0.06
0.06
0.06
0.15
0.15
0.06
0.06
0.06
0.06
0.06
0.06
0.06
0.06
0.06
0.06
0.06
0.06
0.06
0.15
0.06
0.06
0.06
0.06
0.09
0.09
0.09
0.09
0.09
0.09
0.09
0.09
0.09
0.06
0.06
0.06
0.06
0.06
0.09
0.00
0.00
0.00
0.00
0.00
0.00
0.00
0.00
0.12
0.12
0.12
0.19
0.19
0.31
0.31
0.31
0.38
0.38
0.38
0.41
0.41
0.41
0.31
0.00
0.38
0.66
0.75
0.68
0.86
0.80
0.73
0.69
0.58
0.12
0.00
0.06
0.06
0.14
0.06
0.06
0.06
0.06
0.06
0.06
0.09
0.09
0.07
0.00
0.00
0.00
0.00
0.00
0.00
0.00
0.12
0.12
0.12
0.12
0.12
0.12
0.12
0.12
0.12
0.12
0.12
0.12
0.12
0.12
0.12
0.12
0.12
0.19
0.12
0.12
0.12
0.12
0.12
0.19
0.19
0.19
0.19
0.12
0.12
0.12
0.12
0.12
0.12
0.19
0.38
0.41
0.38
0.38
0.38
0.41
0.41
0.41
0.41
0.41
0.41
0.38
0.41
0.41
0.38
0.38
0.38
0.38
0.31
0.31
0.31
0.19
0.12
0.00
0.12
0.65
0.74
0.69
0.86
0.83
0.73
0.70
0.51
0.00
0.06
0.09
0.17
0.17
0.17
0.32
0.17
0.17
0.17
0.17
0.17
0.17
0.17
0.17
0.09
0.09
0.06
0.06
0.06
0.06
0.06
0.06
0.06
0.06
0.06
0.06
0.06
0.06
0.09
0.09
0.06
0.06
0.06
0.15
0.15
0.15
0.15
0.15
0.14
0.14
0.06
0.06
0.14
0.14
0.06
0.06
0.06
0.06
0.06
0.06
0.15
0.15
0.15
0.14
0.14
0.09
0.07
0.00
0.00
0.00
0.07
0.07
0.07
0.07
0.07
0.07
0.00
0.00
0.00
0.00
0.00
0.00
0.07
0.07
0.07
0.00
0.00
0.09
0.15
0.06
0.41
0.65
0.73
0.68
0.71
0.73
0.68
0.46
0.07
0.09
0.32
0.31
0.46
0.58
0.46
0.46
0.46
0.46
0.46
0.31
0.31
0.31
0.17
0.36
0.32
0.17
0.17
0.17
0.09
0.09
0.09
0.09
0.09
0.17
0.17
0.17
0.17
0.32
0.17
0.17
0.17
0.17
0.17
0.17
0.17
0.17
0.17
0.09
0.09
0.09
0.09
0.09
0.09
0.09
0.09
0.09
0.09
0.06
0.06
0.06
0.09
0.09
0.09
0.06
0.06
0.09
0.09
0.09
0.09
0.09
0.09
0.07
0.07
0.07
0.07
0.07
0.07
0.07
0.07
0.00
0.00
0.07
0.00
0.00
0.00
0.00
0.07
0.15
0.17
0.12
0.65
0.76
0.69
0.69
0.73
0.72
0.54
0.00
0.15
0.17
0.36
0.31
0.31
0.32
0.17
0.17
0.17
0.09
0.09
0.06
0.06
0.14
0.06
0.09
0.09
0.07
0.00
0.00
0.00
0.00
0.00
0.00
0.00
0.00
0.00
0.00
0.00
0.00
0.00
0.00
0.00
0.00
0.00
0.12
0.12
0.12
0.12
0.12
0.12
0.12
0.12
0.12
0.12
0.12
0.00
0.00
0.12
0.00
0.00
0.00
0.00
0.00
0.00
0.12
0.19
0.19
0.19
0.19
0.19
0.19
0.19
0.19
0.19
0.19
0.19
0.19
0.19
0.19
0.19
0.19
0.19
0.19
0.12
0.12
0.12
0.00
0.07
0.06
0.46
0.69
0.71
0.77
0.83
0.71
0.73
0.61
0.12
0.06
0.06
0.09
0.17
0.32
0.32
0.32
0.32
0.17
0.17
0.17
0.17
0.09
0.09
0.09
0.09
0.06
0.06
0.06
0.15
0.15
0.06
0.06
0.06
0.06
0.06
0.09
0.09
0.09
0.09
0.09
0.09
0.09
0.09
0.06
0.06
0.06
0.06
0.06
0.06
0.06
0.06
0.06
0.06
0.15
0.15
0.06
0.06
0.06
0.06
0.06
0.09
0.09
0.06
0.15
0.06
0.09
0.09
0.09
0.09
0.09
0.09
0.09
0.09
0.09
0.09
0.09
0.07
0.07
0.07
0.07
0.07
0.07
0.07
0.07
0.07
0.09
0.09
0.17
0.17
0.38
0.70
0.70
0.71
0.68
0.76
0.65
0.38
0.09
0.06
0.36
0.31
0.46
0.46
0.46
0.31
0.31
0.36
0.36
0.31
0.36
0.17
0.09
0.09
0.09
0.09
0.09
0.09
0.09
0.09
0.09
0.09
0.09
0.09
0.09
0.09
0.09
0.06
0.06
0.06
0.15
0.14
0.14
0.06
0.06
0.09
0.07
0.07
0.07
0.00
0.00
0.00
0.00
0.00
0.00
0.12
0.12
0.12
0.19
0.12
0.12
0.12
0.12
0.19
0.31
0.41
0.38
0.38
0.38
0.38
0.38
0.38
0.38
0.38
0.38
0.38
0.46
0.46
0.46
0.46
0.46
0.46
0.46
0.46
0.46
0.46
0.38
0.31
0.12
0.51
0.68
0.71
0.80
0.90
0.73
0.76
0.63
0.38
0.12
0.07
0.09
0.14
0.15
0.15
0.14
0.14
0.15
0.14
0.06
0.06
0.06
0.09
0.09
0.09
0.09
0.07
0.07
0.07
0.07
0.07
0.07
0.07
0.07
0.07
0.09
0.09
0.09
0.09
0.09
0.06
0.06
0.06
0.09
0.09
0.06
0.06
0.06
0.06
0.06
0.06
0.06
0.06
0.06
0.06
0.06
0.06
0.15
0.06
0.06
0.06
0.06
0.14
0.09
0.09
0.07
0.07
0.09
0.09
0.07
0.07
0.07
0.07
0.07
0.07
0.07
0.07
0.07
0.07
0.07
0.07
0.07
0.09
0.07
0.07
0.09
0.17
0.09
0.41
0.68
0.73
0.68
0.68
0.73
0.68
0.38
0.06
0.17
0.31
0.65
0.74
0.69
0.65
0.58
0.58
0.58
0.58
0.58
0.46
0.46
0.46
0.31
0.31
0.36
0.36
0.36
0.17
0.17
0.17
0.17
0.17
0.32
0.32
0.32
0.32
0.32
0.17
0.17
0.17
0.17
0.17
0.09
0.09
0.09
0.09
0.09
0.09
0.06
0.06
0.09
0.06
0.06
0.06
0.06
0.15
0.15
0.06
0.06
0.09
0.06
0.15
0.14
0.09
0.09
0.07
0.07
0.07
0.00
0.00
0.00
0.00
0.00
0.00
0.00
0.00
0.00
0.00
0.00
0.00
0.00
0.00
0.00
0.00
0.00
0.00
0.06
0.07
0.54
0.72
0.70
0.73
0.69
0.73
0.70
0.54
0.12
0.09
0.14
0.06
0.06
0.06
0.15
0.14
0.06
0.06
0.06
0.09
0.09
0.09
0.07
0.07
0.00
0.00
0.00
0.00
0.00
0.00
0.00
0.00
0.00
0.00
0.00
0.00
0.00
0.00
0.00
0.00
0.00
0.00
0.07
0.00
0.00
0.07
0.07
0.00
0.00
0.07
0.07
0.07
0.07
0.00
0.00
0.00
0.07
0.07
0.09
0.09
0.09
0.07
0.00
0.00
0.00
0.00
0.12
0.00
0.00
0.00
0.00
0.00
0.00
0.00
0.00
0.00
0.00
0.00
0.00
0.12
0.00
0.00
0.00
0.00
0.00
0.00
0.15
0.09
0.58
0.74
0.71
0.73
0.68
0.76
0.65
0.38
0.09
0.06
0.36
0.31
0.31
0.31
0.46
0.46
0.31
0.31
0.46
0.31
0.31
0.36
0.32
0.32
0.17
0.09
0.09
0.09
0.09
0.09
0.09
0.09
0.09
0.09
0.09
0.17
0.09
0.09
0.17
0.09
0.09
0.09
0.09
0.09
0.09
0.06
0.06
0.15
0.15
0.06
0.06
0.06
0.06
0.06
0.06
0.06
0.06
0.06
0.06
0.06
0.06
0.06
0.15
0.06
0.07
0.00
0.00
0.00
0.07
0.00
0.00
0.00
0.00
0.00
0.00
0.00
0.00
0.00
0.00
0.00
0.00
0.00
0.00
0.00
0.00
0.00
0.06
0.06
0.38
0.64
0.73
0.69
0.71
0.73
0.69
0.58
0.00
0.14
0.17
0.36
0.31
0.31
0.31
0.36
0.32
0.32
0.17
0.09
0.09
0.09
0.06
0.15
0.14
0.06
0.06
0.09
0.07
0.07
0.07
0.07
0.07
0.00
0.00
0.00
0.00
0.00
0.00
0.00
0.00
0.00
0.00
0.00
0.00
0.00
0.00
0.12
0.12
0.12
0.12
0.12
0.12
0.12
0.12
0.12
0.19
0.19
0.12
0.12
0.00
0.00
0.12
0.12
0.31
0.38
0.38
0.38
0.38
0.38
0.38
0.38
0.38
0.38
0.38
0.38
0.38
0.38
0.38
0.38
0.38
0.38
0.38
0.38
0.38
0.38
0.41
0.19
0.19
0.54
0.70
0.71
0.86
0.90
0.77
0.74
0.65
0.46
0.12
0.00
0.09
0.06
0.14
0.06
0.06
0.06
0.06
0.06
0.06
0.06
0.06
0.06
0.09
0.09
0.09
0.07
0.07
0.07
0.07
0.07
0.07
0.07
0.07
0.09
0.09
0.09
0.09
0.06
0.09
0.09
0.06
0.06
0.06
0.06
0.06
0.06
0.06
0.09
0.09
0.06
0.06
0.06
0.06
0.06
0.14
0.14
0.14
0.06
0.06
0.06
0.15
0.14
0.09
0.07
0.07
0.07
0.07
0.07
0.07
0.07
0.07
0.07
0.07
0.09
0.07
0.07
0.07
0.07
0.09
0.09
0.09
0.09
0.09
0.07
0.09
0.06
0.17
0.12
0.66
0.76
0.69
0.68
0.73
0.72
0.58
0.07
0.09
0.31
0.58
0.58
0.58
0.58
0.58
0.58
0.58
0.58
0.58
0.46
0.46
0.46
0.46
0.31
0.36
0.36
0.31
0.36
0.36
0.32
0.32
0.32
0.32
0.32
0.32
0.36
0.36
0.36
0.36
0.36
0.36
0.36
0.36
0.32
0.17
0.17
0.17
0.17
0.17
0.17
0.17
0.17
0.09
0.09
0.09
0.09
0.09
0.09
0.09
0.09
0.09
0.09
0.06
0.15
0.14
0.09
0.09
0.09
0.09
0.09
0.09
0.07
0.07
0.07
0.07
0.07
0.00
0.00
0.00
0.00
0.00
0.00
0.00
0.00
0.00
0.00
0.09
0.15
0.12
0.65
0.75
0.69
0.69
0.71
0.74
0.66
0.19
0.09
0.06
0.17
0.17
0.17
0.17
0.09
0.09
0.09
0.06
0.06
0.06
0.14
0.06
0.09
0.09
0.07
0.07
0.00
0.00
0.00
0.00
0.00
0.00
0.00
0.00
0.00
0.00
0.00
0.00
0.00
0.00
0.00
0.00
0.00
0.00
0.00
0.00
0.12
0.12
0.12
0.12
0.12
0.12
0.12
0.12
0.19
0.19
0.12
0.12
0.12
0.12
0.12
0.12
0.19
0.31
0.41
0.38
0.38
0.38
0.41
0.41
0.41
0.38
0.38
0.38
0.38
0.38
0.38
0.38
0.38
0.38
0.38
0.41
0.41
0.41
0.38
0.19
0.00
0.00
0.54
0.72
0.71
0.83
0.86
0.69
0.74
0.64
0.12
0.09
0.15
0.09
0.09
0.17
0.09
0.09
0.09
0.09
0.09
0.09
0.09
0.09
0.09
0.06
0.06
0.06
0.15
0.15
0.15
0.14
0.14
0.14
0.14
0.15
0.06
0.06
0.09
0.09
0.09
0.09
0.09
0.09
0.06
0.06
0.06
0.06
0.09
0.09
0.09
0.09
0.09
0.09
0.09
0.09
0.09
0.09
0.09
0.15
0.06
0.09
0.09
0.09
0.09
0.06
0.14
0.06
0.06
0.09
0.09
0.06
0.09
0.09
0.09
0.09
0.09
0.09
0.09
0.09
0.09
0.09
0.09
0.09
0.09
0.06
0.06
0.06
0.14
0.17
0.32
0.31
0.65
0.73
0.68
0.68
0.74
0.66
0.41
0.14
0.17
0.46
0.69
0.65
0.65
0.65
0.65
0.65
0.58
0.58
0.58
0.46
0.46
0.31
0.31
0.31
0.36
0.32
0.32
0.32
0.17
0.17
0.17
0.17
0.17
0.17
0.17
0.32
0.17
0.17
0.17
0.17
0.17
0.17
0.17
0.09
0.06
0.15
0.14
0.14
0.14
0.14
0.14
0.14
0.14
0.06
0.06
0.06
0.06
0.06
0.06
0.15
0.15
0.15
0.14
0.09
0.07
0.00
0.00
0.00
0.00
0.00
0.00
0.00
0.00
0.12
0.12
0.19
0.19
0.19
0.31
0.31
0.41
0.41
0.41
0.41
0.38
0.41
0.38
0.00
0.12
0.64
0.73
0.69
0.86
0.86
0.71
0.74
0.63
0.31
0.00
0.09
0.06
0.14
0.06
0.06
0.06
0.06
0.09
0.09
0.07
0.07
0.00
0.00
0.00
0.00
0.00
0.00
0.00
0.12
0.19
0.19
0.19
0.19
0.12
0.12
0.12
0.12
0.12
0.12
0.12
0.12
0.12
0.12
0.12
0.12
0.12
0.12
0.12
0.12
0.12
0.12
0.00
0.00
0.12
0.00
0.00
0.00
0.00
0.00
0.00
0.00
0.00
0.00
0.00
0.12
0.19
0.19
0.19
0.12
0.12
0.19
0.19
0.19
0.19
0.19
0.12
0.12
0.12
0.12
0.12
0.12
0.12
0.12
0.00
0.00
0.00
0.14
0.06
0.38
0.69
0.71
0.77
0.80
0.73
0.70
0.54
0.00
0.06
0.32
0.31
0.46
0.46
0.46
0.31
0.31
0.46
0.46
0.46
0.31
0.31
0.31
0.31
0.36
0.32
0.17
0.17
0.17
0.17
0.17
0.17
0.17
0.17
0.17
0.17
0.17
0.17
0.17
0.17
0.17
0.09
0.09
0.09
0.09
0.09
0.09
0.09
0.09
0.09
0.09
0.09
0.09
0.09
0.09
0.09
0.09
0.09
0.09
0.17
0.17
0.17
0.17
0.06
0.15
0.14
0.06
0.06
0.06
0.06
0.06
0.06
0.06
0.06
0.09
0.09
0.09
0.09
0.09
0.09
0.09
0.09
0.09
0.09
0.09
0.09
0.06
0.09
0.17
0.31
0.64
0.73
0.68
0.69
0.73
0.68
0.51
0.00
0.09
0.31
0.46
0.58
0.46
0.46
0.46
0.46
0.46
0.31
0.31
0.36
0.32
0.32
0.17
0.09
0.09
0.09
0.09
0.09
0.09
0.09
0.09
0.09
0.17
0.17
0.09
0.06
0.09
0.09
0.06
0.06
0.06
0.15
0.14
0.14
0.14
0.06
0.06
0.09
0.09
0.09
0.07
0.07
0.07
0.07
0.00
0.00
0.00
0.00
0.00
0.00
0.00
0.00
0.00
0.12
0.19
0.38
0.41
0.41
0.38
0.38
0.38
0.38
0.38
0.38
0.38
0.38
0.38
0.41
0.41
0.38
0.38
0.41
0.41
0.41
0.38
0.38
0.41
0.00
0.12
0.65
0.73
0.69
0.86
0.87
0.69
0.74
0.65
0.31
0.00
0.06
0.14
0.15
0.06
0.06
0.06
0.06
0.06
0.15
0.14
0.14
0.06
0.06
0.09
0.09
0.07
0.07
0.07
0.07
0.07
0.07
0.07
0.09
0.09
0.09
0.09
0.09
0.09
0.06
0.09
0.09
0.06
0.06
0.06
0.06
0.06
0.06
0.06
0.06
0.14
0.06
0.36
0.69
0.79
0.80
0.85
0.93
0.96
0.99
1.00
1.00
1.00
1.00
1.00
0.94
0.17
0.51
0.65
0.65
0.65
0.63
0.63
0.63
0.63
0.63
0.63
0.63
0.65
0.66
0.65
0.65
0.65
0.66
0.66
0.66
0.65
0.63
0.63
0.61
0.61
0.58
0.51
0.46
0.38
0.38
0.38
0.19
0.12
0.00
0.00
0.00
0.07
0.06
0.06
0.14
0.14
0.14
0.06
0.06
0.06
0.06
0.06
0.06
0.06
0.06
0.06
0.15
0.14
0.14
0.14
0.14
0.14
0.14
0.06
0.06
0.06
0.06
0.06
0.06
0.06
0.06
0.06
0.06
0.06
0.06
0.06
0.06
0.06
0.06
0.06
0.06
0.06
0.06
0.09
0.09
0.06
0.06
0.09
0.09
0.09
0.06
0.06
0.09
0.07
0.00
0.00
0.00
0.00
0.00
0.00
0.00
0.00
0.00
0.00
0.00
0.00
0.00
0.00
0.00
0.00
0.00
0.00
0.00
0.00
0.00
0.06
0.06
0.07
0.64
0.74
0.71
0.69
0.71
0.74
0.65
0.38
0.09
0.15
0.09
0.17
0.17
0.17
0.17
0.09
0.09
0.06
0.15
0.14
0.06
0.09
0.07
0.07
0.00
0.00
0.00
0.00
0.00
0.00
0.00
0.00
0.00
0.00
0.00
0.07
0.07
0.07
0.09
0.09
0.09
0.09
0.07
0.07
0.07
0.00
0.00
0.00
0.00
0.00
0.00
0.00
0.00
0.12
0.12
0.12
0.12
0.12
0.00
0.00
0.00
0.00
0.12
0.12
0.31
0.41
0.41
0.38
0.38
0.38
0.38
0.38
0.38
0.38
0.38
0.38
0.38
0.38
0.38
0.38
0.38
0.38
0.38
0.38
0.38
0.38
0.31
0.00
0.31
0.66
0.74
0.69
0.87
0.86
0.71
0.73
0.63
0.19
0.07
0.06
0.15
0.06
0.06
0.06
0.06
0.06
0.06
0.06
0.06
0.06
0.15
0.14
0.06
0.06
0.06
0.06
0.06
0.06
0.06
0.06
0.06
0.06
0.06
0.14
0.15
0.06
0.15
0.15
0.06
0.06
0.15
0.15
0.14
0.14
0.15
0.06
0.06
0.06
0.06
0.06
0.06
0.06
0.06
0.15
0.15
0.06
0.06
0.06
0.06
0.09
0.09
0.06
0.15
0.06
0.09
0.09
0.09
0.09
0.09
0.06
0.09
0.09
0.09
0.09
0.09
0.09
0.09
0.09
0.09
0.09
0.09
0.09
0.06
0.06
0.09
0.06
0.17
0.32
0.00
0.67
0.76
0.69
0.68
0.73
0.70
0.54
0.09
0.17
0.31
0.58
0.65
0.69
0.58
0.58
0.58
0.58
0.46
0.46
0.46
0.46
0.46
0.31
0.31
0.31
0.32
0.32
0.17
0.17
0.17
0.17
0.17
0.17
0.17
0.17
0.17
0.32
0.32
0.17
0.17
0.17
0.17
0.17
0.17
0.09
0.09
0.09
0.06
0.15
0.14
0.14
0.06
0.06
0.06
0.06
0.06
0.06
0.06
0.06
0.06
0.15
0.15
0.14
0.06
0.07
0.07
0.00
0.00
0.00
0.00
0.00
0.00
0.12
0.12
0.12
0.12
0.19
0.31
0.31
0.31
0.31
0.31
0.31
0.31
0.38
0.38
0.19
0.00
0.12
0.58
0.72
0.70
0.77
0.80
0.69
0.74
0.66
0.38
0.00
0.07
0.06
0.06
0.06
0.06
0.06
0.06
0.09
0.09
0.09
0.07
0.07
0.00
0.00
0.00
0.00
0.12
0.12
0.12
0.12
0.19
0.19
0.19
0.19
0.12
0.12
0.12
0.12
0.00
0.00
0.12
0.00
0.00
0.12
0.12
0.12
0.00
0.00
0.12
0.12
0.00
0.00
0.00
0.00
0.00
0.00
0.00
0.00
0.00
0.00
0.00
0.00
0.00
0.12
0.12
0.19
0.19
0.19
0.19
0.19
0.19
0.19
0.19
0.19
0.19
0.19
0.19
0.19
0.19
0.19
0.12
0.12
0.12
0.12
0.00
0.00
0.09
0.06
0.38
0.68
0.73
0.73
0.77
0.70
0.72
0.61
0.00
0.15
0.17
0.31
0.31
0.31
0.31
0.36
0.36
0.31
0.31
0.31
0.31
0.31
0.31
0.31
0.32
0.17
0.17
0.17
0.17
0.09
0.09
0.09
0.09
0.17
0.17
0.17
0.17
0.17
0.17
0.17
0.17
0.09
0.09
0.09
0.17
0.09
0.09
0.09
0.09
0.09
0.09
0.09
0.09
0.09
0.09
0.09
0.09
0.09
0.09
0.09
0.17
0.17
0.17
0.09
0.06
0.14
0.06
0.06
0.06
0.06
0.06
0.06
0.06
0.06
0.06
0.06
0.09
0.09
0.09
0.09
0.09
0.09
0.09
0.09
0.09
0.09
0.09
0.06
0.32
0.00
0.67
0.76
0.68
0.68
0.73
0.69
0.54
0.07
0.09
0.32
0.46
0.58
0.58
0.58
0.46
0.46
0.46
0.31
0.31
0.31
0.31
0.32
0.17
0.17
0.17
0.17
0.09
0.09
0.09
0.09
0.09
0.09
0.09
0.17
0.17
0.17
0.09
0.09
0.09
0.06
0.06
0.06
0.06
0.15
0.06
0.06
0.06
0.06
0.09
0.09
0.09
0.09
0.07
0.07
0.07
0.00
0.00
0.00
0.00
0.00
0.00
0.00
0.00
0.00
0.19
0.38
0.41
0.38
0.38
0.38
0.38
0.38
0.38
0.38
0.38
0.41
0.41
0.38
0.31
0.31
0.31
0.31
0.31
0.19
0.19
0.19
0.12
0.00
0.00
0.54
0.71
0.71
0.77
0.80
0.70
0.71
0.58
0.00
0.09
0.15
0.09
0.17
0.17
0.17
0.17
0.17
0.09
0.09
0.06
0.06
0.06
0.14
0.14
0.14
0.06
0.06
0.06
0.09
0.09
0.09
0.09
0.06
0.09
0.09
0.06
0.06
0.14
0.14
0.06
0.06
0.06
0.06
0.06
0.15
0.14
0.06
0.06
0.06
0.06
0.15
0.15
0.15
0.15
0.14
0.14
0.14
0.14
0.15
0.06
0.06
0.15
0.14
0.09
0.09
0.07
0.07
0.07
0.07
0.00
0.00
0.00
0.00
0.00
0.00
0.00
0.00
0.00
0.00
0.00
0.00
0.00
0.00
0.00
0.00
0.00
0.06
0.06
0.12
0.66
0.73
0.68
0.71
0.70
0.72
0.61
0.00
0.06
0.17
0.31
0.46
0.46
0.46
0.46
0.46
0.31
0.31
0.31
0.36
0.36
0.17
0.17
0.09
0.09
0.09
0.09
0.09
0.09
0.09
0.09
0.09
0.09
0.09
0.06
0.06
0.06
0.06
0.06
0.06
0.06
0.15
0.15
0.15
0.15
0.15
0.14
0.14
0.14
0.14
0.14
0.06
0.06
0.06
0.06
0.06
0.06
0.06
0.06
0.06
0.06
0.14
0.06
0.09
0.09
0.07
0.07
0.00
0.00
0.07
0.00
0.00
0.00
0.00
0.00
0.12
0.12
0.12
0.19
0.12
0.12
0.12
0.12
0.12
0.12
0.12
0.00
0.07
0.07
0.61
0.74
0.71
0.80
0.80
0.71
0.72
0.63
0.31
0.00
0.09
0.06
0.14
0.06
0.06
0.06
0.06
0.09
0.09
0.09
0.07
0.07
0.00
0.00
0.00
0.00
0.00
0.12
0.12
0.12
0.12
0.12
0.12
0.12
0.12
0.12
0.12
0.00
0.00
0.12
0.12
0.12
0.12
0.12
0.12
0.12
0.19
0.19
0.12
0.12
0.12
0.12
0.12
0.12
0.12
0.12
0.00
0.00
0.00
0.00
0.00
0.00
0.00
0.12
0.19
0.19
0.31
0.19
0.19
0.19
0.31
0.19
0.19
0.19
0.19
0.19
0.19
0.19
0.19
0.19
0.19
0.19
0.19
0.19
0.19
0.00
0.09
0.00
0.65
0.75
0.68
0.83
0.71
0.74
0.66
0.38
0.00
0.15
0.09
0.32
0.36
0.36
0.36
0.32
0.32
0.32
0.36
0.32
0.17
0.17
0.17
0.17
0.17
0.09
0.09
0.09
0.06
0.06
0.06
0.09
0.09
0.09
0.09
0.09
0.09
0.09
0.09
0.09
0.09
0.09
0.09
0.09
0.06
0.06
0.06
0.06
0.06
0.06
0.06
0.06
0.06
0.06
0.06
0.06
0.06
0.06
0.06
0.06
0.09
0.09
0.06
0.15
0.06
0.09
0.09
0.09
0.09
0.09
0.09
0.09
0.09
0.09
0.09
0.09
0.09
0.09
0.09
0.09
0.09
0.09
0.09
0.09
0.09
0.09
0.09
0.17
0.15
0.38
0.71
0.71
0.68
0.69
0.76
0.63
0.41
0.14
0.17
0.31
0.46
0.58
0.46
0.46
0.46
0.46
0.46
0.31
0.31
0.36
0.32
0.32
0.17
0.17
0.17
0.17
0.09
0.09
0.09
0.09
0.09
0.09
0.09
0.09
0.09
0.17
0.06
0.06
0.06
0.06
0.06
0.06
0.06
0.06
0.14
0.15
0.15
0.14
0.06
0.06
0.06
0.06
0.06
0.06
0.06
0.06
0.06
0.14
0.15
0.06
0.06
0.15
0.06
0.09
0.07
0.07
0.00
0.00
0.00
0.00
0.00
0.00
0.00
0.00
0.12
0.12
0.12
0.19
0.19
0.19
0.19
0.31
0.31
0.31
0.31
0.31
0.00
0.00
0.38
0.68
0.71
0.73
0.83
0.68
0.75
0.67
0.38
0.12
0.00
0.09
0.06
0.06
0.06
0.06
0.06
0.09
0.09
0.09
0.09
0.07
0.00
0.00
0.00
0.00
0.00
0.12
0.12
0.12
0.19
0.19
0.12
0.12
0.12
0.12
0.12
0.00
0.00
0.00
0.00
0.00
0.00
0.00
0.00
0.00
0.00
0.00
0.00
0.00
0.00
0.00
0.00
0.00
0.00
0.00
0.00
0.00
0.00
0.07
0.07
0.07
0.00
0.00
0.00
0.00
0.12
0.12
0.00
0.00
0.00
0.00
0.00
0.00
0.00
0.00
0.00
0.00
0.00
0.00
0.00
0.00
0.00
0.00
0.00
0.00
0.06
0.15
0.12
0.66
0.76
0.68
0.71
0.70
0.73
0.64
0.12
0.14
0.17
0.31
0.46
0.46
0.46
0.46
0.46
0.46
0.46
0.31
0.31
0.36
0.36
0.32
0.17
0.09
0.09
0.09
0.09
0.09
0.09
0.09
0.09
0.09
0.09
0.09
0.09
0.09
0.17
0.17
0.09
0.09
0.09
0.09
0.09
0.09
0.06
0.06
0.06
0.06
0.09
0.09
0.06
0.06
0.06
0.06
0.06
0.06
0.06
0.15
0.14
0.14
0.14
0.06
0.09
0.07
0.00
0.00
0.00
0.00
0.07
0.07
0.00
0.00
0.00
0.00
0.00
0.00
0.00
0.00
0.00
0.00
0.00
0.00
0.00
0.00
0.00
0.00
0.14
0.14
0.38
0.68
0.73
0.68
0.68
0.73
0.70
0.54
0.07
0.15
0.32
0.31
0.46
0.46
0.46
0.31
0.31
0.31
0.36
0.32
0.17
0.09
0.09
0.09
0.06
0.06
0.06
0.06
0.06
0.06
0.06
0.06
0.15
0.15
0.15
0.14
0.06
0.06
0.06
0.06
0.06
0.06
0.06
0.06
0.06
0.09
0.09
0.09
0.09
0.09
0.09
0.09
0.09
0.09
0.09
0.09
0.09
0.09
0.09
0.06
0.06
0.06
0.09
0.07
0.00
0.00
0.00
0.00
0.00
0.00
0.00
0.00
0.00
0.12
0.12
0.12
0.12
0.12
0.12
0.12
0.12
0.12
0.12
0.12
0.00
0.00
0.00
0.09
0.06
0.38
0.66
0.73
0.69
0.69
0.73
0.69
0.54
0.07
0.14
0.17
0.31
0.31
0.46
0.31
0.31
0.31
0.36
0.32
0.36
0.32
0.17
0.17
0.09
0.09
0.06
0.06
0.06
0.14
0.06
0.06
0.06
0.06
0.06
0.14
0.15
0.15
0.15
0.14
0.14
0.14
0.06
0.06
0.06
0.06
0.06
0.06
0.06
0.06
0.06
0.06
0.06
0.06
0.06
0.06
0.06
0.06
0.06
0.06
0.06
0.06
0.09
0.09
0.09
0.07
0.00
0.00
0.12
0.12
0.12
0.12
0.19
0.19
0.19
0.31
0.31
0.31
0.38
0.41
0.38
0.38
0.38
0.38
0.38
0.38
0.38
0.38
0.31
0.12
0.41
0.67
0.75
0.68
0.86
0.86
0.70
0.71
0.63
0.31
0.00
0.07
0.09
0.09
0.09
0.09
0.09
0.09
0.09
0.09
0.07
0.07
0.00
0.00
0.00
0.00
0.00
0.00
0.12
0.19
0.19
0.19
0.19
0.19
0.19
0.12
0.12
0.12
0.12
0.00
0.00
0.12
0.12
0.12
0.00
0.00
0.12
0.12
0.12
0.12
0.12
0.12
0.12
0.12
0.12
0.12
0.12
0.00
0.00
0.00
0.00
0.00
0.00
0.00
0.00
0.12
0.19
0.19
0.19
0.19
0.19
0.19
0.19
0.19
0.19
0.19
0.19
0.19
0.19
0.19
0.19
0.19
0.19
0.19
0.19
0.19
0.12
0.07
0.09
0.38
0.68
0.73
0.80
0.86
0.69
0.74
0.66
0.12
0.06
0.09
0.17
0.17
0.32
0.32
0.17
0.17
0.17
0.17
0.17
0.17
0.17
0.17
0.09
0.09
0.09
0.06
0.06
0.06
0.06
0.06
0.06
0.06
0.09
0.09
0.09
0.09
0.09
0.09
0.09
0.09
0.09
0.06
0.06
0.15
0.15
0.06
0.06
0.06
0.06
0.06
0.06
0.06
0.06
0.06
0.06
0.06
0.06
0.15
0.06
0.09
0.09
0.06
0.06
0.14
0.06
0.09
0.09
0.09
0.09
0.09
0.09
0.07
0.07
0.09
0.09
0.09
0.07
0.07
0.09
0.09
0.09
0.09
0.09
0.09
0.09
0.09
0.14
0.17
0.14
0.58
0.74
0.71
0.69
0.69
0.75
0.65
0.12
0.14
0.17
0.31
0.46
0.58
0.58
0.46
0.46
0.46
0.46
0.46
0.31
0.31
0.36
0.36
0.17
0.17
0.17
0.17
0.17
0.09
0.09
0.09
0.09
0.09
0.09
0.17
0.17
0.17
0.17
0.17
0.17
0.09
0.09
0.09
0.09
0.09
0.09
0.06
0.06
0.06
0.06
0.06
0.06
0.06
0.06
0.06
0.06
0.06
0.06
0.06
0.14
0.15
0.15
0.15
0.14
0.06
0.09
0.07
0.07
0.07
0.07
0.07
0.00
0.00
0.07
0.07
0.07
0.00
0.00
0.00
0.00
0.00
0.00
0.00
0.00
0.00
0.00
0.00
0.07
0.14
0.06
0.41
0.65
0.71
0.68
0.68
0.73
0.68
0.38
0.07
0.06
0.32
0.36
0.31
0.31
0.31
0.31
0.31
0.31
0.32
0.32
0.17
0.17
0.09
0.09
0.09
0.06
0.14
0.06
0.06
0.06
0.06
0.06
0.06
0.06
0.06
0.06
0.06
0.14
0.14
0.06
0.06
0.06
0.06
0.06
0.06
0.06
0.06
0.06
0.09
0.09
0.09
0.09
0.09
0.09
0.09
0.09
0.09
0.09
0.09
0.06
0.06
0.06
0.09
0.07
0.00
0.00
0.00
0.00
0.00
0.00
0.00
0.00
0.12
0.00
0.00
0.00
0.12
0.12
0.12
0.12
0.12
0.12
0.12
0.12
0.12
0.00
0.00
0.06
0.06
0.51
0.72
0.71
0.80
0.73
0.73
0.68
0.51
0.00
0.14
0.09
0.17
0.17
0.17
0.17
0.17
0.17
0.17
0.09
0.09
0.09
0.09
0.06
0.06
0.06
0.15
0.14
0.14
0.06
0.06
0.09
0.09
0.09
0.09
0.06
0.06
0.06
0.06
0.06
0.06
0.06
0.06
0.06
0.06
0.06
0.09
0.09
0.09
0.09
0.09
0.09
0.09
0.09
0.09
0.09
0.09
0.09
0.09
0.09
0.09
0.06
0.06
0.06
0.06
0.09
0.00
0.00
0.00
0.00
0.00
0.00
0.00
0.00
0.00
0.00
0.00
0.12
0.12
0.12
0.12
0.12
0.12
0.12
0.19
0.19
0.19
0.19
0.19
0.00
0.00
0.63
0.73
0.69
0.80
0.83
0.70
0.71
0.63
0.19
0.00
0.09
0.14
0.15
0.06
0.06
0.06
0.06
0.06
0.09
0.09
0.07
0.07
0.00
0.00
0.00
0.00
0.00
0.12
0.12
0.19
0.19
0.19
0.19
0.12
0.12
0.12
0.12
0.12
0.12
0.12
0.12
0.12
0.12
0.12
0.12
0.19
0.19
0.19
0.19
0.19
0.19
0.19
0.19
0.19
0.19
0.19
0.12
0.12
0.00
0.00
0.00
0.00
0.00
0.19
0.19
0.31
0.31
0.19
0.19
0.31
0.31
0.31
0.19
0.19
0.31
0.31
0.31
0.31
0.31
0.19
0.19
0.19
0.19
0.19
0.19
0.00
0.09
0.00
0.64
0.74
0.69
0.87
0.80
0.73
0.68
0.51
0.00
0.06
0.06
0.17
0.17
0.17
0.17
0.17
0.17
0.17
0.17
0.17
0.17
0.09
0.09
0.06
0.06
0.06
0.06
0.15
0.15
0.15
0.06
0.06
0.06
0.06
0.06
0.06
0.06
0.06
0.06
0.06
0.06
0.06
0.06
0.06
0.06
0.15
0.15
0.15
0.15
0.15
0.14
0.15
0.06
0.14
0.14
0.14
0.14
0.14
0.14
0.14
0.06
0.06
0.06
0.15
0.06
0.07
0.07
0.07
0.07
0.07
0.07
0.07
0.07
0.07
0.07
0.07
0.07
0.07
0.07
0.07
0.07
0.07
0.07
0.07
0.09
0.09
0.09
0.14
0.17
0.14
0.51
0.72
0.70
0.69
0.69
0.75
0.66
0.38
0.14
0.17
0.31
0.58
0.58
0.58
0.58
0.58
0.58
0.46
0.46
0.31
0.31
0.36
0.36
0.32
0.17
0.09
0.09
0.09
0.09
0.09
0.09
0.09
0.09
0.09
0.09
0.17
0.17
0.17
0.17
0.17
0.09
0.09
0.09
0.09
0.09
0.09
0.06
0.06
0.06
0.06
0.06
0.15
0.15
0.06
0.06
0.15
0.14
0.15
0.15
0.14
0.14
0.14
0.14
0.14
0.09
0.07
0.07
0.07
0.07
0.07
0.07
0.00
0.00
0.00
0.00
0.00
0.00
0.00
0.00
0.00
0.00
0.00
0.00
0.00
0.00
0.00
0.00
0.07
0.06
0.06
0.51
0.71
0.73
0.68
0.69
0.76
0.65
0.41
0.06
0.17
0.36
0.31
0.46
0.46
0.31
0.31
0.31
0.31
0.36
0.32
0.17
0.09
0.09
0.06
0.06
0.06
0.06
0.14
0.15
0.06
0.06
0.06
0.06
0.06
0.06
0.06
0.06
0.06
0.06
0.06
0.06
0.06
0.06
0.06
0.06
0.06
0.09
0.09
0.09
0.09
0.09
0.09
0.09
0.09
0.09
0.09
0.09
0.09
0.09
0.06
0.06
0.09
0.09
0.07
0.00
0.00
0.00
0.00
0.00
0.00
0.00
0.00
0.12
0.00
0.00
0.00
0.12
0.12
0.12
0.12
0.12
0.12
0.12
0.12
0.12
0.12
0.00
0.09
0.09
0.38
0.68
0.73
0.73
0.73
0.71
0.71
0.61
0.00
0.06
0.06
0.17
0.17
0.32
0.17
0.17
0.09
0.09
0.09
0.06
0.06
0.06
0.15
0.15
0.06
0.06
0.06
0.06
0.06
0.09
0.09
0.06
0.06
0.06
0.06
0.06
0.09
0.09
0.09
0.09
0.09
0.09
0.09
0.09
0.09
0.07
0.07
0.09
0.09
0.09
0.09
0.09
0.09
0.09
0.09
0.09
0.09
0.07
0.07
0.09
0.09
0.09
0.09
0.07
0.07
0.00
0.00
0.00
0.12
0.12
0.00
0.00
0.12
0.00
0.00
0.12
0.12
0.12
0.12
0.12
0.12
0.12
0.12
0.12
0.12
0.00
0.00
0.07
0.14
0.09
0.54
0.72
0.70
0.69
0.68
0.76
0.66
0.46
0.00
0.14
0.09
0.32
0.32
0.32
0.32
0.17
0.17
0.17
0.09
0.09
0.06
0.15
0.14
0.09
0.09
0.07
0.00
0.00
0.00
0.12
0.12
0.12
0.12
0.00
0.00
0.00
0.00
0.00
0.00
0.00
0.00
0.12
0.12
0.12
0.12
0.12
0.12
0.19
0.19
0.19
0.19
0.19
0.19
0.19
0.19
0.19
0.31
0.19
0.12
0.12
0.12
0.19
0.19
0.31
0.41
0.38
0.38
0.38
0.38
0.38
0.38
0.38
0.38
0.46
0.46
0.38
0.38
0.46
0.46
0.46
0.46
0.46
0.46
0.38
0.38
0.46
0.38
0.31
0.31
0.64
0.73
0.69
0.90
0.90
0.73
0.76
0.65
0.38
0.12
0.00
0.09
0.09
0.09
0.09
0.09
0.09
0.07
0.07
0.07
0.07
0.00
0.00
0.00
0.00
0.00
0.00
0.00
0.00
0.00
0.00
0.00
0.00
0.00
0.00
0.07
0.07
0.07
0.09
0.09
0.09
0.09
0.09
0.09
0.09
0.09
0.09
0.09
0.09
0.09
0.09
0.09
0.06
0.06
0.06
0.06
0.06
0.09
0.09
0.09
0.06
0.06
0.14
0.06
0.09
0.07
0.07
0.00
0.00
0.07
0.07
0.07
0.07
0.00
0.00
0.07
0.07
0.00
0.00
0.00
0.07
0.00
0.00
0.07
0.07
0.07
0.07
0.06
0.09
0.14
0.54
0.73
0.70
0.69
0.68
0.76
0.63
0.38
0.14
0.06
0.36
0.31
0.46
0.46
0.46
0.46
0.46
0.31
0.31
0.31
0.36
0.17
0.17
0.09
0.09
0.09
0.06
0.06
0.06
0.06
0.06
0.00
0.00
0.12
0.19
0.31
0.31
0.31
0.31
0.19
0.19
0.19
0.12
0.00
0.00
0.00
0.00
0.00
0.00
0.00
0.00
0.00
0.00
0.07
0.07
0.07
0.09
0.09
0.09
0.07
0.00
0.00
0.00
0.12
0.00
0.00
0.00
0.00
0.07
0.00
0.00
0.00
0.00
0.00
0.00
0.00
0.00
0.07
0.09
0.09
0.09
0.07
0.07
0.07
0.00
0.00
0.00
0.09
0.06
0.15
0.00
0.46
0.66
0.76
0.91
0.92
0.92
0.76
0.14
0.93
0.89
0.83
0.79
0.79
0.79
0.79
0.79
0.79
0.79
0.79
0.77
0.65
0.46
0.32
0.09
0.14
0.09
0.00
0.00
0.00
0.00
0.12
0.31
0.31
0.41
0.41
0.41
0.38
0.38
0.41
0.41
0.41
0.38
0.31
0.12
0.00
0.00
0.00
0.00
0.00
0.00
0.31
0.61
0.66
0.63
0.74
0.70
0.69
0.71
0.69
0.77
0.92
0.92
0.86
0.74
0.67
0.41
0.09
0.79
0.94
0.99
1.00
1.00
1.00
1.00
1.00
1.00
0.99
0.99
0.99
0.99
0.98
0.96
0.95
0.94
0.93
0.93
0.93
0.90
0.90
0.89
0.85
0.84
0.79
0.79
0.74
0.58
0.31
0.32
0.06
0.15
0.06
0.07
0.00
0.00
0.00
0.00
0.00
0.00
0.12
0.12
0.12
0.19
0.31
0.31
0.19
0.19
0.31
0.31
0.31
0.31
0.31
0.31
0.31
0.38
0.38
0.41
0.41
0.41
0.41
0.41
0.41
0.41
0.38
0.38
0.38
0.38
0.38
0.38
0.38
0.38
0.38
0.38
0.38
0.38
0.38
0.38
0.38
0.46
0.46
0.46
0.51
0.54
0.61
0.64
0.64
0.64
0.63
0.58
0.51
0.46
0.38
0.46
0.51
0.51
0.51
0.46
0.38
0.38
0.38
0.31
0.19
0.19
0.19
0.19
0.12
0.12
0.19
0.00
0.00
0.00
0.00
0.46
0.66
0.74
0.68
0.92
0.92
0.90
0.63
0.65
0.85
0.83
0.74
0.69
0.74
0.77
0.79
0.77
0.77
0.74
0.69
0.65
0.46
0.36
0.09
0.06
0.06
0.07
0.00
0.00
0.00
0.00
0.12
0.12
0.19
0.31
0.31
0.31
0.38
0.41
0.41
0.41
0.41
0.41
0.38
0.31
0.19
0.12
0.00
0.00
0.00
0.00
0.00
0.07
0.09
0.06
0.14
0.15
0.06
0.06
0.09
0.06
0.14
0.14
0.06
0.06
0.15
0.14
0.09
0.00
0.00
0.00
0.00
0.00
0.00
0.00
0.00
0.00
0.00
0.00
0.00
0.00
0.00
0.00
0.00
0.00
0.00
0.00
0.00
0.00
0.00
0.07
0.06
0.09
0.63
0.74
0.71
0.73
0.68
0.76
0.65
0.41
0.09
0.06
0.32
0.31
0.31
0.31
0.31
0.31
0.31
0.31
0.36
0.32
0.17
0.17
0.09
0.09
0.09
0.06
0.06
0.06
0.06
0.06
0.06
0.06
0.06
0.06
0.06
0.06
0.09
0.09
0.09
0.09
0.09
0.06
0.06
0.06
0.06
0.06
0.06
0.06
0.06
0.15
0.14
0.14
0.06
0.06
0.06
0.06
0.06
0.06
0.06
0.09
0.09
0.06
0.06
0.06
0.06
0.09
0.07
0.00
0.00
0.00
0.00
0.00
0.00
0.00
0.00
0.00
0.00
0.00
0.00
0.00
0.00
0.00
0.00
0.00
0.00
0.00
0.00
0.00
0.00
0.14
0.09
0.07
0.65
0.74
0.71
0.68
0.70
0.73
0.64
0.12
0.14
0.17
0.31
0.46
0.46
0.46
0.31
0.31
0.31
0.31
0.36
0.32
0.17
0.17
0.09
0.09
0.09
0.06
0.06
0.06
0.06
0.06
0.06
0.06
0.06
0.06
0.06
0.06
0.06
0.09
0.09
0.09
0.09
0.09
0.09
0.06
0.14
0.14
0.06
0.06
0.06
0.06
0.06
0.06
0.06
0.06
0.06
0.09
0.09
0.09
0.09
0.06
0.06
0.06
0.06
0.06
0.07
0.00
0.00
0.00
0.00
0.00
0.00
0.00
0.00
0.00
0.00
0.00
0.00
0.12
0.12
0.12
0.12
0.12
0.12
0.12
0.12
0.12
0.00
0.07
0.06
0.00
0.65
0.74
0.71
0.73
0.68
0.76
0.66
0.38
0.07
0.15
0.17
0.32
0.32
0.32
0.17
0.17
0.17
0.32
0.17
0.09
0.09
0.06
0.06
0.14
0.06
0.06
0.06
0.06
0.09
0.09
0.09
0.06
0.06
0.06
0.06
0.06
0.06
0.06
0.06
0.06
0.06
0.06
0.06
0.09
0.07
0.07
0.07
0.07
0.07
0.00
0.00
0.07
0.07
0.07
0.00
0.00
0.00
0.00
0.00
0.00
0.00
0.00
0.07
0.07
0.07
0.00
0.00
0.00
0.12
0.12
0.12
0.00
0.00
0.12
0.12
0.12
0.12
0.12
0.12
0.12
0.12
0.12
0.12
0.12
0.00
0.00
0.00
0.00
0.00
0.09
0.14
0.38
0.64
0.73
0.69
0.73
0.70
0.73
0.63
0.00
0.14
0.09
0.36
0.31
0.31
0.31
0.31
0.36
0.36
0.32
0.17
0.17
0.09
0.06
0.06
0.06
0.06
0.15
0.15
0.06
0.06
0.06
0.06
0.06
0.06
0.06
0.06
0.06
0.09
0.09
0.09
0.09
0.09
0.06
0.15
0.14
0.06
0.06
0.06
0.06
0.06
0.06
0.06
0.06
0.06
0.09
0.09
0.09
0.09
0.09
0.09
0.09
0.06
0.06
0.06
0.09
0.07
0.00
0.00
0.00
0.00
0.00
0.00
0.00
0.00
0.00
0.00
0.00
0.12
0.12
0.12
0.12
0.12
0.12
0.12
0.12
0.12
0.00
0.00
0.00
0.14
0.00
0.66
0.75
0.68
0.73
0.68
0.76
0.67
0.31
0.09
0.06
0.17
0.32
0.36
0.36
0.31
0.32
0.32
0.17
0.17
0.09
0.09
0.06
0.06
0.06
0.06
0.14
0.06
0.06
0.06
0.06
0.06
0.06
0.15
0.14
0.14
0.14
0.15
0.06
0.06
0.06
0.09
0.09
0.09
0.09
0.07
0.07
0.00
0.00
0.00
0.00
0.00
0.07
0.07
0.00
0.00
0.00
0.00
0.00
0.00
0.00
0.00
0.00
0.00
0.00
0.00
0.00
0.00
0.12
0.19
0.19
0.19
0.19
0.19
0.19
0.19
0.19
0.19
0.19
0.19
0.31
0.19
0.19
0.12
0.12
0.12
0.12
0.12
0.00
0.00
0.15
0.07
0.61
0.74
0.69
0.80
0.69
0.76
0.64
0.38
0.00
0.15
0.09
0.17
0.32
0.32
0.32
0.32
0.32
0.17
0.17
0.17
0.17
0.09
0.09
0.09
0.06
0.06
0.06
0.15
0.06
0.06
0.06
0.06
0.06
0.06
0.06
0.06
0.06
0.06
0.14
0.06
0.06
0.06
0.06
0.06
0.09
0.09
0.07
0.07
0.07
0.00
0.00
0.00
0.00
0.00
0.12
0.12
0.19
0.19
0.19
0.19
0.19
0.12
0.12
0.12
0.19
0.31
0.41
0.38
0.38
0.38
0.38
0.38
0.38
0.38
0.38
0.38
0.38
0.46
0.46
0.46
0.46
0.46
0.46
0.46
0.51
0.46
0.46
0.46
0.38
0.12
0.51
0.68
0.70
0.87
0.91
0.86
0.73
0.70
0.61
0.38
0.00
0.00
0.07
0.07
0.07
0.07
0.00
0.00
0.07
0.07
0.07
0.00
0.00
0.00
0.00
0.12
0.12
0.12
0.19
0.19
0.19
0.19
0.19
0.19
0.12
0.12
0.12
0.12
0.12
0.00
0.00
0.00
0.00
0.12
0.00
0.00
0.12
0.00
0.00
0.00
0.00
0.00
0.00
0.00
0.00
0.00
0.00
0.00
0.00
0.00
0.00
0.00
0.07
0.07
0.07
0.00
0.00
0.00
0.12
0.12
0.12
0.12
0.12
0.12
0.12
0.00
0.00
0.00
0.00
0.00
0.00
0.00
0.00
0.00
0.00
0.00
0.00
0.00
0.00
0.14
0.14
0.38
0.68
0.73
0.71
0.73
0.73
0.69
0.54
0.00
0.06
0.36
0.46
0.46
0.46
0.46
0.46
0.46
0.46
0.46
0.31
0.31
0.31
0.36
0.17
0.17
0.17
0.09
0.09
0.09
0.09
0.09
0.09
0.09
0.09
0.09
0.09
0.09
0.09
0.17
0.09
0.09
0.09
0.09
0.06
0.06
0.06
0.06
0.06
0.06
0.06
0.06
0.06
0.06
0.06
0.15
0.14
0.06
0.06
0.06
0.06
0.06
0.14
0.15
0.06
0.15
0.06
0.07
0.07
0.07
0.07
0.07
0.07
0.00
0.00
0.00
0.00
0.07
0.07
0.00
0.00
0.00
0.00
0.00
0.00
0.00
0.00
0.00
0.00
0.00
0.06
0.15
0.00
0.65
0.76
0.69
0.73
0.71
0.74
0.66
0.19
0.06
0.09
0.32
0.31
0.31
0.31
0.31
0.36
0.36
0.36
0.17
0.17
0.17
0.09
0.09
0.09
0.09
0.09
0.09
0.09
0.06
0.06
0.06
0.06
0.06
0.09
0.09
0.09
0.09
0.09
0.09
0.09
0.06
0.06
0.06
0.06
0.06
0.15
0.15
0.06
0.06
0.06
0.06
0.06
0.15
0.14
0.06
0.15
0.15
0.14
0.06
0.14
0.06
0.06
0.06
0.15
0.06
0.09
0.07
0.07
0.07
0.07
0.07
0.07
0.07
0.07
0.07
0.00
0.00
0.07
0.07
0.07
0.00
0.00
0.07
0.07
0.07
0.07
0.07
0.07
0.06
0.06
0.09
0.63
0.74
0.71
0.71
0.69
0.75
0.67
0.31
0.06
0.06
0.32
0.31
0.31
0.31
0.31
0.31
0.31
0.31
0.31
0.31
0.32
0.17
0.17
0.17
0.09
0.09
0.09
0.09
0.06
0.06
0.06
0.06
0.09
0.09
0.09
0.09
0.09
0.09
0.09
0.09
0.09
0.09
0.09
0.09
0.09
0.09
0.06
0.06
0.06
0.06
0.06
0.06
0.15
0.15
0.15
0.15
0.15
0.14
0.06
0.06
0.14
0.14
0.14
0.15
0.06
0.09
0.07
0.00
0.00
0.00
0.00
0.00
0.12
0.12
0.19
0.31
0.31
0.38
0.41
0.41
0.38
0.38
0.38
0.38
0.38
0.38
0.41
0.41
0.31
0.00
0.38
0.65
0.76
0.77
0.90
0.87
0.70
0.69
0.58
0.19
0.00
0.07
0.09
0.09
0.09
0.09
0.09
0.09
0.07
0.07
0.07
0.00
0.00
0.00
0.00
0.00
0.12
0.12
0.19
0.19
0.19
0.19
0.19
0.19
0.19
0.12
0.12
0.12
0.12
0.12
0.12
0.12
0.12
0.12
0.12
0.12
0.12
0.19
0.12
0.12
0.19
0.19
0.19
0.19
0.12
0.12
0.19
0.19
0.19
0.19
0.12
0.00
0.00
0.00
0.00
0.00
0.19
0.31
0.31
0.31
0.31
0.31
0.31
0.31
0.31
0.31
0.31
0.31
0.31
0.31
0.19
0.19
0.19
0.19
0.19
0.19
0.19
0.12
0.00
0.09
0.14
0.38
0.70
0.70
0.77
0.80
0.70
0.73
0.63
0.00
0.14
0.09
0.36
0.31
0.31
0.31
0.31
0.36
0.36
0.31
0.31
0.36
0.32
0.32
0.17
0.17
0.17
0.09
0.09
0.09
0.09
0.09
0.09
0.09
0.09
0.09
0.17
0.09
0.09
0.09
0.09
0.09
0.09
0.06
0.06
0.06
0.06
0.06
0.06
0.06
0.15
0.15
0.06
0.06
0.06
0.14
0.14
0.14
0.06
0.06
0.06
0.06
0.06
0.06
0.14
0.14
0.06
0.09
0.09
0.07
0.00
0.00
0.00
0.07
0.00
0.00
0.00
0.07
0.00
0.00
0.00
0.00
0.00
0.00
0.00
0.00
0.00
0.00
0.00
0.00
0.00
0.14
0.06
0.19
0.63
0.73
0.68
0.73
0.70
0.73
0.61
0.00
0.15
0.17
0.36
0.31
0.46
0.31
0.31
0.31
0.36
0.36
0.31
0.32
0.17
0.17
0.09
0.09
0.09
0.09
0.09
0.09
0.06
0.06
0.06
0.09
0.09
0.09
0.09
0.09
0.09
0.09
0.09
0.09
0.09
0.09
0.06
0.06
0.06
0.06
0.06
0.06
0.06
0.06
0.06
0.06
0.06
0.06
0.06
0.15
0.15
0.15
0.14
0.14
0.15
0.06
0.06
0.06
0.15
0.14
0.06
0.09
0.09
0.09
0.09
0.07
0.07
0.07
0.07
0.07
0.07
0.07
0.07
0.07
0.07
0.07
0.07
0.07
0.07
0.07
0.07
0.07
0.07
0.06
0.17
0.00
0.66
0.76
0.68
0.71
0.71
0.72
0.61
0.00
0.15
0.17
0.31
0.46
0.46
0.46
0.31
0.31
0.31
0.36
0.36
0.36
0.32
0.17
0.17
0.17
0.09
0.09
0.09
0.09
0.06
0.06
0.09
0.09
0.09
0.09
0.17
0.17
0.17
0.17
0.17
0.17
0.17
0.17
0.17
0.09
0.09
0.09
0.09
0.06
0.06
0.06
0.06
0.09
0.09
0.06
0.06
0.06
0.06
0.06
0.06
0.15
0.15
0.06
0.06
0.09
0.06
0.15
0.06
0.09
0.09
0.09
0.09
0.09
0.07
0.00
0.00
0.00
0.00
0.00
0.00
0.00
0.00
0.00
0.00
0.00
0.00
0.00
0.00
0.00
0.00
0.06
0.14
0.31
0.65
0.76
0.69
0.69
0.71
0.72
0.61
0.00
0.15
0.17
0.36
0.46
0.31
0.31
0.31
0.31
0.36
0.32
0.17
0.17
0.09
0.09
0.06
0.06
0.15
0.14
0.14
0.14
0.14
0.06
0.06
0.06
0.14
0.14
0.15
0.15
0.06
0.15
0.15
0.15
0.06
0.14
0.06
0.06
0.15
0.06
0.17
0.46
0.69
0.79
0.84
0.91
0.95
0.99
0.99
0.99
1.00
1.00
0.99
0.85
0.09
0.54
0.66
0.67
0.67
0.63
0.64
0.64
0.64
0.64
0.63
0.63
0.64
0.64
0.63
0.63
0.65
0.65
0.65
0.65
0.67
0.67
0.65
0.65
0.65
0.63
0.61
0.54
0.51
0.38
0.41
0.31
0.19
0.12
0.00
0.00
0.00
0.00
0.00
0.00
0.07
0.07
0.07
0.07
0.07
0.07
0.07
0.07
0.00
0.00
0.07
0.00
0.00
0.00
0.00
0.00
0.00
0.00
0.00
0.00
0.00
0.00
0.00
0.00
0.00
0.00
0.00
0.00
0.00
0.00
0.00
0.00
0.00
0.00
0.00
0.00
0.00
0.00
0.00
0.00
0.00
0.00
0.00
0.00
0.00
0.00
0.00
0.00
0.00
0.00
0.00
0.00
0.07
0.07
0.09
0.06
0.06
0.09
0.07
0.07
0.00
0.00
0.00
0.00
0.00
0.00
0.00
0.00
0.00
0.00
0.00
0.00
0.00
0.00
0.00
0.00
0.00
0.00
0.00
0.00
0.09
0.09
0.38
0.64
0.73
0.71
0.80
0.69
0.74
0.65
0.41
0.00
0.09
0.06
0.14
0.14
0.14
0.14
0.14
0.06
0.06
0.06
0.09
0.07
0.07
0.00
0.00
0.00
0.12
0.12
0.19
0.19
0.19
0.19
0.12
0.12
0.00
0.00
0.00
0.00
0.00
0.07
0.07
0.00
0.00
0.07
0.07
0.00
0.00
0.00
0.00
0.00
0.00
0.00
0.00
0.12
0.00
0.00
0.12
0.00
0.00
0.00
0.00
0.00
0.00
0.00
0.00
0.00
0.12
0.19
0.19
0.31
0.31
0.19
0.38
0.38
0.31
0.31
0.31
0.38
0.38
0.41
0.38
0.38
0.31
0.31
0.31
0.31
0.31
0.19
0.12
0.00
0.07
0.38
0.65
0.73
0.77
0.87
0.68
0.75
0.65
0.38
0.09
0.06
0.09
0.17
0.17
0.17
0.17
0.17
0.17
0.17
0.09
0.09
0.09
0.09
0.06
0.06
0.06
0.06
0.06
0.06
0.06
0.06
0.06
0.06
0.06
0.06
0.06
0.06
0.06
0.09
0.06
0.06
0.06
0.15
0.15
0.06
0.06
0.15
0.14
0.06
0.06
0.06
0.06
0.06
0.06
0.06
0.06
0.06
0.06
0.06
0.09
0.09
0.09
0.09
0.09
0.06
0.06
0.09
0.07
0.00
0.00
0.00
0.00
0.00
0.00
0.00
0.00
0.00
0.00
0.00
0.00
0.00
0.00
0.00
0.00
0.00
0.00
0.00
0.00
0.00
0.00
0.07
0.15
0.09
0.58
0.73
0.71
0.71
0.69
0.76
0.65
0.31
0.09
0.06
0.17
0.36
0.31
0.31
0.31
0.36
0.36
0.32
0.17
0.17
0.17
0.09
0.09
0.06
0.06
0.06
0.15
0.15
0.15
0.15
0.06
0.06
0.06
0.06
0.09
0.09
0.09
0.09
0.06
0.06
0.09
0.06
0.06
0.15
0.15
0.15
0.14
0.15
0.06
0.06
0.06
0.06
0.06
0.06
0.06
0.06
0.06
0.09
0.09
0.06
0.06
0.14
0.15
0.14
0.06
0.09
0.07
0.00
0.00
0.00
0.00
0.00
0.00
0.00
0.00
0.00
0.00
0.00
0.00
0.00
0.00
0.00
0.00
0.00
0.00
0.00
0.00
0.00
0.07
0.15
0.09
0.61
0.74
0.69
0.77
0.69
0.76
0.64
0.41
0.09
0.06
0.17
0.36
0.31
0.31
0.31
0.31
0.31
0.32
0.32
0.17
0.17
0.09
0.09
0.06
0.06
0.06
0.06
0.15
0.15
0.15
0.06
0.06
0.06
0.06
0.15
0.15
0.06
0.06
0.06
0.06
0.06
0.06
0.06
0.06
0.06
0.15
0.15
0.06
0.06
0.14
0.14
0.14
0.14
0.14
0.06
0.06
0.06
0.06
0.06
0.06
0.06
0.06
0.14
0.14
0.14
0.09
0.07
0.00
0.00
0.00
0.00
0.00
0.00
0.00
0.00
0.00
0.00
0.19
0.19
0.31
0.31
0.31
0.31
0.31
0.31
0.31
0.38
0.38
0.38
0.00
0.00
0.51
0.69
0.70
0.83
0.90
0.69
0.76
0.65
0.38
0.12
0.07
0.09
0.09
0.06
0.09
0.09
0.09
0.09
0.09
0.09
0.07
0.07
0.00
0.00
0.00
0.00
0.00
0.00
0.00
0.00
0.00
0.00
0.00
0.00
0.07
0.07
0.07
0.07
0.07
0.07
0.07
0.07
0.07
0.07
0.07
0.07
0.07
0.00
0.00
0.00
0.00
0.00
0.07
0.00
0.00
0.07
0.00
0.00
0.00
0.00
0.07
0.07
0.07
0.00
0.00
0.00
0.12
0.12
0.12
0.12
0.00
0.00
0.12
0.12
0.12
0.12
0.12
0.12
0.12
0.12
0.12
0.12
0.12
0.12
0.12
0.12
0.00
0.00
0.09
0.06
0.41
0.65
0.73
0.73
0.80
0.71
0.73
0.64
0.19
0.06
0.09
0.17
0.36
0.36
0.36
0.36
0.36
0.32
0.17
0.17
0.17
0.09
0.09
0.09
0.09
0.09
0.06
0.06
0.06
0.06
0.06
0.06
0.06
0.06
0.06
0.06
0.06
0.06
0.06
0.06
0.09
0.06
0.06
0.06
0.06
0.06
0.06
0.14
0.14
0.06
0.06
0.14
0.14
0.14
0.14
0.14
0.14
0.06
0.06
0.06
0.14
0.06
0.06
0.15
0.14
0.06
0.07
0.07
0.07
0.00
0.00
0.07
0.00
0.00
0.00
0.00
0.07
0.00
0.00
0.00
0.00
0.00
0.00
0.00
0.00
0.00
0.00
0.00
0.00
0.06
0.09
0.07
0.65
0.75
0.69
0.73
0.69
0.74
0.66
0.31
0.06
0.09
0.32
0.31
0.46
0.46
0.46
0.31
0.36
0.36
0.36
0.17
0.17
0.17
0.17
0.17
0.09
0.09
0.09
0.09
0.09
0.09
0.09
0.09
0.09
0.09
0.09
0.09
0.09
0.09
0.09
0.09
0.09
0.09
0.09
0.06
0.06
0.06
0.06
0.06
0.06
0.06
0.06
0.06
0.15
0.15
0.06
0.06
0.06
0.06
0.15
0.15
0.15
0.09
0.06
0.06
0.15
0.06
0.09
0.09
0.09
0.07
0.07
0.07
0.07
0.07
0.07
0.07
0.07
0.07
0.07
0.00
0.00
0.07
0.07
0.07
0.07
0.07
0.07
0.07
0.14
0.06
0.07
0.64
0.74
0.71
0.68
0.69
0.75
0.65
0.19
0.06
0.06
0.32
0.31
0.31
0.31
0.31
0.31
0.36
0.36
0.32
0.17
0.17
0.09
0.09
0.09
0.06
0.06
0.06
0.06
0.06
0.14
0.14
0.14
0.14
0.15
0.15
0.15
0.06
0.06
0.06
0.06
0.06
0.06
0.06
0.06
0.06
0.15
0.14
0.06
0.06
0.06
0.06
0.06
0.06
0.06
0.06
0.09
0.09
0.07
0.07
0.09
0.09
0.09
0.09
0.09
0.07
0.00
0.00
0.00
0.00
0.00
0.00
0.00
0.12
0.12
0.12
0.12
0.12
0.12
0.12
0.12
0.12
0.12
0.00
0.00
0.00
0.00
0.00
0.00
0.09
0.06
0.38
0.63
0.74
0.69
0.77
0.71
0.74
0.65
0.12
0.06
0.06
0.17
0.32
0.32
0.17
0.17
0.17
0.17
0.09
0.09
0.06
0.06
0.06
0.14
0.14
0.06
0.06
0.09
0.09
0.09
0.09
0.09
0.09
0.09
0.06
0.06
0.06
0.06
0.14
0.06
0.06
0.06
0.06
0.06
0.09
0.09
0.09
0.09
0.09
0.09
0.09
0.09
0.09
0.09
0.09
0.09
0.07
0.07
0.07
0.07
0.07
0.07
0.09
0.09
0.09
0.07
0.00
0.00
0.00
0.00
0.00
0.00
0.00
0.00
0.00
0.00
0.00
0.00
0.00
0.00
0.00
0.00
0.00
0.00
0.00
0.00
0.00
0.00
0.00
0.09
0.15
0.19
0.66
0.76
0.68
0.77
0.69
0.74
0.66
0.12
0.06
0.15
0.09
0.17
0.17
0.17
0.17
0.17
0.09
0.09
0.06
0.06
0.15
0.06
0.06
0.09
0.07
0.00
0.00
0.12
0.12
0.12
0.19
0.12
0.12
0.19
0.19
0.12
0.12
0.19
0.12
0.12
0.19
0.19
0.19
0.19
0.19
0.19
0.31
0.31
0.31
0.31
0.31
0.31
0.19
0.19
0.31
0.31
0.31
0.31
0.31
0.31
0.19
0.19
0.19
0.31
0.41
0.38
0.38
0.38
0.46
0.38
0.38
0.38
0.38
0.38
0.38
0.38
0.38
0.38
0.38
0.38
0.38
0.38
0.38
0.38
0.41
0.41
0.38
0.19
0.00
0.19
0.67
0.76
0.77
0.89
0.86
0.73
0.68
0.51
0.00
0.09
0.15
0.06
0.09
0.09
0.09
0.09
0.09
0.06
0.06
0.06
0.06
0.06
0.06
0.14
0.06
0.06
0.06
0.06
0.06
0.06
0.06
0.06
0.06
0.06
0.06
0.14
0.06
0.06
0.15
0.15
0.15
0.15
0.06
0.15
0.06
0.06
0.06
0.06
0.06
0.06
0.06
0.06
0.06
0.06
0.06
0.06
0.06
0.06
0.06
0.06
0.14
0.14
0.14
0.14
0.09
0.07
0.00
0.00
0.00
0.00
0.00
0.00
0.00
0.00
0.00
0.00
0.00
0.00
0.00
0.00
0.00
0.00
0.00
0.07
0.07
0.07
0.07
0.07
0.14
0.32
0.00
0.67
0.74
0.68
0.77
0.70
0.73
0.63
0.12
0.15
0.17
0.31
0.46
0.58
0.46
0.46
0.46
0.46
0.46
0.46
0.46
0.31
0.31
0.36
0.32
0.17
0.17
0.09
0.09
0.09
0.09
0.09
0.09
0.09
0.09
0.09
0.17
0.17
0.09
0.09
0.09
0.09
0.09
0.09
0.09
0.09
0.06
0.06
0.06
0.06
0.06
0.06
0.06
0.06
0.14
0.14
0.15
0.06
0.14
0.14
0.14
0.15
0.15
0.15
0.06
0.15
0.14
0.09
0.07
0.07
0.07
0.07
0.07
0.00
0.00
0.07
0.07
0.07
0.00
0.00
0.00
0.00
0.00
0.00
0.00
0.00
0.00
0.07
0.07
0.07
0.06
0.09
0.19
0.66
0.76
0.69
0.68
0.73
0.69
0.58
0.00
0.06
0.36
0.46
0.46
0.46
0.46
0.46
0.46
0.31
0.31
0.31
0.36
0.17
0.17
0.09
0.09
0.09
0.06
0.06
0.06
0.06
0.06
0.06
0.06
0.06
0.06
0.06
0.06
0.06
0.06
0.09
0.09
0.06
0.06
0.06
0.06
0.06
0.06
0.06
0.06
0.15
0.14
0.15
0.15
0.15
0.14
0.06
0.06
0.06
0.06
0.14
0.14
0.14
0.15
0.14
0.06
0.09
0.07
0.00
0.00
0.00
0.00
0.00
0.00
0.00
0.00
0.00
0.00
0.00
0.00
0.00
0.00
0.00
0.00
0.00
0.00
0.00
0.00
0.00
0.07
0.15
0.07
0.64
0.74
0.71
0.77
0.68
0.76
0.63
0.38
0.09
0.15
0.17
0.32
0.32
0.36
0.17
0.17
0.17
0.17
0.09
0.09
0.06
0.06
0.15
0.14
0.06
0.06
0.06
0.06
0.09
0.09
0.09
0.06
0.06
0.06
0.06
0.14
0.14
0.15
0.06
0.06
0.15
0.15
0.15
0.06
0.06
0.14
0.06
0.06
0.06
0.06
0.06
0.06
0.06
0.06
0.06
0.09
0.09
0.09
0.07
0.07
0.07
0.09
0.09
0.09
0.07
0.00
0.00
0.00
0.12
0.12
0.12
0.12
0.12
0.12
0.12
0.00
0.00
0.00
0.00
0.00
0.00
0.00
0.00
0.00
0.00
0.00
0.00
0.00
0.07
0.14
0.07
0.61
0.73
0.71
0.71
0.69
0.76
0.65
0.41
0.09
0.09
0.32
0.31
0.46
0.31
0.31
0.31
0.31
0.31
0.36
0.17
0.17
0.17
0.09
0.06
0.06
0.06
0.06
0.06
0.06
0.06
0.06
0.06
0.06
0.06
0.06
0.06
0.06
0.06
0.06
0.06
0.15
0.14
0.14
0.06
0.06
0.06
0.06
0.06
0.09
0.09
0.06
0.06
0.06
0.06
0.09
0.09
0.09
0.09
0.09
0.09
0.06
0.06
0.06
0.09
0.07
0.00
0.00
0.00
0.00
0.00
0.00
0.00
0.00
0.00
0.00
0.12
0.12
0.00
0.00
0.12
0.12
0.12
0.12
0.12
0.00
0.00
0.12
0.00
0.09
0.06
0.41
0.64
0.74
0.69
0.73
0.71
0.74
0.65
0.12
0.06
0.09
0.32
0.36
0.36
0.36
0.32
0.32
0.17
0.17
0.17
0.09
0.09
0.06
0.06
0.06
0.14
0.06
0.06
0.06
0.06
0.06
0.06
0.06
0.06
0.06
0.14
0.15
0.06
0.14
0.06
0.06
0.06
0.06
0.09
0.09
0.09
0.09
0.09
0.09
0.07
0.07
0.07
0.07
0.07
0.07
0.07
0.00
0.00
0.00
0.00
0.07
0.07
0.07
0.07
0.07
0.00
0.00
0.12
0.19
0.19
0.19
0.19
0.19
0.19
0.19
0.19
0.19
0.19
0.19
0.19
0.31
0.31
0.19
0.19
0.12
0.12
0.12
0.12
0.00
0.07
0.09
0.41
0.63
0.73
0.73
0.83
0.69
0.74
0.66
0.19
0.09
0.06
0.17
0.17
0.17
0.17
0.17
0.17
0.17
0.17
0.17
0.09
0.09
0.06
0.06
0.06
0.15
0.15
0.15
0.14
0.15
0.15
0.15
0.06
0.06
0.14
0.14
0.15
0.06
0.06
0.06
0.15
0.14
0.06
0.06
0.09
0.09
0.09
0.09
0.09
0.09
0.09
0.09
0.09
0.09
0.09
0.09
0.09
0.09
0.09
0.09
0.09
0.09
0.07
0.07
0.07
0.07
0.00
0.00
0.12
0.12
0.12
0.12
0.00
0.00
0.00
0.00
0.00
0.00
0.00
0.00
0.00
0.00
0.00
0.00
0.00
0.00
0.00
0.00
0.00
0.09
0.14
0.19
0.67
0.76
0.68
0.77
0.69
0.74
0.65
0.12
0.06
0.09
0.32
0.36
0.31
0.31
0.31
0.36
0.17
0.17
0.17
0.17
0.09
0.09
0.06
0.15
0.14
0.14
0.14
0.14
0.14
0.06
0.06
0.06
0.06
0.14
0.14
0.06
0.15
0.15
0.15
0.15
0.15
0.14
0.14
0.06
0.06
0.06
0.06
0.06
0.06
0.06
0.06
0.09
0.09
0.07
0.07
0.07
0.07
0.07
0.07
0.07
0.07
0.09
0.07
0.07
0.00
0.00
0.00
0.12
0.12
0.12
0.12
0.12
0.12
0.12
0.12
0.12
0.12
0.12
0.12
0.12
0.12
0.12
0.12
0.00
0.00
0.12
0.12
0.00
0.07
0.15
0.19
0.64
0.73
0.77
0.86
0.69
0.74
0.66
0.19
0.09
0.15
0.09
0.17
0.17
0.17
0.17
0.17
0.09
0.09
0.09
0.09
0.06
0.06
0.06
0.06
0.06
0.15
0.14
0.06
0.06
0.06
0.06
0.14
0.14
0.14
0.15
0.15
0.15
0.06
0.15
0.14
0.15
0.14
0.14
0.06
0.06
0.06
0.06
0.06
0.06
0.06
0.06
0.06
0.06
0.06
0.06
0.06
0.06
0.09
0.09
0.06
0.06
0.09
0.09
0.07
0.00
0.00
0.12
0.12
0.12
0.12
0.00
0.00
0.12
0.12
0.12
0.12
0.12
0.19
0.19
0.19
0.19
0.19
0.31
0.38
0.38
0.41
0.41
0.41
0.19
0.00
0.51
0.68
0.71
0.83
0.90
0.77
0.73
0.66
0.54
0.31
0.00
0.00
0.07
0.07
0.07
0.07
0.00
0.00
0.00
0.00
0.00
0.00
0.00
0.00
0.12
0.12
0.12
0.19
0.19
0.19
0.19
0.19
0.19
0.12
0.12
0.12
0.19
0.12
0.12
0.12
0.12
0.12
0.12
0.19
0.19
0.19
0.19
0.19
0.19
0.19
0.19
0.19
0.19
0.19
0.19
0.19
0.19
0.19
0.19
0.12
0.12
0.00
0.00
0.00
0.00
0.12
0.19
0.31
0.31
0.31
0.31
0.31
0.31
0.31
0.31
0.31
0.31
0.31
0.31
0.31
0.31
0.31
0.31
0.31
0.19
0.19
0.19
0.19
0.00
0.09
0.00
0.65
0.74
0.68
0.87
0.80
0.71
0.69
0.58
0.12
0.06
0.06
0.09
0.17
0.17
0.17
0.17
0.17
0.17
0.17
0.17
0.17
0.17
0.09
0.06
0.06
0.15
0.15
0.06
0.06
0.06
0.06
0.06
0.06
0.06
0.06
0.06
0.06
0.06
0.06
0.06
0.06
0.15
0.15
0.06
0.15
0.14
0.14
0.14
0.14
0.14
0.14
0.06
0.06
0.06
0.14
0.06
0.06
0.06
0.06
0.06
0.06
0.14
0.15
0.14
0.14
0.09
0.07
0.07
0.07
0.07
0.07
0.09
0.07
0.07
0.07
0.07
0.09
0.07
0.07
0.07
0.07
0.07
0.07
0.07
0.07
0.07
0.07
0.09
0.09
0.09
0.17
0.12
0.63
0.74
0.68
0.69
0.73
0.71
0.58
0.07
0.06
0.36
0.46
0.58
0.58
0.58
0.58
0.46
0.46
0.31
0.31
0.31
0.36
0.32
0.32
0.17
0.17
0.09
0.09
0.09
0.09
0.09
0.06
0.06
0.09
0.09
0.09
0.09
0.09
0.09
0.09
0.09
0.09
0.09
0.09
0.09
0.09
0.09
0.09
0.09
0.09
0.09
0.09
0.09
0.09
0.09
0.09
0.06
0.06
0.06
0.15
0.06
0.14
0.14
0.14
0.06
0.09
0.00
0.00
0.12
0.12
0.12
0.12
0.19
0.19
0.19
0.19
0.19
0.19
0.19
0.31
0.38
0.41
0.38
0.38
0.38
0.38
0.38
0.38
0.38
0.41
0.19
0.12
0.54
0.69
0.70
0.86
0.89
0.71
0.76
0.65
0.38
0.00
0.07
0.06
0.06
0.14
0.14
0.06
0.15
0.14
0.06
0.06
0.06
0.06
0.06
0.09
0.09
0.07
0.07
0.00
0.00
0.00
0.00
0.00
0.00
0.07
0.07
0.07
0.09
0.09
0.09
0.09
0.09
0.09
0.09
0.09
0.07
0.07
0.07
0.00
0.00
0.07
0.07
0.09
0.14
0.09
0.31
0.69
0.79
0.80
0.85
0.93
0.97
1.00
1.00
1.00
1.00
1.00
0.99
0.77
0.31
0.66
0.65
0.63
0.63
0.64
0.64
0.63
0.63
0.63
0.63
0.63
0.63
0.63
0.63
0.66
0.67
0.65
0.65
0.66
0.66
0.66
0.66
0.64
0.61
0.58
0.54
0.51
0.38
0.41
0.38
0.19
0.12
0.00
0.00
0.00
0.07
0.09
0.09
0.09
0.06
0.06
0.06
0.06
0.06
0.06
0.06
0.06
0.06
0.06
0.06
0.06
0.06
0.14
0.06
0.06
0.06
0.06
0.06
0.06
0.06
0.06
0.06
0.06
0.06
0.06
0.06
0.06
0.06
0.06
0.06
0.09
0.09
0.09
0.09
0.09
0.09
0.09
0.06
0.09
0.09
0.09
0.09
0.09
0.06
0.06
0.14
0.15
0.14
0.09
0.09
0.09
0.07
0.07
0.07
0.09
0.09
0.07
0.07
0.09
0.09
0.09
0.09
0.09
0.09
0.09
0.09
0.09
0.09
0.06
0.06
0.14
0.32
0.32
0.38
0.66
0.73
0.69
0.69
0.76
0.65
0.38
0.06
0.36
0.46
0.65
0.69
0.74
0.74
0.69
0.65
0.58
0.58
0.46
0.31
0.32
0.17
0.17
0.09
0.06
0.06
0.15
0.15
0.14
0.06
0.09
0.09
0.06
0.09
0.09
0.06
0.06
0.06
0.06
0.06
0.06
0.09
0.09
0.09
0.07
0.00
0.00
0.00
0.00
0.00
0.00
0.00
0.00
0.00
0.00
0.00
0.00
0.12
0.12
0.19
0.12
0.00
0.00
0.00
0.12
0.19
0.38
0.38
0.38
0.38
0.38
0.38
0.38
0.38
0.38
0.38
0.38
0.46
0.46
0.46
0.46
0.46
0.38
0.38
0.38
0.38
0.38
0.38
0.41
0.19
0.38
0.65
0.73
0.83
0.91
0.90
0.70
0.69
0.58
0.19
0.00
0.07
0.09
0.06
0.06
0.06
0.06
0.06
0.09
0.09
0.09
0.09
0.09
0.07
0.07
0.00
0.00
0.00
0.00
0.00
0.00
0.00
0.00
0.07
0.07
0.07
0.09
0.09
0.09
0.09
0.09
0.09
0.09
0.09
0.09
0.09
0.09
0.09
0.09
0.09
0.09
0.09
0.09
0.09
0.09
0.09
0.09
0.09
0.09
0.09
0.09
0.09
0.06
0.06
0.06
0.07
0.07
0.00
0.00
0.00
0.00
0.00
0.00
0.00
0.00
0.00
0.00
0.00
0.00
0.00
0.00
0.07
0.07
0.00
0.00
0.00
0.07
0.07
0.07
0.15
0.09
0.31
0.63
0.73
0.68
0.77
0.70
0.73
0.63
0.12
0.15
0.32
0.31
0.46
0.46
0.46
0.46
0.46
0.46
0.46
0.31
0.31
0.31
0.31
0.31
0.36
0.17
0.17
0.17
0.17
0.17
0.17
0.09
0.09
0.17
0.17
0.17
0.32
0.17
0.17
0.17
0.17
0.17
0.17
0.17
0.17
0.17
0.09
0.09
0.17
0.09
0.09
0.09
0.09
0.09
0.09
0.09
0.09
0.06
0.06
0.06
0.06
0.06
0.09
0.09
0.06
0.15
0.14
0.06
0.09
0.09
0.09
0.09
0.09
0.07
0.07
0.07
0.07
0.07
0.07
0.07
0.07
0.07
0.07
0.07
0.07
0.07
0.07
0.07
0.07
0.06
0.32
0.15
0.38
0.69
0.73
0.68
0.71
0.75
0.66
0.41
0.14
0.17
0.31
0.46
0.46
0.46
0.46
0.46
0.31
0.31
0.31
0.32
0.17
0.09
0.06
0.15
0.14
0.06
0.09
0.07
0.00
0.00
0.00
0.00
0.00
0.00
0.00
0.00
0.00
0.00
0.00
0.00
0.00
0.00
0.00
0.00
0.12
0.12
0.12
0.12
0.00
0.00
0.12
0.12
0.12
0.12
0.12
0.19
0.19
0.19
0.19
0.19
0.19
0.12
0.12
0.12
0.19
0.31
0.41
0.41
0.38
0.38
0.38
0.38
0.38
0.38
0.38
0.38
0.38
0.38
0.38
0.38
0.38
0.38
0.38
0.38
0.38
0.38
0.38
0.38
0.31
0.00
0.38
0.63
0.76
0.71
0.90
0.80
0.73
0.70
0.54
0.12
0.09
0.14
0.06
0.09
0.09
0.09
0.06
0.06
0.06
0.06
0.06
0.06
0.15
0.14
0.14
0.06
0.06
0.06
0.06
0.09
0.09
0.09
0.09
0.06
0.06
0.06
0.14
0.15
0.06
0.06
0.06
0.06
0.06
0.15
0.14
0.14
0.14
0.06
0.06
0.14
0.14
0.15
0.14
0.06
0.14
0.14
0.06
0.06
0.06
0.06
0.14
0.06
0.06
0.06
0.15
0.09
0.09
0.07
0.07
0.07
0.07
0.07
0.07
0.07
0.07
0.07
0.07
0.00
0.00
0.07
0.00
0.00
0.07
0.07
0.07
0.07
0.07
0.07
0.09
0.06
0.06
0.41
0.65
0.73
0.68
0.71
0.73
0.71
0.58
0.07
0.09
0.36
0.46
0.58
0.58
0.58
0.58
0.46
0.46
0.46
0.46
0.31
0.31
0.31
0.31
0.31
0.17
0.17
0.17
0.17
0.17
0.09
0.09
0.17
0.17
0.17
0.17
0.17
0.17
0.17
0.17
0.17
0.17
0.17
0.17
0.09
0.09
0.09
0.09
0.09
0.09
0.09
0.09
0.09
0.09
0.09
0.06
0.06
0.06
0.06
0.06
0.06
0.09
0.09
0.09
0.06
0.15
0.06
0.06
0.09
0.09
0.09
0.09
0.09
0.09
0.07
0.07
0.07
0.07
0.07
0.07
0.07
0.07
0.07
0.07
0.07
0.07
0.07
0.07
0.07
0.14
0.17
0.06
0.63
0.74
0.71
0.68
0.71
0.74
0.66
0.12
0.15
0.32
0.58
0.58
0.58
0.58
0.58
0.58
0.58
0.46
0.46
0.46
0.31
0.36
0.36
0.17
0.17
0.09
0.09
0.09
0.09
0.09
0.09
0.09
0.09
0.09
0.09
0.09
0.09
0.09
0.09
0.09
0.09
0.09
0.06
0.06
0.06
0.06
0.06
0.06
0.06
0.06
0.06
0.06
0.06
0.15
0.15
0.06
0.15
0.14
0.14
0.15
0.15
0.15
0.06
0.14
0.06
0.09
0.07
0.07
0.07
0.00
0.00
0.00
0.00
0.00
0.00
0.00
0.00
0.00
0.00
0.00
0.00
0.00
0.00
0.00
0.00
0.00
0.00
0.00
0.06
0.09
0.46
0.70
0.71
0.69
0.71
0.73
0.68
0.46
0.07
0.15
0.17
0.31
0.31
0.31
0.31
0.31
0.31
0.32
0.17
0.17
0.09
0.09
0.06
0.06
0.06
0.06
0.14
0.06
0.06
0.06
0.06
0.14
0.14
0.14
0.15
0.06
0.06
0.15
0.15
0.15
0.14
0.06
0.06
0.06
0.06
0.06
0.09
0.09
0.09
0.07
0.07
0.07
0.07
0.07
0.07
0.00
0.00
0.00
0.00
0.00
0.00
0.07
0.07
0.07
0.00
0.00
0.00
0.12
0.12
0.12
0.00
0.00
0.12
0.12
0.12
0.12
0.12
0.12
0.12
0.00
0.00
0.00
0.00
0.00
0.00
0.00
0.00
0.00
0.00
0.14
0.07
0.61
0.74
0.71
0.73
0.69
0.76
0.64
0.41
0.09
0.06
0.32
0.31
0.46
0.46
0.46
0.46
0.46
0.46
0.31
0.36
0.17
0.17
0.17
0.09
0.09
0.06
0.06
0.14
0.06
0.06
0.06
0.06
0.06
0.06
0.06
0.09
0.09
0.09
0.07
0.07
0.07
0.00
0.00
0.00
0.00
0.00
0.00
0.12
0.12
0.12
0.12
0.19
0.19
0.19
0.19
0.19
0.19
0.31
0.31
0.31
0.19
0.19
0.12
0.12
0.19
0.31
0.38
0.41
0.38
0.38
0.41
0.41
0.41
0.41
0.41
0.38
0.31
0.38
0.31
0.31
0.31
0.31
0.31
0.31
0.31
0.31
0.31
0.19
0.00
0.07
0.12
0.65
0.76
0.71
0.89
0.77
0.73
0.66
0.38
0.00
0.09
0.06
0.09
0.09
0.09
0.09
0.09
0.09
0.09
0.09
0.06
0.06
0.06
0.06
0.15
0.14
0.14
0.06
0.06
0.06
0.06
0.06
0.06
0.14
0.06
0.06
0.14
0.15
0.15
0.14
0.14
0.15
0.14
0.06
0.06
0.06
0.06
0.14
0.06
0.06
0.06
0.14
0.06
0.06
0.06
0.06
0.06
0.06
0.06
0.06
0.06
0.06
0.14
0.15
0.14
0.09
0.07
0.00
0.00
0.00
0.00
0.00
0.00
0.00
0.00
0.00
0.00
0.00
0.00
0.00
0.00
0.00
0.00
0.00
0.00
0.00
0.00
0.07
0.07
0.15
0.09
0.31
0.64
0.73
0.68
0.73
0.71
0.69
0.51
0.00
0.06
0.36
0.31
0.46
0.46
0.46
0.46
0.46
0.46
0.31
0.31
0.31
0.32
0.17
0.17
0.17
0.09
0.09
0.09
0.06
0.06
0.06
0.09
0.06
0.06
0.09
0.09
0.09
0.09
0.09
0.09
0.09
0.09
0.09
0.06
0.06
0.06
0.06
0.06
0.06
0.06
0.06
0.06
0.06
0.06
0.06
0.06
0.06
0.06
0.15
0.15
0.15
0.06
0.06
0.06
0.15
0.14
0.09
0.00
0.00
0.00
0.00
0.00
0.00
0.00
0.00
0.00
0.00
0.00
0.00
0.00
0.00
0.00
0.00
0.00
0.00
0.00
0.00
0.00
0.00
0.09
0.06
0.41
0.64
0.73
0.68
0.73
0.71
0.74
0.66
0.31
0.00
0.06
0.15
0.06
0.06
0.15
0.15
0.14
0.06
0.06
0.06
0.09
0.07
0.07
0.00
0.00
0.00
0.00
0.00
0.12
0.12
0.19
0.19
0.19
0.12
0.12
0.12
0.12
0.12
0.12
0.00
0.00
0.00
0.00
0.00
0.00
0.00
0.00
0.12
0.00
0.00
0.00
0.00
0.00
0.00
0.00
0.00
0.00
0.00
0.00
0.00
0.00
0.00
0.00
0.00
0.00
0.12
0.19
0.19
0.19
0.19
0.19
0.19
0.31
0.19
0.19
0.19
0.19
0.19
0.19
0.19
0.19
0.19
0.19
0.19
0.19
0.19
0.19
0.12
0.00
0.06
0.19
0.66
0.76
0.69
0.86
0.68
0.76
0.65
0.41
0.07
0.15
0.32
0.31
0.31
0.31
0.31
0.31
0.31
0.36
0.17
0.17
0.17
0.09
0.09
0.06
0.06
0.06
0.15
0.15
0.06
0.06
0.06
0.15
0.15
0.06
0.06
0.06
0.06
0.06
0.06
0.15
0.15
0.06
0.06
0.06
0.06
0.14
0.14
0.14
0.14
0.14
0.14
0.14
0.15
0.15
0.14
0.15
0.14
0.06
0.06
0.14
0.06
0.06
0.06
0.15
0.14
0.06
0.09
0.09
0.07
0.07
0.07
0.07
0.07
0.07
0.07
0.07
0.07
0.07
0.07
0.07
0.07
0.07
0.07
0.07
0.07
0.00
0.00
0.07
0.09
0.06
0.14
0.46
0.71
0.70
0.71
0.68
0.76
0.65
0.46
0.09
0.06
0.32
0.46
0.46
0.46
0.46
0.31
0.31
0.31
0.31
0.36
0.32
0.17
0.17
0.17
0.17
0.17
0.17
0.09
0.09
0.17
0.17
0.17
0.17
0.17
0.17
0.32
0.36
0.36
0.32
0.17
0.17
0.09
0.09
0.09
0.06
0.06
0.15
0.14
0.06
0.06
0.09
0.09
0.09
0.09
0.07
0.07
0.00
0.00
0.00
0.00
0.00
0.00
0.00
0.00
0.00
0.12
0.12
0.19
0.41
0.41
0.41
0.38
0.38
0.38
0.38
0.38
0.38
0.38
0.38
0.38
0.38
0.38
0.38
0.38
0.38
0.38
0.38
0.38
0.38
0.41
0.19
0.19
0.64
0.74
0.69
0.90
0.90
0.69
0.75
0.65
0.41
0.00
0.00
0.09
0.09
0.09
0.09
0.09
0.09
0.09
0.09
0.07
0.07
0.07
0.07
0.00
0.00
0.00
0.00
0.00
0.12
0.12
0.12
0.00
0.00
0.00
0.00
0.00
0.00
0.00
0.00
0.00
0.00
0.00
0.00
0.00
0.00
0.00
0.00
0.00
0.00
0.00
0.00
0.00
0.00
0.00
0.00
0.00
0.00
0.00
0.00
0.00
0.07
0.07
0.09
0.09
0.07
0.00
0.00
0.00
0.12
0.12
0.12
0.00
0.00
0.00
0.00
0.00
0.00
0.00
0.00
0.00
0.00
0.00
0.00
0.00
0.00
0.00
0.00
0.00
0.09
0.15
0.07
0.64
0.74
0.68
0.77
0.69
0.76
0.63
0.38
0.06
0.09
0.31
0.31
0.46
0.46
0.46
0.46
0.46
0.46
0.31
0.31
0.31
0.36
0.36
0.17
0.17
0.17
0.09
0.09
0.09
0.09
0.09
0.09
0.09
0.09
0.09
0.09
0.17
0.17
0.17
0.17
0.17
0.09
0.09
0.09
0.09
0.09
0.09
0.09
0.09
0.09
0.09
0.09
0.09
0.09
0.09
0.09
0.06
0.06
0.06
0.06
0.06
0.06
0.09
0.09
0.09
0.06
0.14
0.06
0.09
0.09
0.09
0.09
0.09
0.09
0.07
0.07
0.07
0.09
0.07
0.07
0.07
0.07
0.07
0.07
0.07
0.07
0.07
0.07
0.07
0.09
0.09
0.32
0.19
0.65
0.73
0.69
0.69
0.73
0.68
0.38
0.09
0.09
0.31
0.46
0.58
0.58
0.46
0.46
0.46
0.46
0.46
0.31
0.31
0.31
0.32
0.17
0.17
0.17
0.09
0.09
0.09
0.09
0.09
0.09
0.09
0.17
0.17
0.17
0.17
0.17
0.17
0.17
0.17
0.17
0.17
0.17
0.17
0.17
0.17
0.09
0.09
0.09
0.09
0.09
0.09
0.09
0.09
0.06
0.06
0.06
0.06
0.06
0.15
0.15
0.06
0.14
0.06
0.06
0.09
0.07
0.07
0.00
0.00
0.00
0.00
0.00
0.00
0.00
0.00
0.00
0.00
0.00
0.00
0.00
0.00
0.00
0.00
0.00
0.00
0.00
0.00
0.00
0.06
0.15
0.41
0.64
0.73
0.68
0.73
0.73
0.71
0.54
0.00
0.15
0.32
0.36
0.31
0.31
0.31
0.31
0.31
0.36
0.32
0.17
0.17
0.09
0.09
0.09
0.06
0.06
0.06
0.15
0.06
0.06
0.06
0.14
0.14
0.14
0.15
0.06
0.06
0.06
0.06
0.06
0.06
0.14
0.06
0.06
0.06
0.09
0.09
0.09
0.09
0.09
0.09
0.09
0.09
0.09
0.09
0.09
0.07
0.07
0.07
0.07
0.07
0.07
0.07
0.07
0.07
0.07
0.00
0.00
0.00
0.12
0.19
0.19
0.19
0.19
0.19
0.19
0.19
0.19
0.19
0.19
0.19
0.19
0.19
0.19
0.19
0.19
0.19
0.19
0.19
0.00
0.09
0.09
0.51
0.70
0.70
0.77
0.77
0.71
0.71
0.61
0.12
0.14
0.09
0.32
0.31
0.31
0.31
0.31
0.31
0.31
0.36
0.32
0.17
0.17
0.09
0.09
0.09
0.06
0.06
0.06
0.06
0.06
0.09
0.09
0.09
0.09
0.09
0.09
0.09
0.17
0.17
0.17
0.09
0.09
0.06
0.14
0.06
0.06
0.06
0.09
0.09
0.09
0.09
0.09
0.07
0.07
0.07
0.00
0.00
0.00
0.00
0.00
0.12
0.12
0.12
0.12
0.12
0.12
0.19
0.31
0.38
0.38
0.38
0.41
0.41
0.38
0.38
0.38
0.38
0.38
0.38
0.38
0.38
0.38
0.38
0.38
0.38
0.38
0.38
0.38
0.38
0.41
0.12
0.38
0.66
0.75
0.69
0.90
0.90
0.68
0.74
0.65
0.38
0.12
0.00
0.07
0.07
0.07
0.09
0.07
0.07
0.07
0.07
0.07
0.07
0.00
0.00
0.00
0.00
0.12
0.12
0.12
0.12
0.12
0.12
0.12
0.12
0.12
0.12
0.12
0.00
0.00
0.00
0.00
0.00
0.00
0.00
0.00
0.00
0.00
0.00
0.00
0.00
0.00
0.00
0.00
0.00
0.00
0.00
0.00
0.00
0.00
0.00
0.00
0.00
0.00
0.07
0.07
0.00
0.00
0.00
0.12
0.12
0.12
0.12
0.12
0.12
0.12
0.12
0.12
0.12
0.12
0.12
0.12
0.12
0.12
0.12
0.12
0.00
0.00
0.00
0.00
0.07
0.14
0.09
0.54
0.72
0.70
0.77
0.73
0.73
0.70
0.51
0.07
0.15
0.17
0.31
0.31
0.31
0.31
0.31
0.31
0.31
0.31
0.36
0.17
0.17
0.17
0.17
0.17
0.09
0.09
0.09
0.06
0.06
0.06
0.09
0.09
0.09
0.09
0.09
0.09
0.09
0.09
0.09
0.09
0.09
0.09
0.09
0.06
0.06
0.06
0.09
0.06
0.06
0.06
0.06
0.06
0.06
0.06
0.06
0.06
0.06
0.06
0.06
0.06
0.06
0.06
0.06
0.06
0.06
0.14
0.06
0.09
0.09
0.07
0.07
0.09
0.07
0.07
0.07
0.07
0.07
0.07
0.07
0.07
0.07
0.07
0.07
0.07
0.07
0.07
0.07
0.07
0.06
0.09
0.14
0.51
0.72
0.70
0.69
0.69
0.76
0.65
0.38
0.06
0.17
0.46
0.58
0.58
0.58
0.58
0.46
0.46
0.46
0.46
0.31
0.31
0.36
0.32
0.17
0.17
0.09
0.09
0.09
0.09
0.09
0.09
0.09
0.09
0.17
0.17
0.17
0.17
0.17
0.17
0.17
0.17
0.17
0.17
0.09
0.09
0.09
0.09
0.09
0.06
0.06
0.06
0.06
0.06
0.06
0.06
0.06
0.06
0.06
0.06
0.06
0.14
0.15
0.06
0.06
0.06
0.06
0.14
0.09
0.09
0.09
0.07
0.00
0.00
0.07
0.07
0.07
0.07
0.07
0.07
0.07
0.00
0.00
0.00
0.00
0.00
0.00
0.00
0.00
0.00
0.00
0.09
0.15
0.19
0.65
0.76
0.68
0.77
0.71
0.73
0.63
0.00
0.14
0.09
0.36
0.31
0.31
0.31
0.31
0.36
0.36
0.36
0.32
0.17
0.17
0.09
0.09
0.06
0.14
0.14
0.15
0.06
0.06
0.06
0.06
0.14
0.14
0.15
0.06
0.06
0.06
0.06
0.06
0.06
0.06
0.06
0.15
0.06
0.09
0.09
0.09
0.09
0.09
0.09
0.09
0.15
0.09
0.46
0.74
0.77
0.80
0.90
0.94
0.98
0.99
1.00
1.00
1.00
1.00
0.93
0.06
0.61
0.65
0.66
0.68
0.68
0.68
0.68
0.68
0.68
0.68
0.68
0.68
0.68
0.68
0.66
0.65
0.64
0.63
0.65
0.66
0.65
0.66
0.66
0.65
0.63
0.61
0.58
0.54
0.46
0.38
0.41
0.19
0.19
0.00
0.00
0.00
0.00
0.07
0.09
0.09
0.09
0.09
0.09
0.09
0.09
0.09
0.09
0.09
0.09
0.09
0.09
0.09
0.09
0.09
0.09
0.09
0.09
0.09
0.09
0.07
0.07
0.09
0.09
0.09
0.09
0.09
0.09
0.09
0.09
0.09
0.09
0.09
0.09
0.09
0.07
0.07
0.07
0.07
0.07
0.07
0.07
0.07
0.07
0.07
0.07
0.07
0.07
0.07
0.07
0.00
0.00
0.00
0.12
0.12
0.12
0.12
0.12
0.19
0.19
0.19
0.31
0.31
0.31
0.31
0.38
0.38
0.31
0.38
0.31
0.31
0.38
0.31
0.31
0.31
0.00
0.00
0.63
0.74
0.69
0.87
0.87
0.71
0.74
0.64
0.38
0.00
0.07
0.06
0.06
0.06
0.14
0.06
0.06
0.06
0.09
0.09
0.07
0.07
0.00
0.00
0.00
0.00
0.12
0.00
0.00
0.12
0.12
0.00
0.00
0.00
0.00
0.00
0.07
0.07
0.07
0.07
0.07
0.09
0.07
0.07
0.09
0.09
0.07
0.07
0.07
0.07
0.07
0.07
0.07
0.07
0.00
0.00
0.00
0.07
0.07
0.07
0.07
0.07
0.09
0.07
0.07
0.07
0.00
0.00
0.12
0.12
0.00
0.00
0.12
0.12
0.12
0.12
0.12
0.12
0.12
0.12
0.12
0.19
0.12
0.12
0.12
0.12
0.12
0.12
0.00
0.06
0.06
0.38
0.68
0.73
0.73
0.77
0.70
0.74
0.64
0.19
0.06
0.06
0.17
0.32
0.32
0.17
0.17
0.17
0.17
0.17
0.09
0.09
0.06
0.06
0.06
0.15
0.14
0.14
0.06
0.06
0.06
0.06
0.06
0.06
0.06
0.14
0.15
0.15
0.06
0.06
0.06
0.15
0.15
0.14
0.06
0.06
0.06
0.06
0.06
0.06
0.06
0.06
0.06
0.06
0.06
0.06
0.06
0.06
0.09
0.09
0.09
0.09
0.09
0.06
0.06
0.06
0.09
0.07
0.07
0.00
0.00
0.00
0.00
0.00
0.00
0.00
0.00
0.00
0.00
0.00
0.00
0.00
0.00
0.00
0.00
0.00
0.00
0.00
0.00
0.00
0.00
0.09
0.15
0.07
0.63
0.74
0.71
0.73
0.68
0.76
0.65
0.41
0.06
0.09
0.32
0.31
0.46
0.46
0.46
0.31
0.31
0.31
0.31
0.31
0.36
0.32
0.17
0.17
0.17
0.17
0.09
0.09
0.09
0.09
0.09
0.09
0.09
0.09
0.09
0.17
0.17
0.17
0.17
0.09
0.09
0.09
0.09
0.09
0.09
0.06
0.06
0.06
0.06
0.06
0.06
0.06
0.06
0.06
0.06
0.06
0.06
0.15
0.06
0.06
0.14
0.14
0.15
0.06
0.15
0.14
0.06
0.07
0.07
0.07
0.07
0.07
0.00
0.00
0.00
0.00
0.00
0.00
0.00
0.00
0.00
0.00
0.00
0.00
0.00
0.00
0.00
0.00
0.00
0.09
0.15
0.06
0.58
0.73
0.71
0.71
0.68
0.76
0.65
0.38
0.09
0.09
0.36
0.46
0.46
0.46
0.46
0.46
0.31
0.31
0.31
0.36
0.32
0.17
0.09
0.09
0.06
0.06
0.06
0.09
0.06
0.06
0.06
0.09
0.09
0.09
0.17
0.17
0.17
0.17
0.17
0.17
0.17
0.17
0.09
0.09
0.09
0.09
0.06
0.15
0.14
0.14
0.14
0.06
0.06
0.06
0.06
0.06
0.06
0.09
0.09
0.09
0.09
0.09
0.06
0.14
0.06
0.06
0.07
0.00
0.00
0.00
0.00
0.00
0.00
0.00
0.00
0.00
0.00
0.00
0.00
0.00
0.00
0.00
0.00
0.00
0.00
0.00
0.00
0.00
0.00
0.07
0.14
0.00
0.64
0.74
0.69
0.71
0.68
0.76
0.63
0.38
0.06
0.09
0.32
0.36
0.31
0.31
0.31
0.31
0.31
0.17
0.17
0.17
0.17
0.09
0.06
0.06
0.06
0.15
0.06
0.06
0.06
0.06
0.06
0.06
0.14
0.14
0.06
0.15
0.14
0.06
0.06
0.06
0.06
0.06
0.06
0.09
0.09
0.09
0.09
0.07
0.07
0.07
0.07
0.07
0.07
0.07
0.07
0.07
0.00
0.00
0.00
0.00
0.00
0.00
0.07
0.07
0.00
0.00
0.00
0.12
0.12
0.19
0.19
0.19
0.19
0.19
0.19
0.19
0.19
0.19
0.19
0.19
0.19
0.19
0.19
0.19
0.19
0.19
0.19
0.19
0.12
0.00
0.06
0.38
0.65
0.73
0.80
0.86
0.68
0.74
0.66
0.31
0.07
0.06
0.09
0.17
0.17
0.17
0.17
0.17
0.17
0.17
0.09
0.09
0.06
0.06
0.06
0.06
0.06
0.06
0.15
0.15
0.15
0.15
0.06
0.15
0.15
0.06
0.06
0.09
0.09
0.09
0.06
0.06
0.06
0.15
0.14
0.06
0.06
0.09
0.09
0.09
0.09
0.09
0.09
0.09
0.07
0.07
0.07
0.07
0.00
0.00
0.00
0.12
0.00
0.00
0.12
0.00
0.00
0.12
0.19
0.38
0.41
0.38
0.38
0.38
0.41
0.38
0.38
0.38
0.38
0.38
0.38
0.38
0.38
0.46
0.46
0.46
0.46
0.46
0.46
0.46
0.38
0.41
0.12
0.54
0.69
0.71
0.89
0.91
0.83
0.73
0.65
0.54
0.19
0.00
0.07
0.09
0.09
0.06
0.06
0.06
0.06
0.06
0.09
0.09
0.09
0.07
0.07
0.07
0.07
0.00
0.00
0.00
0.00
0.00
0.00
0.00
0.00
0.00
0.00
0.07
0.07
0.07
0.07
0.07
0.07
0.07
0.07
0.07
0.07
0.07
0.07
0.07
0.07
0.07
0.07
0.07
0.07
0.07
0.07
0.07
0.07
0.07
0.07
0.07
0.09
0.09
0.09
0.09
0.07
0.00
0.00
0.00
0.00
0.00
0.00
0.00
0.00
0.00
0.00
0.00
0.00
0.00
0.00
0.00
0.00
0.00
0.00
0.00
0.00
0.00
0.00
0.00
0.14
0.14
0.38
0.68
0.71
0.73
0.77
0.70
0.72
0.58
0.00
0.15
0.32
0.31
0.46
0.46
0.46
0.31
0.31
0.31
0.31
0.31
0.31
0.31
0.36
0.32
0.17
0.17
0.09
0.09
0.09
0.09
0.09
0.09
0.09
0.17
0.17
0.17
0.17
0.17
0.17
0.17
0.17
0.17
0.09
0.09
0.09
0.09
0.06
0.06
0.06
0.06
0.06
0.15
0.15
0.06
0.06
0.15
0.15
0.06
0.15
0.14
0.06
0.06
0.15
0.06
0.06
0.15
0.14
0.09
0.07
0.07
0.07
0.07
0.07
0.00
0.00
0.00
0.00
0.07
0.07
0.00
0.00
0.00
0.00
0.00
0.00
0.00
0.00
0.00
0.00
0.00
0.15
0.09
0.12
0.66
0.76
0.69
0.68
0.71
0.72
0.61
0.00
0.06
0.36
0.46
0.46
0.58
0.58
0.58
0.46
0.46
0.46
0.31
0.36
0.32
0.32
0.17
0.09
0.09
0.09
0.06
0.06
0.06
0.06
0.06
0.06
0.06
0.06
0.06
0.09
0.09
0.06
0.06
0.09
0.06
0.06
0.06
0.06
0.15
0.15
0.15
0.14
0.14
0.14
0.14
0.15
0.06
0.06
0.06
0.06
0.06
0.06
0.06
0.06
0.14
0.15
0.14
0.06
0.09
0.07
0.00
0.00
0.00
0.00
0.00
0.00
0.00
0.00
0.00
0.00
0.00
0.00
0.00
0.00
0.00
0.00
0.00
0.00
0.00
0.00
0.00
0.00
0.06
0.14
0.31
0.65
0.76
0.69
0.73
0.71
0.73
0.65
0.19
0.06
0.09
0.36
0.36
0.31
0.36
0.32
0.32
0.17
0.17
0.17
0.09
0.09
0.09
0.06
0.06
0.14
0.14
0.06
0.06
0.06
0.06
0.06
0.14
0.14
0.14
0.14
0.14
0.15
0.14
0.14
0.06
0.06
0.06
0.06
0.06
0.06
0.06
0.09
0.09
0.09
0.09
0.09
0.09
0.09
0.09
0.09
0.09
0.07
0.07
0.07
0.07
0.07
0.09
0.07
0.07
0.07
0.00
0.00
0.00
0.12
0.00
0.00
0.00
0.00
0.00
0.00
0.00
0.00
0.00
0.00
0.00
0.00
0.00
0.00
0.00
0.00
0.00
0.00
0.00
0.00
0.06
0.06
0.38
0.68
0.73
0.71
0.73
0.71
0.71
0.58
0.00
0.14
0.17
0.31
0.31
0.31
0.31
0.31
0.31
0.31
0.31
0.31
0.31
0.32
0.32
0.17
0.09
0.09
0.06
0.15
0.14
0.14
0.06
0.06
0.06
0.06
0.06
0.06
0.06
0.06
0.06
0.06
0.06
0.06
0.09
0.07
0.07
0.00
0.00
0.00
0.00
0.00
0.00
0.00
0.00
0.00
0.12
0.12
0.12
0.12
0.19
0.19
0.19
0.12
0.12
0.12
0.12
0.19
0.31
0.41
0.38
0.38
0.38
0.38
0.38
0.38
0.38
0.38
0.38
0.38
0.46
0.46
0.46
0.38
0.38
0.38
0.38
0.38
0.38
0.46
0.38
0.41
0.19
0.41
0.63
0.76
0.80
0.90
0.90
0.69
0.74
0.64
0.19
0.00
0.00
0.09
0.06
0.06
0.06
0.06
0.06
0.06
0.06
0.09
0.09
0.09
0.09
0.07
0.07
0.00
0.00
0.00
0.00
0.00
0.00
0.07
0.07
0.07
0.07
0.09
0.09
0.09
0.09
0.09
0.09
0.09
0.09
0.09
0.07
0.07
0.07
0.09
0.09
0.07
0.07
0.09
0.09
0.09
0.09
0.09
0.09
0.09
0.09
0.09
0.09
0.09
0.06
0.06
0.09
0.07
0.00
0.00
0.00
0.00
0.00
0.00
0.00
0.00
0.00
0.00
0.00
0.00
0.00
0.00
0.00
0.00
0.00
0.00
0.00
0.00
0.00
0.00
0.07
0.06
0.14
0.51
0.72
0.71
0.77
0.77
0.73
0.68
0.38
0.07
0.09
0.36
0.31
0.46
0.46
0.46
0.46
0.46
0.46
0.46
0.46
0.31
0.31
0.31
0.36
0.17
0.17
0.17
0.09
0.09
0.09
0.09
0.09
0.09
0.17
0.17
0.17
0.17
0.17
0.17
0.17
0.17
0.17
0.09
0.09
0.09
0.09
0.09
0.09
0.09
0.09
0.06
0.06
0.06
0.06
0.06
0.06
0.15
0.15
0.14
0.14
0.14
0.15
0.06
0.06
0.06
0.06
0.14
0.06
0.09
0.07
0.07
0.07
0.07
0.07
0.07
0.07
0.07
0.00
0.00
0.00
0.00
0.00
0.00
0.07
0.07
0.07
0.07
0.07
0.07
0.07
0.14
0.32
0.00
0.66
0.76
0.69
0.68
0.71
0.72
0.61
0.00
0.06
0.36
0.46
0.58
0.58
0.58
0.46
0.46
0.46
0.46
0.31
0.36
0.32
0.17
0.17
0.09
0.09
0.09
0.06
0.06
0.06
0.06
0.06
0.06
0.06
0.15
0.15
0.09
0.09
0.09
0.09
0.06
0.06
0.06
0.06
0.06
0.06
0.06
0.15
0.15
0.15
0.14
0.14
0.14
0.14
0.06
0.06
0.06
0.06
0.06
0.06
0.09
0.09
0.06
0.06
0.09
0.09
0.07
0.00
0.00
0.00
0.00
0.00
0.00
0.00
0.12
0.00
0.00
0.00
0.00
0.12
0.00
0.00
0.00
0.00
0.00
0.12
0.00
0.00
0.00
0.00
0.09
0.06
0.41
0.65
0.73
0.68
0.73
0.70
0.73
0.61
0.12
0.14
0.17
0.36
0.31
0.31
0.31
0.36
0.32
0.17
0.17
0.09
0.09
0.06
0.06
0.15
0.15
0.15
0.14
0.06
0.06
0.06
0.06
0.06
0.06
0.06
0.06
0.14
0.14
0.06
0.15
0.15
0.14
0.14
0.06
0.06
0.06
0.06
0.06
0.06
0.06
0.09
0.09
0.09
0.09
0.07
0.00
0.00
0.07
0.07
0.07
0.07
0.07
0.07
0.09
0.09
0.09
0.07
0.00
0.00
0.00
0.12
0.00
0.00
0.00
0.00
0.12
0.12
0.12
0.12
0.12
0.12
0.12
0.12
0.12
0.12
0.12
0.12
0.12
0.00
0.00
0.00
0.06
0.14
0.31
0.65
0.76
0.68
0.68
0.71
0.72
0.63
0.00
0.15
0.17
0.36
0.31
0.31
0.31
0.31
0.31
0.36
0.17
0.17
0.09
0.09
0.06
0.06
0.15
0.14
0.06
0.06
0.09
0.07
0.00
0.00
0.00
0.00
0.00
0.00
0.00
0.00
0.00
0.00
0.00
0.00
0.00
0.00
0.00
0.12
0.12
0.12
0.12
0.19
0.19
0.19
0.19
0.19
0.19
0.19
0.31
0.31
0.31
0.31
0.31
0.19
0.19
0.19
0.19
0.31
0.38
0.38
0.38
0.38
0.38
0.38
0.38
0.38
0.38
0.38
0.38
0.38
0.38
0.46
0.46
0.46
0.46
0.38
0.38
0.38
0.38
0.38
0.38
0.41
0.19
0.41
0.65
0.76
0.71
0.90
0.90
0.69
0.74
0.66
0.31
0.00
0.07
0.06
0.15
0.14
0.14
0.14
0.14
0.14
0.14
0.14
0.06
0.06
0.06
0.09
0.09
0.09
0.07
0.07
0.07
0.07
0.07
0.07
0.07
0.09
0.09
0.09
0.09
0.06
0.06
0.06
0.06
0.06
0.06
0.06
0.06
0.09
0.09
0.06
0.06
0.09
0.09
0.06
0.06
0.06
0.06
0.06
0.09
0.09
0.09
0.09
0.06
0.06
0.06
0.06
0.14
0.06
0.09
0.00
0.00
0.00
0.00
0.00
0.00
0.00
0.00
0.00
0.00
0.00
0.00
0.00
0.00
0.00
0.00
0.00
0.00
0.00
0.00
0.00
0.00
0.09
0.06
0.09
0.61
0.74
0.69
0.77
0.69
0.76
0.63
0.38
0.06
0.17
0.31
0.46
0.46
0.46
0.46
0.46
0.46
0.46
0.46
0.46
0.31
0.31
0.31
0.36
0.32
0.17
0.17
0.09
0.09
0.09
0.09
0.09
0.09
0.09
0.09
0.17
0.17
0.17
0.17
0.17
0.09
0.09
0.09
0.09
0.09
0.06
0.06
0.06
0.06
0.06
0.06
0.06
0.06
0.06
0.06
0.06
0.06
0.15
0.15
0.14
0.14
0.14
0.14
0.15
0.06
0.06
0.14
0.06
0.09
0.09
0.07
0.07
0.07
0.09
0.07
0.07
0.07
0.00
0.00
0.07
0.07
0.07
0.07
0.07
0.07
0.00
0.00
0.07
0.07
0.07
0.07
0.15
0.17
0.31
0.64
0.73
0.68
0.69
0.73
0.68
0.46
0.07
0.09
0.36
0.31
0.46
0.58
0.46
0.46
0.46
0.46
0.31
0.31
0.31
0.36
0.32
0.17
0.09
0.09
0.09
0.09
0.09
0.09
0.09
0.06
0.06
0.06
0.09
0.09
0.09
0.09
0.09
0.09
0.06
0.06
0.09
0.06
0.06
0.06
0.06
0.15
0.15
0.15
0.15
0.06
0.06
0.14
0.14
0.14
0.14
0.14
0.06
0.06
0.06
0.14
0.15
0.15
0.06
0.09
0.00
0.00
0.00
0.00
0.00
0.00
0.00
0.00
0.00
0.00
0.00
0.00
0.00
0.00
0.00
0.00
0.00
0.00
0.00
0.00
0.00
0.00
0.00
0.07
0.14
0.06
0.61
0.73
0.71
0.77
0.71
0.74
0.65
0.38
0.09
0.06
0.17
0.36
0.31
0.31
0.31
0.31
0.32
0.32
0.17
0.17
0.09
0.09
0.06
0.06
0.15
0.14
0.14
0.06
0.06
0.06
0.06
0.06
0.06
0.06
0.14
0.14
0.15
0.14
0.14
0.14
0.06
0.06
0.06
0.06
0.06
0.06
0.09
0.09
0.09
0.09
0.09
0.09
0.09
0.09
0.07
0.07
0.07
0.07
0.00
0.00
0.00
0.00
0.00
0.07
0.07
0.00
0.00
0.00
0.00
0.12
0.19
0.19
0.19
0.12
0.12
0.12
0.00
0.00
0.00
0.00
0.00
0.00
0.00
0.00
0.00
0.00
0.00
0.00
0.00
0.00
0.09
0.06
0.00
0.65
0.75
0.69
0.77
0.69
0.75
0.65
0.38
0.09
0.06
0.32
0.31
0.31
0.46
0.46
0.46
0.46
0.31
0.31
0.36
0.32
0.17
0.09
0.06
0.06
0.06
0.15
0.06
0.06
0.09
0.09
0.09
0.09
0.09
0.09
0.09
0.09
0.09
0.09
0.07
0.07
0.00
0.00
0.00
0.00
0.00
0.00
0.00
0.00
0.00
0.00
0.12
0.00
0.00
0.12
0.12
0.12
0.19
0.19
0.19
0.19
0.19
0.12
0.12
0.19
0.19
0.31
0.38
0.38
0.38
0.38
0.38
0.38
0.38
0.38
0.38
0.38
0.38
0.46
0.46
0.46
0.46
0.46
0.46
0.46
0.46
0.46
0.38
0.38
0.41
0.19
0.38
0.63
0.74
0.77
0.90
0.89
0.71
0.73
0.65
0.38
0.00
0.00
0.09
0.06
0.06
0.06
0.06
0.09
0.09
0.09
0.09
0.09
0.07
0.07
0.07
0.00
0.00
0.00
0.00
0.00
0.00
0.00
0.00
0.00
0.00
0.07
0.07
0.07
0.07
0.07
0.09
0.09
0.07
0.07
0.07
0.07
0.07
0.07
0.07
0.07
0.07
0.07
0.09
0.09
0.09
0.09
0.09
0.09
0.09
0.07
0.07
0.07
0.09
0.09
0.06
0.09
0.09
0.07
0.00
0.00
0.00
0.00
0.00
0.00
0.00
0.00
0.00
0.00
0.00
0.00
0.00
0.00
0.00
0.00
0.00
0.00
0.00
0.00
0.00
0.00
0.00
0.14
0.15
0.38
0.65
0.73
0.71
0.77
0.71
0.73
0.64
0.00
0.15
0.17
0.46
0.46
0.46
0.46
0.46
0.46
0.46
0.46
0.31
0.31
0.31
0.31
0.36
0.32
0.17
0.17
0.17
0.17
0.17
0.17
0.17
0.09
0.09
0.17
0.17
0.17
0.17
0.17
0.17
0.17
0.17
0.17
0.09
0.09
0.09
0.09
0.09
0.06
0.06
0.06
0.06
0.06
0.06
0.06
0.06
0.06
0.15
0.14
0.14
0.06
0.06
0.14
0.14
0.15
0.06
0.15
0.06
0.06
0.09
0.07
0.07
0.07
0.07
0.07
0.07
0.07
0.07
0.07
0.07
0.07
0.00
0.00
0.07
0.07
0.07
0.00
0.00
0.07
0.07
0.07
0.09
0.09
0.15
0.51
0.71
0.70
0.69
0.69
0.76
0.65
0.38
0.14
0.17
0.31
0.46
0.46
0.46
0.46
0.46
0.46
0.46
0.31
0.31
0.31
0.32
0.17
0.17
0.09
0.09
0.09
0.09
0.09
0.09
0.09
0.09
0.09
0.09
0.09
0.09
0.09
0.09
0.09
0.09
0.09
0.09
0.09
0.09
0.06
0.06
0.06
0.06
0.06
0.06
0.06
0.06
0.06
0.06
0.06
0.06
0.14
0.14
0.14
0.06
0.06
0.14
0.15
0.15
0.15
0.14
0.09
0.07
0.07
0.00
0.00
0.00
0.07
0.00
0.00
0.00
0.00
0.00
0.00
0.00
0.00
0.00
0.00
0.00
0.00
0.00
0.00
0.00
0.00
0.07
0.14
0.06
0.58
0.71
0.71
0.71
0.71
0.73
0.65
0.38
0.09
0.06
0.32
0.36
0.31
0.31
0.32
0.36
0.36
0.36
0.32
0.17
0.17
0.09
0.06
0.06
0.06
0.06
0.15
0.06
0.06
0.06
0.06
0.06
0.06
0.06
0.14
0.15
0.06
0.06
0.06
0.06
0.15
0.14
0.06
0.06
0.06
0.09
0.07
0.07
0.07
0.07
0.07
0.07
0.07
0.07
0.07
0.07
0.07
0.07
0.07
0.00
0.00
0.07
0.07
0.07
0.07
0.07
0.00
0.00
0.00
0.12
0.12
0.19
0.12
0.12
0.12
0.19
0.12
0.12
0.19
0.19
0.12
0.00
0.00
0.00
0.00
0.00
0.00
0.00
0.00
0.00
0.07
0.06
0.00
0.66
0.76
0.68
0.77
0.71
0.73
0.65
0.12
0.15
0.32
0.31
0.46
0.46
0.46
0.31
0.31
0.32
0.32
0.32
0.17
0.17
0.09
0.09
0.06
0.06
0.15
0.14
0.06
0.06
0.09
0.07
0.07
0.07
0.00
0.00
0.07
0.07
0.07
0.00
0.00
0.00
0.00
0.00
0.00
0.00
0.00
0.00
0.00
0.00
0.00
0.00
0.00
0.12
0.12
0.19
0.19
0.19
0.31
0.31
0.31
0.31
0.31
0.19
0.19
0.31
0.31
0.41
0.38
0.38
0.38
0.38
0.38
0.38
0.38
0.38
0.46
0.38
0.38
0.38
0.46
0.46
0.46
0.46
0.38
0.38
0.38
0.38
0.38
0.38
0.38
0.00
0.31
0.66
0.75
0.68
0.89
0.87
0.71
0.73
0.63
0.19
0.07
0.06
0.15
0.06
0.06
0.06
0.06
0.06
0.06
0.06
0.06
0.06
0.15
0.06
0.06
0.06
0.09
0.09
0.09
0.09
0.09
0.09
0.09
0.09
0.09
0.09
0.09
0.06
0.06
0.06
0.06
0.06
0.06
0.06
0.06
0.06
0.06
0.06
0.06
0.06
0.06
0.06
0.06
0.06
0.06
0.06
0.06
0.06
0.06
0.06
0.06
0.06
0.14
0.14
0.06
0.06
0.09
0.07
0.00
0.00
0.00
0.00
0.00
0.00
0.00
0.00
0.00
0.00
0.00
0.00
0.00
0.00
0.00
0.00
0.00
0.00
0.00
0.00
0.00
0.00
0.06
0.06
0.00
0.66
0.75
0.69
0.73
0.69
0.75
0.67
0.31
0.14
0.17
0.31
0.46
0.46
0.46
0.46
0.46
0.46
0.46
0.31
0.31
0.31
0.36
0.17
0.17
0.17
0.17
0.17
0.09
0.09
0.09
0.09
0.09
0.09
0.09
0.17
0.17
0.17
0.17
0.17
0.09
0.09
0.09
0.09
0.09
0.09
0.09
0.06
0.06
0.06
0.06
0.06
0.06
0.06
0.15
0.15
0.06
0.15
0.14
0.15
0.06
0.06
0.06
0.14
0.15
0.15
0.14
0.09
0.07
0.00
0.00
0.00
0.07
0.07
0.07
0.00
0.00
0.07
0.07
0.07
0.07
0.00
0.00
0.00
0.00
0.00
0.07
0.00
0.00
0.00
0.07
0.15
0.09
0.00
0.66
0.75
0.69
0.68
0.70
0.73
0.64
0.00
0.14
0.17
0.46
0.58
0.46
0.46
0.46
0.46
0.46
0.31
0.31
0.31
0.36
0.17
0.17
0.09
0.09
0.06
0.06
0.06
0.06
0.06
0.06
0.06
0.06
0.06
0.06
0.06
0.06
0.09
0.09
0.06
0.06
0.06
0.06
0.06
0.06
0.06
0.06
0.06
0.15
0.15
0.15
0.06
0.06
0.06
0.09
0.09
0.09
0.09
0.09
0.09
0.09
0.06
0.06
0.06
0.09
0.07
0.00
0.00
0.00
0.00
0.00
0.00
0.00
0.00
0.00
0.00
0.00
0.00
0.12
0.12
0.12
0.00
0.00
0.00
0.00
0.12
0.00
0.00
0.00
0.06
0.07
0.61
0.74
0.71
0.71
0.73
0.73
0.66
0.38
0.07
0.06
0.17
0.36
0.31
0.31
0.36
0.36
0.32
0.17
0.09
0.09
0.06
0.06
0.06
0.06
0.14
0.06
0.06
0.06
0.06
0.06
0.06
0.06
0.06
0.06
0.06
0.06
0.14
0.14
0.14
0.14
0.14
0.14
0.14
0.06
0.06
0.09
0.09
0.09
0.07
0.07
0.07
0.09
0.07
0.07
0.09
0.09
0.09
0.09
0.07
0.07
0.07
0.09
0.09
0.09
0.09
0.09
0.00
0.00
0.00
0.00
0.00
0.00
0.00
0.00
0.00
0.12
0.12
0.12
0.00
0.00
0.12
0.00
0.00
0.00
0.00
0.00
0.00
0.00
0.00
0.00
0.09
0.15
0.31
0.64
0.73
0.69
0.73
0.71
0.73
0.64
0.00
0.06
0.06
0.17
0.36
0.32
0.17
0.17
0.17
0.09
0.09
0.09
0.06
0.15
0.06
0.06
0.07
0.07
0.00
0.00
0.00
0.00
0.00
0.00
0.00
0.12
0.12
0.12
0.00
0.00
0.00
0.00
0.00
0.12
0.12
0.12
0.12
0.12
0.12
0.19
0.19
0.19
0.19
0.19
0.19
0.19
0.19
0.19
0.19
0.19
0.19
0.19
0.12
0.12
0.00
0.00
0.00
0.12
0.19
0.31
0.31
0.31
0.31
0.31
0.31
0.31
0.31
0.31
0.31
0.31
0.31
0.31
0.31
0.31
0.31
0.31
0.19
0.19
0.19
0.19
0.12
0.07
0.07
0.54
0.72
0.69
0.83
0.87
0.71
0.74
0.64
0.12
0.06
0.15
0.09
0.17
0.17
0.17
0.17
0.09
0.09
0.09
0.09
0.09
0.09
0.09
0.06
0.06
0.15
0.15
0.14
0.14
0.14
0.14
0.15
0.15
0.06
0.06
0.06
0.06
0.06
0.06
0.06
0.06
0.06
0.06
0.06
0.06
0.14
0.14
0.06
0.06
0.06
0.06
0.06
0.06
0.06
0.06
0.06
0.06
0.06
0.06
0.06
0.09
0.09
0.06
0.06
0.06
0.06
0.09
0.07
0.00
0.00
0.00
0.00
0.00
0.00
0.00
0.00
0.07
0.00
0.00
0.00
0.00
0.00
0.07
0.07
0.00
0.00
0.00
0.00
0.00
0.07
0.09
0.15
0.38
0.69
0.70
0.71
0.69
0.73
0.66
0.38
0.07
0.09
0.36
0.46
0.58
0.58
0.46
0.46
0.46
0.46
0.31
0.31
0.36
0.36
0.32
0.17
0.17
0.09
0.09
0.09
0.06
0.06
0.09
0.09
0.09
0.09
0.09
0.09
0.09
0.09
0.09
0.09
0.09
0.09
0.09
0.06
0.06
0.06
0.06
0.06
0.15
0.15
0.06
0.14
0.14
0.15
0.14
0.14
0.06
0.06
0.14
0.14
0.06
0.06
0.15
0.06
0.06
0.15
0.06
0.09
0.07
0.07
0.07
0.07
0.07
0.07
0.07
0.07
0.07
0.07
0.00
0.00
0.00
0.00
0.00
0.00
0.00
0.00
0.07
0.00
0.00
0.00
0.14
0.06
0.12
0.66
0.75
0.71
0.69
0.70
0.73
0.64
0.12
0.14
0.09
0.36
0.46
0.31
0.31
0.31
0.31
0.31
0.31
0.36
0.17
0.17
0.09
0.09
0.06
0.06
0.06
0.06
0.15
0.06
0.06
0.14
0.14
0.15
0.06
0.06
0.06
0.06
0.06
0.06
0.06
0.14
0.14
0.06
0.06
0.06
0.06
0.06
0.09
0.09
0.09
0.09
0.09
0.09
0.09
0.09
0.09
0.07
0.07
0.07
0.09
0.09
0.09
0.09
0.09
0.07
0.00
0.00
0.00
0.00
0.12
0.00
0.00
0.00
0.12
0.12
0.12
0.12
0.12
0.00
0.00
0.12
0.12
0.12
0.12
0.12
0.12
0.12
0.12
0.00
0.09
0.09
0.51
0.71
0.71
0.73
0.73
0.71
0.72
0.61
0.00
0.14
0.09
0.17
0.17
0.32
0.17
0.17
0.09
0.09
0.09
0.06
0.06
0.06
0.06
0.06
0.15
0.14
0.06
0.06
0.09
0.09
0.06
0.06
0.06
0.06
0.06
0.06
0.06
0.14
0.14
0.14
0.06
0.14
0.14
0.06
0.06
0.06
0.06
0.06
0.06
0.09
0.09
0.09
0.09
0.09
0.09
0.09
0.09
0.07
0.07
0.07
0.07
0.09
0.09
0.09
0.07
0.00
0.00
0.00
0.00
0.00
0.12
0.00
0.00
0.00
0.00
0.00
0.00
0.00
0.00
0.00
0.00
0.00
0.12
0.12
0.12
0.12
0.00
0.00
0.00
0.00
0.09
0.00
0.61
0.74
0.70
0.73
0.73
0.73
0.70
0.54
0.00
0.09
0.06
0.06
0.06
0.06
0.06
0.15
0.14
0.14
0.06
0.06
0.09
0.09
0.07
0.07
0.00
0.00
0.00
0.00
0.12
0.19
0.19
0.19
0.19
0.19
0.19
0.12
0.12
0.12
0.12
0.12
0.12
0.12
0.12
0.12
0.12
0.12
0.12
0.12
0.12
0.12
0.12
0.12
0.12
0.12
0.12
0.00
0.00
0.12
0.12
0.12
0.00
0.00
0.00
0.00
0.00
0.00
0.12
0.19
0.19
0.19
0.19
0.19
0.19
0.31
0.19
0.19
0.19
0.19
0.31
0.31
0.19
0.19
0.19
0.19
0.19
0.19
0.19
0.12
0.00
0.07
0.00
0.58
0.73
0.69
0.83
0.83
0.70
0.71
0.58
0.00
0.06
0.09
0.09
0.17
0.32
0.36
0.32
0.32
0.32
0.17
0.17
0.17
0.17
0.09
0.09
0.06
0.06
0.06
0.06
0.06
0.06
0.06
0.15
0.15
0.06
0.06
0.06
0.15
0.15
0.06
0.06
0.06
0.06
0.06
0.15
0.14
0.14
0.14
0.14
0.06
0.06
0.06
0.06
0.06
0.06
0.06
0.06
0.06
0.06
0.06
0.06
0.06
0.06
0.06
0.14
0.14
0.14
0.09
0.07
0.07
0.07
0.07
0.00
0.00
0.00
0.00
0.00
0.00
0.00
0.00
0.00
0.00
0.00
0.00
0.00
0.00
0.00
0.00
0.07
0.07
0.09
0.09
0.09
0.61
0.74
0.68
0.77
0.69
0.76
0.67
0.31
0.06
0.09
0.36
0.31
0.46
0.46
0.46
0.46
0.31
0.31
0.36
0.32
0.32
0.17
0.17
0.09
0.09
0.09
0.06
0.06
0.06
0.06
0.06
0.06
0.06
0.06
0.06
0.06
0.09
0.09
0.09
0.09
0.09
0.09
0.06
0.06
0.06
0.06
0.06
0.06
0.14
0.14
0.06
0.06
0.14
0.14
0.14
0.15
0.06
0.14
0.06
0.06
0.15
0.15
0.15
0.14
0.14
0.06
0.09
0.07
0.00
0.00
0.00
0.00
0.00
0.00
0.00
0.12
0.12
0.12
0.12
0.12
0.19
0.19
0.19
0.19
0.19
0.19
0.31
0.31
0.31
0.19
0.00
0.00
0.46
0.70
0.70
0.83
0.90
0.69
0.76
0.66
0.38
0.12
0.07
0.09
0.06
0.06
0.06
0.06
0.06
0.09
0.09
0.09
0.09
0.07
0.07
0.00
0.00
0.00
0.00
0.12
0.12
0.12
0.19
0.19
0.19
0.19
0.12
0.12
0.00
0.00
0.00
0.00
0.12
0.12
0.00
0.00
0.12
0.12
0.12
0.12
0.12
0.12
0.12
0.12
0.12
0.12
0.12
0.12
0.12
0.12
0.12
0.00
0.06
0.09
0.36
0.58
0.58
0.74
0.83
0.90
0.94
0.95
0.96
0.99
0.99
0.93
0.46
0.46
0.63
0.70
0.68
0.68
0.68
0.68
0.68
0.68
0.68
0.68
0.68
0.66
0.66
0.65
0.64
0.63
0.63
0.65
0.65
0.65
0.67
0.65
0.66
0.66
0.66
0.64
0.61
0.58
0.54
0.46
0.38
0.38
0.19
0.12
0.00
0.00
0.00
0.00
0.00
0.07
0.09
0.09
0.09
0.09
0.09
0.09
0.09
0.09
0.09
0.09
0.09
0.09
0.09
0.09
0.09
0.09
0.09
0.09
0.09
0.09
0.09
0.09
0.09
0.07
0.07
0.07
0.07
0.07
0.07
0.07
0.07
0.07
0.07
0.07
0.07
0.07
0.07
0.09
0.06
0.06
0.06
0.09
0.07
0.07
0.07
0.07
0.07
0.07
0.07
0.07
0.07
0.07
0.09
0.09
0.07
0.07
0.07
0.07
0.07
0.07
0.07
0.09
0.09
0.09
0.09
0.09
0.09
0.19
0.63
0.76
0.69
0.68
0.71
0.71
0.58
0.07
0.09
0.36
0.46
0.58
0.58
0.58
0.58
0.58
0.58
0.46
0.46
0.46
0.46
0.31
0.31
0.36
0.32
0.32
0.32
0.32
0.32
0.17
0.17
0.32
0.36
0.31
0.31
0.31
0.31
0.31
0.31
0.46
0.31
0.31
0.31
0.36
0.36
0.32
0.32
0.17
0.17
0.09
0.09
0.09
0.09
0.09
0.06
0.06
0.06
0.06
0.06
0.15
0.15
0.06
0.09
0.09
0.06
0.15
0.14
0.09
0.09
0.07
0.07
0.07
0.07
0.07
0.00
0.00
0.00
0.00
0.00
0.00
0.00
0.00
0.00
0.00
0.00
0.00
0.00
0.00
0.00
0.07
0.06
0.06
0.06
0.61
0.73
0.71
0.71
0.68
0.76
0.65
0.38
0.06
0.09
0.32
0.31
0.46
0.31
0.31
0.31
0.31
0.31
0.31
0.31
0.32
0.17
0.17
0.09
0.06
0.06
0.06
0.06
0.06
0.06
0.06
0.06
0.06
0.06
0.06
0.06
0.09
0.09
0.09
0.09
0.09
0.09
0.06
0.06
0.06
0.06
0.15
0.15
0.06
0.15
0.15
0.06
0.06
0.06
0.15
0.14
0.14
0.06
0.06
0.06
0.06
0.06
0.06
0.06
0.06
0.06
0.09
0.07
0.00
0.00
0.00
0.00
0.00
0.00
0.12
0.12
0.12
0.19
0.19
0.19
0.31
0.31
0.31
0.31
0.38
0.38
0.38
0.38
0.38
0.38
0.12
0.00
0.41
0.66
0.76
0.77
0.90
0.86
0.73
0.70
0.54
0.12
0.00
0.09
0.09
0.09
0.09
0.06
0.09
0.09
0.09
0.09
0.07
0.07
0.07
0.00
0.00
0.00
0.00
0.12
0.12
0.19
0.19
0.12
0.12
0.12
0.12
0.00
0.00
0.00
0.00
0.00
0.00
0.00
0.00
0.00
0.00
0.00
0.00
0.00
0.00
0.00
0.00
0.00
0.00
0.00
0.00
0.00
0.00
0.00
0.00
0.00
0.00
0.00
0.00
0.00
0.00
0.00
0.00
0.00
0.12
0.19
0.19
0.12
0.12
0.12
0.19
0.12
0.12
0.12
0.12
0.12
0.12
0.12
0.12
0.00
0.00
0.00
0.00
0.00
0.00
0.00
0.09
0.15
0.19
0.65
0.73
0.73
0.86
0.69
0.74
0.66
0.12
0.14
0.09
0.31
0.46
0.46
0.46
0.46
0.46
0.46
0.31
0.31
0.31
0.36
0.17
0.17
0.17
0.17
0.09
0.09
0.09
0.09
0.09
0.09
0.09
0.09
0.09
0.09
0.09
0.17
0.09
0.09
0.09
0.09
0.09
0.09
0.06
0.06
0.06
0.06
0.06
0.06
0.06
0.06
0.06
0.06
0.06
0.14
0.06
0.14
0.06
0.06
0.06
0.06
0.06
0.06
0.06
0.14
0.14
0.06
0.09
0.07
0.07
0.00
0.00
0.07
0.07
0.07
0.07
0.00
0.00
0.00
0.00
0.00
0.00
0.00
0.00
0.00
0.00
0.00
0.00
0.00
0.00
0.07
0.14
0.06
0.31
0.64
0.73
0.68
0.73
0.70
0.74
0.61
0.00
0.15
0.32
0.31
0.31
0.31
0.31
0.31
0.31
0.31
0.31
0.36
0.17
0.17
0.09
0.09
0.09
0.06
0.06
0.06
0.06
0.15
0.15
0.15
0.15
0.06
0.06
0.06
0.06
0.06
0.06
0.06
0.06
0.06
0.06
0.06
0.06
0.15
0.15
0.14
0.06
0.06
0.14
0.06
0.06
0.06
0.06
0.06
0.06
0.06
0.06
0.06
0.06
0.06
0.06
0.06
0.06
0.06
0.06
0.09
0.07
0.00
0.00
0.00
0.00
0.07
0.00
0.00
0.00
0.00
0.00
0.00
0.00
0.00
0.00
0.00
0.00
0.00
0.00
0.00
0.00
0.00
0.00
0.14
0.06
0.19
0.63
0.73
0.69
0.73
0.70
0.73
0.63
0.00
0.15
0.17
0.36
0.46
0.46
0.31
0.31
0.31
0.31
0.36
0.17
0.17
0.17
0.17
0.17
0.09
0.09
0.09
0.09
0.09
0.09
0.09
0.09
0.09
0.09
0.09
0.09
0.17
0.17
0.17
0.17
0.17
0.17
0.17
0.17
0.17
0.09
0.09
0.09
0.09
0.09
0.06
0.06
0.06
0.06
0.06
0.06
0.15
0.14
0.06
0.06
0.09
0.09
0.09
0.09
0.06
0.06
0.09
0.09
0.07
0.00
0.00
0.00
0.00
0.00
0.00
0.00
0.00
0.00
0.00
0.00
0.00
0.00
0.00
0.00
0.00
0.00
0.00
0.00
0.00
0.00
0.00
0.07
0.15
0.07
0.64
0.74
0.71
0.69
0.69
0.76
0.66
0.41
0.09
0.09
0.32
0.31
0.31
0.31
0.31
0.31
0.36
0.32
0.32
0.17
0.17
0.09
0.09
0.06
0.06
0.06
0.14
0.14
0.14
0.06
0.06
0.14
0.15
0.06
0.06
0.06
0.15
0.14
0.14
0.14
0.14
0.14
0.06
0.06
0.06
0.06
0.06
0.06
0.09
0.09
0.09
0.09
0.09
0.09
0.09
0.09
0.09
0.09
0.09
0.07
0.07
0.09
0.09
0.09
0.09
0.09
0.07
0.00
0.00
0.00
0.12
0.12
0.00
0.00
0.12
0.12
0.12
0.12
0.00
0.00
0.12
0.12
0.12
0.12
0.12
0.12
0.12
0.12
0.12
0.00
0.06
0.09
0.54
0.72
0.70
0.77
0.77
0.73
0.69
0.58
0.00
0.06
0.06
0.17
0.17
0.17
0.17
0.17
0.17
0.17
0.09
0.09
0.06
0.06
0.06
0.06
0.14
0.14
0.06
0.06
0.06
0.06
0.06
0.06
0.06
0.06
0.06
0.14
0.14
0.14
0.14
0.14
0.14
0.15
0.06
0.09
0.09
0.09
0.09
0.09
0.09
0.09
0.09
0.09
0.09
0.09
0.09
0.09
0.09
0.09
0.07
0.07
0.07
0.07
0.07
0.07
0.07
0.09
0.09
0.07
0.00
0.00
0.00
0.12
0.19
0.19
0.19
0.19
0.19
0.31
0.19
0.19
0.38
0.38
0.38
0.38
0.38
0.38
0.41
0.41
0.38
0.38
0.41
0.31
0.00
0.19
0.65
0.74
0.69
0.90
0.90
0.68
0.74
0.66
0.41
0.12
0.00
0.00
0.07
0.07
0.07
0.07
0.07
0.07
0.00
0.00
0.00
0.00
0.00
0.00
0.12
0.12
0.19
0.19
0.31
0.31
0.31
0.31
0.38
0.31
0.19
0.19
0.19
0.19
0.19
0.19
0.19
0.19
0.19
0.19
0.19
0.19
0.12
0.12
0.12
0.12
0.12
0.12
0.12
0.12
0.12
0.12
0.12
0.12
0.12
0.12
0.00
0.00
0.00
0.00
0.00
0.00
0.12
0.19
0.31
0.19
0.19
0.19
0.19
0.19
0.19
0.19
0.19
0.19
0.19
0.19
0.19
0.19
0.19
0.19
0.19
0.19
0.19
0.12
0.00
0.09
0.07
0.58
0.74
0.68
0.83
0.86
0.70
0.71
0.58
0.12
0.14
0.09
0.17
0.36
0.31
0.31
0.32
0.32
0.32
0.32
0.17
0.17
0.17
0.17
0.17
0.09
0.09
0.06
0.06
0.06
0.06
0.06
0.06
0.06
0.06
0.06
0.06
0.06
0.06
0.06
0.06
0.06
0.06
0.06
0.06
0.06
0.06
0.06
0.06
0.06
0.14
0.14
0.15
0.15
0.14
0.14
0.14
0.14
0.14
0.14
0.06
0.06
0.06
0.06
0.06
0.15
0.06
0.06
0.15
0.06
0.09
0.07
0.00
0.00
0.07
0.07
0.07
0.07
0.07
0.07
0.09
0.07
0.07
0.07
0.07
0.07
0.07
0.07
0.07
0.07
0.07
0.07
0.09
0.17
0.15
0.46
0.72
0.71
0.73
0.69
0.76
0.65
0.38
0.06
0.09
0.31
0.58
0.58
0.58
0.58
0.58
0.46
0.46
0.46
0.31
0.31
0.31
0.36
0.32
0.32
0.17
0.17
0.09
0.09
0.09
0.09
0.09
0.09
0.09
0.09
0.17
0.17
0.17
0.17
0.17
0.17
0.09
0.09
0.09
0.09
0.09
0.06
0.06
0.06
0.06
0.06
0.06
0.06
0.06
0.06
0.15
0.15
0.06
0.15
0.15
0.15
0.06
0.15
0.15
0.06
0.06
0.06
0.15
0.06
0.09
0.07
0.07
0.07
0.09
0.09
0.07
0.07
0.09
0.07
0.07
0.07
0.07
0.07
0.07
0.07
0.07
0.07
0.07
0.07
0.00
0.00
0.09
0.09
0.09
0.58
0.74
0.70
0.69
0.69
0.76
0.66
0.38
0.06
0.09
0.32
0.31
0.46
0.46
0.31
0.31
0.31
0.31
0.36
0.32
0.17
0.17
0.09
0.06
0.06
0.06
0.15
0.15
0.15
0.14
0.14
0.15
0.15
0.15
0.06
0.06
0.06
0.06
0.06
0.06
0.06
0.06
0.06
0.06
0.15
0.14
0.14
0.06
0.14
0.14
0.14
0.06
0.06
0.06
0.06
0.06
0.09
0.09
0.07
0.07
0.07
0.07
0.09
0.09
0.09
0.09
0.07
0.00
0.00
0.12
0.12
0.12
0.12
0.00
0.00
0.12
0.12
0.12
0.00
0.00
0.12
0.12
0.12
0.12
0.12
0.12
0.00
0.00
0.00
0.00
0.00
0.06
0.07
0.58
0.74
0.71
0.83
0.73
0.73
0.70
0.54
0.00
0.14
0.09
0.17
0.17
0.17
0.17
0.17
0.17
0.09
0.09
0.09
0.09
0.09
0.06
0.06
0.15
0.14
0.14
0.14
0.14
0.14
0.14
0.14
0.15
0.06
0.06
0.06
0.06
0.06
0.06
0.06
0.15
0.15
0.06
0.06
0.15
0.14
0.14
0.06
0.06
0.06
0.14
0.06
0.06
0.14
0.14
0.06
0.32
0.58
0.77
0.79
0.83
0.90
0.95
0.99
1.00
1.00
1.00
1.00
1.00
0.95
0.36
0.51
0.67
0.65
0.63
0.66
0.66
0.65
0.65
0.66
0.68
0.68
0.68
0.68
0.68
0.68
0.66
0.65
0.65
0.66
0.66
0.64
0.63
0.63
0.65
0.66
0.65
0.66
0.65
0.64
0.61
0.58
0.58
0.54
0.46
0.38
0.38
0.38
0.41
0.38
0.31
0.31
0.31
0.31
0.38
0.31
0.31
0.31
0.38
0.41
0.38
0.41
0.41
0.38
0.38
0.38
0.38
0.38
0.38
0.38
0.38
0.38
0.38
0.38
0.38
0.38
0.41
0.41
0.38
0.38
0.38
0.38
0.38
0.38
0.38
0.38
0.38
0.38
0.38
0.38
0.38
0.38
0.38
0.41
0.31
0.19
0.19
0.19
0.38
0.41
0.38
0.38
0.38
0.38
0.38
0.38
0.38
0.38
0.31
0.31
0.31
0.31
0.31
0.31
0.31
0.31
0.31
0.19
0.19
0.19
0.00
0.07
0.00
0.61
0.74
0.69
0.80
0.86
0.70
0.71
0.54
0.00
0.06
0.09
0.17
0.32
0.32
0.32
0.36
0.31
0.31
0.36
0.32
0.17
0.17
0.17
0.09
0.09
0.09
0.09
0.09
0.09
0.09
0.09
0.09
0.09
0.17
0.17
0.17
0.32
0.36
0.31
0.31
0.31
0.31
0.31
0.36
0.32
0.17
0.17
0.17
0.09
0.09
0.09
0.09
0.06
0.06
0.06
0.06
0.06
0.06
0.06
0.06
0.06
0.06
0.14
0.15
0.06
0.06
0.06
0.06
0.15
0.06
0.09
0.07
0.07
0.07
0.07
0.07
0.07
0.07
0.07
0.07
0.00
0.00
0.00
0.00
0.07
0.00
0.00
0.00
0.07
0.07
0.07
0.07
0.09
0.17
0.09
0.38
0.69
0.70
0.73
0.71
0.74
0.65
0.38
0.09
0.06
0.36
0.46
0.46
0.46
0.46
0.46
0.46
0.31
0.31
0.31
0.36
0.32
0.32
0.17
0.09
0.09
0.09
0.09
0.09
0.09
0.09
0.09
0.09
0.09
0.17
0.17
0.17
0.17
0.17
0.17
0.09
0.09
0.09
0.09
0.09
0.06
0.06
0.06
0.06
0.06
0.06
0.06
0.06
0.06
0.14
0.14
0.15
0.14
0.06
0.06
0.06
0.06
0.06
0.14
0.14
0.15
0.14
0.06
0.09
0.07
0.07
0.07
0.07
0.07
0.07
0.07
0.07
0.07
0.07
0.00
0.00
0.07
0.07
0.07
0.07
0.00
0.00
0.07
0.07
0.07
0.07
0.09
0.09
0.06
0.54
0.73
0.70
0.69
0.69
0.76
0.65
0.38
0.06
0.09
0.36
0.31
0.46
0.46
0.31
0.31
0.31
0.31
0.36
0.32
0.17
0.17
0.09
0.09
0.09
0.06
0.15
0.15
0.15
0.15
0.06
0.06
0.06
0.06
0.06
0.06
0.06
0.06
0.09
0.09
0.09
0.06
0.06
0.06
0.06
0.15
0.15
0.14
0.06
0.06
0.14
0.06
0.06
0.06
0.06
0.06
0.06
0.06
0.06
0.06
0.06
0.06
0.06
0.06
0.09
0.07
0.00
0.00
0.00
0.12
0.12
0.00
0.00
0.00
0.00
0.00
0.00
0.00
0.00
0.00
0.00
0.00
0.00
0.00
0.00
0.00
0.00
0.00
0.00
0.00
0.14
0.09
0.38
0.68
0.73
0.73
0.77
0.70
0.72
0.61
0.00
0.06
0.06
0.17
0.17
0.17
0.17
0.17
0.17
0.17
0.09
0.09
0.06
0.06
0.15
0.14
0.14
0.14
0.14
0.06
0.06
0.06
0.06
0.06
0.06
0.14
0.14
0.14
0.14
0.14
0.14
0.15
0.06
0.15
0.06
0.06
0.06
0.06
0.06
0.06
0.06
0.06
0.06
0.06
0.06
0.06
0.06
0.06
0.06
0.09
0.07
0.07
0.07
0.07
0.07
0.07
0.09
0.09
0.09
0.07
0.00
0.00
0.00
0.00
0.12
0.12
0.12
0.12
0.12
0.12
0.12
0.12
0.12
0.12
0.12
0.12
0.00
0.00
0.00
0.00
0.00
0.00
0.00
0.00
0.06
0.14
0.41
0.65
0.73
0.68
0.68
0.73
0.70
0.54
0.07
0.15
0.32
0.31
0.46
0.46
0.31
0.31
0.31
0.31
0.32
0.32
0.17
0.09
0.09
0.06
0.06
0.06
0.14
0.06
0.09
0.09
0.07
0.07
0.00
0.00
0.00
0.00
0.00
0.07
0.00
0.00
0.07
0.00
0.00
0.00
0.00
0.00
0.00
0.00
0.12
0.00
0.00
0.12
0.12
0.12
0.12
0.12
0.12
0.19
0.19
0.19
0.19
0.31
0.19
0.19
0.19
0.19
0.19
0.38
0.38
0.38
0.38
0.38
0.38
0.38
0.38
0.38
0.38
0.38
0.38
0.46
0.46
0.46
0.46
0.46
0.46
0.46
0.46
0.46
0.38
0.38
0.31
0.19
0.58
0.71
0.71
0.87
0.90
0.80
0.74
0.64
0.38
0.00
0.09
0.09
0.14
0.15
0.06
0.06
0.15
0.15
0.15
0.14
0.14
0.06
0.06
0.09
0.09
0.09
0.09
0.09
0.07
0.07
0.07
0.09
0.09
0.09
0.06
0.06
0.06
0.06
0.14
0.06
0.06
0.14
0.06
0.06
0.06
0.06
0.06
0.06
0.06
0.06
0.06
0.14
0.06
0.06
0.06
0.06
0.06
0.06
0.06
0.06
0.06
0.09
0.09
0.09
0.06
0.06
0.06
0.06
0.09
0.07
0.07
0.00
0.00
0.00
0.00
0.00
0.00
0.00
0.00
0.00
0.00
0.00
0.00
0.00
0.00
0.00
0.00
0.00
0.00
0.00
0.00
0.00
0.14
0.09
0.19
0.65
0.73
0.69
0.77
0.70
0.73
0.61
0.00
0.15
0.17
0.36
0.31
0.31
0.31
0.31
0.31
0.31
0.31
0.32
0.17
0.17
0.09
0.09
0.06
0.06
0.06
0.06
0.06
0.06
0.06
0.15
0.15
0.06
0.06
0.06
0.06
0.06
0.09
0.06
0.15
0.15
0.06
0.06
0.06
0.06
0.14
0.14
0.14
0.06
0.06
0.06
0.06
0.06
0.06
0.06
0.06
0.06
0.06
0.06
0.09
0.09
0.09
0.06
0.06
0.06
0.06
0.09
0.07
0.00
0.00
0.00
0.00
0.00
0.00
0.00
0.00
0.00
0.00
0.00
0.00
0.00
0.00
0.00
0.00
0.00
0.00
0.00
0.00
0.00
0.00
0.07
0.09
0.09
0.61
0.73
0.71
0.77
0.68
0.76
0.65
0.41
0.06
0.09
0.32
0.31
0.46
0.46
0.46
0.31
0.31
0.31
0.36
0.36
0.36
0.17
0.17
0.17
0.09
0.09
0.09
0.09
0.06
0.06
0.09
0.09
0.09
0.09
0.09
0.09
0.09
0.09
0.09
0.09
0.09
0.09
0.06
0.06
0.06
0.06
0.06
0.15
0.15
0.15
0.15
0.06
0.06
0.14
0.14
0.14
0.14
0.14
0.06
0.06
0.06
0.09
0.09
0.06
0.06
0.14
0.06
0.09
0.07
0.00
0.00
0.00
0.00
0.00
0.00
0.00
0.00
0.00
0.00
0.00
0.00
0.00
0.00
0.00
0.00
0.00
0.00
0.00
0.00
0.00
0.00
0.09
0.09
0.09
0.64
0.74
0.71
0.73
0.69
0.75
0.67
0.38
0.06
0.09
0.32
0.31
0.46
0.46
0.46
0.31
0.31
0.31
0.31
0.36
0.17
0.17
0.17
0.09
0.09
0.09
0.09
0.09
0.09
0.09
0.09
0.09
0.17
0.17
0.17
0.17
0.17
0.09
0.09
0.09
0.09
0.06
0.06
0.06
0.14
0.06
0.06
0.09
0.09
0.09
0.09
0.07
0.07
0.07
0.07
0.00
0.00
0.00
0.12
0.12
0.12
0.00
0.00
0.00
0.00
0.12
0.12
0.31
0.38
0.41
0.41
0.41
0.41
0.41
0.41
0.38
0.41
0.41
0.38
0.38
0.38
0.38
0.38
0.38
0.38
0.38
0.38
0.38
0.38
0.38
0.38
0.12
0.38
0.64
0.74
0.77
0.90
0.89
0.71
0.72
0.63
0.19
0.00
0.07
0.09
0.09
0.09
0.09
0.09
0.09
0.07
0.07
0.07
0.07
0.00
0.00
0.00
0.00
0.00
0.00
0.12
0.12
0.12
0.12
0.12
0.00
0.00
0.00
0.00
0.00
0.00
0.00
0.00
0.00
0.00
0.00
0.12
0.00
0.00
0.12
0.12
0.12
0.12
0.12
0.00
0.00
0.12
0.12
0.12
0.00
0.00
0.12
0.12
0.12
0.00
0.00
0.00
0.00
0.00
0.00
0.00
0.12
0.19
0.19
0.19
0.19
0.19
0.19
0.19
0.19
0.12
0.12
0.12
0.12
0.12
0.12
0.12
0.12
0.12
0.12
0.12
0.12
0.00
0.07
0.14
0.19
0.66
0.76
0.71
0.83
0.68
0.75
0.65
0.31
0.06
0.17
0.36
0.31
0.31
0.46
0.31
0.31
0.31
0.31
0.31
0.31
0.36
0.32
0.17
0.17
0.09
0.09
0.06
0.06
0.06
0.06
0.06
0.06
0.09
0.09
0.09
0.09
0.09
0.09
0.09
0.09
0.09
0.06
0.06
0.06
0.06
0.06
0.15
0.14
0.14
0.14
0.06
0.15
0.14
0.15
0.15
0.14
0.14
0.06
0.06
0.06
0.06
0.06
0.06
0.15
0.14
0.14
0.15
0.06
0.09
0.07
0.07
0.07
0.07
0.07
0.07
0.07
0.07
0.07
0.07
0.00
0.00
0.00
0.00
0.07
0.00
0.00
0.00
0.07
0.00
0.00
0.07
0.14
0.17
0.12
0.66
0.74
0.69
0.77
0.71
0.74
0.63
0.00
0.06
0.32
0.36
0.31
0.46
0.46
0.46
0.46
0.46
0.46
0.46
0.31
0.36
0.36
0.17
0.17
0.17
