0.00
0.00
0.00
0.00
0.00
0.00
0.00
0.00
0.00
0.06
0.08
0.19
0.36
0.72
0.79
0.74
0.75
0.77
0.70
0.52
0.06
0.19
0.38
0.35
0.35
0.35
0.35
0.35
0.35
0.43
0.38
0.38
0.20
0.20
0.12
0.12
0.12
0.08
0.08
0.08
0.08
0.08
0.08
0.12
0.12
0.12
0.12
0.12
0.20
0.20
0.20
0.20
0.20
0.12
0.12
0.12
0.12
0.08
0.08
0.08
0.19
0.08
0.08
0.08
0.08
0.06
0.06
0.06
0.06
0.00
0.00
0.00
0.00
0.00
0.00
0.00
0.00
0.00
0.00
0.00
0.00
0.21
0.21
0.31
0.31
0.31
0.31
0.39
0.40
0.40
0.40
0.40
0.40
0.40
0.36
0.36
0.36
0.36
0.36
0.36
0.36
0.36
0.36
0.39
0.12
0.21
0.70
0.76
0.75
0.91
0.91
0.75
0.75
0.68
0.40
0.00
0.06
0.08
0.08
0.08
0.08
0.08
0.08
0.06
0.06
0.06
0.06
0.06
0.06
0.06
0.00
0.00
0.00
0.00
0.00
0.12
0.12
0.12
0.12
0.00
0.00
0.00
0.00
0.00
0.00
0.00
0.00
0.00
0.00
0.00
0.12
0.12
0.12
0.12
0.12
0.12
0.12
0.12
0.12
0.00
0.00
0.00
0.00
0.12
0.12
0.12
0.00
0.00
0.00
0.00
0.00
0.00
0.00
0.00
0.12
0.21
0.21
0.21
0.21
0.00
0.00
0.12
0.12
0.12
0.12
0.12
0.12
0.12
0.12
0.12
0.12
0.00
0.00
0.00
0.00
0.00
0.06
0.17
0.00
0.68
0.77
0.75
0.82
0.75
0.77
0.70
0.31
0.08
0.08
0.43
0.35
0.35
0.35
0.35
0.35
0.35
0.35
0.35
0.35
0.43
0.20
0.20
0.20
0.20
0.20
0.12
0.12
0.12
0.12
0.12
0.12
0.12
0.12
0.12
0.12
0.12
0.20
0.12
0.12
0.12
0.12
0.08
0.08
0.08
0.19
0.19
0.08
0.08
0.08
0.08
0.08
0.08
0.19
0.19
0.17
0.17
0.17
0.08
0.08
0.08
0.08
0.08
0.17
0.19
0.19
0.08
0.08
0.06
0.06
0.06
0.06
0.06
0.06
0.06
0.06
0.06
0.06
0.06
0.06
0.00
0.00
0.06
0.00
0.00
0.06
0.06
0.06
0.06
0.06
0.08
0.20
0.06
0.70
0.77
0.76
0.78
0.76
0.76
0.68
0.00
0.17
0.20
0.43
0.35
0.51
0.35
0.35
0.35
0.35
0.35
0.35
0.35
0.38
0.20
0.20
0.20
0.12
0.12
0.20
0.12
0.12
0.12
0.12
0.12
0.12
0.12
0.12
0.20
0.20
0.20
0.20
0.12
0.12
0.12
0.12
0.12
0.08
0.19
0.19
0.08
0.08
0.08
0.08
0.08
0.08
0.08
0.08
0.08
0.19
0.17
0.17
0.17
0.08
0.08
0.08
0.17
0.17
0.19
0.19
0.08
0.08
0.06
0.06
0.06
0.06
0.06
0.06
0.00
0.00
0.00
0.06
0.00
0.00
0.00
0.00
0.00
0.00
0.00
0.00
0.06
0.06
0.06
0.06
0.17
0.38
0.00
0.70
0.78
0.75
0.75
0.77
0.75
0.67
0.12
0.17
0.20
0.43
0.35
0.51
0.51
0.35
0.35
0.35
0.38
0.38
0.20
0.20
0.20
0.20
0.12
0.12
0.08
0.08
0.08
0.08
0.08
0.12
0.08
0.08
0.12
0.12
0.12
0.12
0.20
0.12
0.12
0.12
0.12
0.12
0.12
0.08
0.08
0.08
0.08
0.08
0.19
0.17
0.08
0.08
0.08
0.08
0.08
0.08
0.08
0.08
0.08
0.06
0.06
0.08
0.08
0.08
0.08
0.08
0.06
0.00
0.00
0.00
0.00
0.00
0.00
0.00
0.12
0.12
0.12
0.00
0.00
0.00
0.12
0.12
0.12
0.12
0.00
0.00
0.12
0.12
0.00
0.00
0.17
0.06
0.70
0.74
0.75
0.80
0.75
0.78
0.71
0.40
0.08
0.19
0.20
0.43
0.43
0.38
0.38
0.20
0.20
0.20
0.20
0.12
0.12
0.08
0.08
0.19
0.19
0.19
0.19
0.17
0.17
0.17
0.17
0.19
0.19
0.19
0.08
0.08
0.08
0.08
0.08
0.08
0.19
0.17
0.08
0.08
0.08
0.08
0.08
0.08
0.08
0.06
0.06
0.06
0.06
0.06
0.06
0.06
0.06
0.06
0.06
0.06
0.00
0.00
0.06
0.06
0.06
0.06
0.00
0.00
0.00
0.12
0.12
0.12
0.00
0.00
0.12
0.12
0.12
0.12
0.12
0.12
0.12
0.21
0.12
0.12
0.12
0.12
0.12
0.12
0.12
0.00
0.00
0.17
0.00
0.69
0.77
0.76
0.80
0.76
0.77
0.71
0.40
0.06
0.19
0.20
0.20
0.20
0.20
0.20
0.20
0.20
0.20
0.12
0.12
0.08
0.08
0.08
0.08
0.08
0.08
0.19
0.08
0.08
0.17
0.19
0.08
0.08
0.08
0.08
0.08
0.12
0.12
0.12
0.12
0.12
0.12
0.12
0.19
0.17
0.08
0.08
0.08
0.08
0.08
0.08
0.08
0.08
0.08
0.08
0.08
0.08
0.08
0.08
0.08
0.08
0.08
0.08
0.08
0.08
0.08
0.06
0.06
0.00
0.00
0.00
0.00
0.00
0.00
0.00
0.00
0.00
0.00
0.00
0.00
0.12
0.12
0.12
0.12
0.12
0.12
0.00
0.00
0.12
0.00
0.06
0.08
0.00
0.67
0.74
0.75
0.78
0.75
0.77
0.71
0.39
0.08
0.08
0.20
0.35
0.35
0.43
0.20
0.20
0.20
0.20
0.20
0.12
0.12
0.12
0.08
0.08
0.19
0.19
0.19
0.17
0.08
0.08
0.17
0.08
0.17
0.19
0.19
0.17
0.08
0.08
0.08
0.08
0.08
0.08
0.08
0.08
0.08
0.08
0.08
0.08
0.08
0.08
0.06
0.06
0.06
0.06
0.00
0.00
0.06
0.00
0.00
0.00
0.00
0.00
0.00
0.06
0.06
0.00
0.00
0.00
0.12
0.21
0.21
0.21
0.21
0.21
0.21
0.21
0.21
0.21
0.21
0.21
0.21
0.21
0.21
0.21
0.21
0.21
0.21
0.21
0.21
0.12
0.06
0.08
0.57
0.74
0.76
0.80
0.80
0.80
0.72
0.57
0.00
0.08
0.12
0.12
0.20
0.20
0.20
0.20
0.12
0.12
0.12
0.12
0.08
0.08
0.19
0.17
0.17
0.17
0.17
0.08
0.08
0.08
0.08
0.08
0.17
0.19
0.19
0.08
0.08
0.08
0.08
0.08
0.08
0.08
0.08
0.08
0.08
0.19
0.17
0.08
0.17
0.17
0.08
0.08
0.08
0.08
0.08
0.08
0.08
0.08
0.08
0.08
0.08
0.08
0.08
0.08
0.08
0.08
0.06
0.00
0.00
0.00
0.00
0.00
0.00
0.00
0.00
0.00
0.00
0.00
0.00
0.12
0.12
0.12
0.00
0.00
0.12
0.12
0.12
0.12
0.00
0.00
0.00
0.08
0.12
0.70
0.77
0.74
0.80
0.75
0.74
0.69
0.12
0.08
0.12
0.38
0.43
0.43
0.35
0.20
0.20
0.20
0.20
0.12
0.12
0.12
0.08
0.08
0.08
0.08
0.17
0.08
0.08
0.08
0.08
0.08
0.08
0.17
0.17
0.19
0.19
0.08
0.08
0.08
0.19
0.08
0.08
0.08
0.08
0.08
0.08
0.06
0.06
0.00
0.00
0.06
0.06
0.00
0.00
0.00
0.00
0.00
0.00
0.00
0.00
0.00
0.00
0.06
0.06
0.06
0.00
0.00
0.00
0.12
0.12
0.21
0.21
0.21
0.21
0.21
0.21
0.12
0.12
0.12
0.12
0.12
0.00
0.00
0.12
0.12
0.12
0.12
0.00
0.00
0.00
0.19
0.00
0.70
0.77
0.75
0.82
0.75
0.77
0.70
0.39
0.06
0.19
0.20
0.43
0.43
0.38
0.38
0.20
0.20
0.20
0.20
0.12
0.12
0.08
0.08
0.08
0.17
0.08
0.08
0.08
0.08
0.06
0.00
0.00
0.00
0.00
0.00
0.00
0.00
0.00
0.00
0.00
0.00
0.00
0.00
0.00
0.00
0.12
0.12
0.12
0.12
0.12
0.12
0.12
0.21
0.21
0.21
0.21
0.21
0.31
0.31
0.31
0.31
0.31
0.21
0.21
0.21
0.31
0.39
0.36
0.39
0.39
0.39
0.39
0.39
0.39
0.39
0.39
0.39
0.52
0.52
0.52
0.39
0.39
0.39
0.52
0.52
0.52
0.39
0.39
0.39
0.40
0.12
0.39
0.70
0.80
0.86
0.94
0.86
0.79
0.72
0.62
0.21
0.06
0.08
0.08
0.17
0.17
0.17
0.08
0.08
0.08
0.08
0.08
0.08
0.08
0.08
0.08
0.08
0.08
0.06
0.06
0.06
0.06
0.06
0.08
0.08
0.08
0.08
0.08
0.08
0.08
0.08
0.08
0.08
0.08
0.08
0.08
0.08
0.08
0.08
0.08
0.08
0.08
0.08
0.08
0.08
0.08
0.08
0.08
0.08
0.08
0.08
0.08
0.08
0.08
0.17
0.17
0.08
0.08
0.08
0.00
0.00
0.06
0.06
0.06
0.00
0.00
0.00
0.00
0.00
0.00
0.00
0.00
0.00
0.00
0.00
0.00
0.00
0.00
0.00
0.00
0.00
0.06
0.08
0.19
0.52
0.74
0.77
0.78
0.75
0.80
0.71
0.52
0.08
0.08
0.38
0.35
0.51
0.51
0.51
0.51
0.35
0.35
0.35
0.35
0.35
0.43
0.20
0.20
0.20
0.20
0.20
0.20
0.20
0.12
0.12
0.12
0.20
0.20
0.20
0.20
0.20
0.20
0.12
0.12
0.20
0.12
0.12
0.12
0.12
0.12
0.12
0.08
0.08
0.08
0.08
0.08
0.08
0.08
0.19
0.19
0.19
0.17
0.17
0.08
0.08
0.08
0.08
0.08
0.19
0.19
0.19
0.08
0.08
0.08
0.06
0.06
0.06
0.06
0.06
0.06
0.00
0.00
0.06
0.06
0.00
0.00
0.00
0.00
0.00
0.00
0.00
0.00
0.00
0.00
0.00
0.08
0.08
0.06
0.69
0.78
0.75
0.75
0.76
0.75
0.69
0.12
0.08
0.20
0.35
0.51
0.51
0.51
0.35
0.35
0.35
0.35
0.35
0.43
0.43
0.20
0.20
0.20
0.12
0.12
0.08
0.08
0.08
0.08
0.08
0.08
0.08
0.08
0.08
0.12
0.12
0.12
0.12
0.12
0.12
0.08
0.08
0.08
0.19
0.19
0.17
0.17
0.08
0.08
0.08
0.08
0.08
0.08
0.08
0.08
0.08
0.08
0.08
0.08
0.08
0.08
0.08
0.08
0.08
0.08
0.08
0.08
0.00
0.00
0.00
0.00
0.00
0.00
0.00
0.00
0.00
0.00
0.00
0.00
0.00
0.00
0.00
0.00
0.00
0.00
0.00
0.00
0.00
0.00
0.06
0.19
0.08
0.66
0.75
0.76
0.80
0.74
0.78
0.71
0.39
0.08
0.19
0.20
0.43
0.38
0.38
0.38
0.38
0.20
0.20
0.20
0.20
0.12
0.12
0.08
0.08
0.08
0.08
0.17
0.17
0.19
0.19
0.19
0.19
0.19
0.08
0.08
0.08
0.08
0.08
0.08
0.08
0.08
0.08
0.08
0.19
0.17
0.08
0.08
0.08
0.17
0.08
0.08
0.08
0.08
0.08
0.08
0.08
0.08
0.08
0.08
0.08
0.08
0.00
0.00
0.06
0.06
0.06
0.06
0.00
0.00
0.00
0.12
0.12
0.12
0.12
0.12
0.12
0.00
0.00
0.00
0.00
0.12
0.12
0.00
0.00
0.00
0.00
0.00
0.00
0.00
0.00
0.06
0.08
0.08
0.57
0.73
0.75
0.78
0.78
0.77
0.70
0.39
0.00
0.17
0.08
0.12
0.12
0.12
0.12
0.12
0.08
0.08
0.19
0.17
0.08
0.08
0.08
0.08
0.06
0.06
0.00
0.00
0.00
0.00
0.00
0.00
0.12
0.00
0.00
0.00
0.00
0.00
0.00
0.00
0.00
0.00
0.00
0.12
0.12
0.12
0.12
0.12
0.12
0.21
0.21
0.21
0.21
0.21
0.21
0.21
0.21
0.21
0.21
0.31
0.31
0.39
0.31
0.21
0.21
0.31
0.31
0.31
0.40
0.39
0.39
0.39
0.39
0.39
0.39
0.39
0.39
0.39
0.39
0.39
0.39
0.39
0.39
0.39
0.39
0.39
0.36
0.36
0.36
0.36
0.39
0.00
0.00
0.67
0.75
0.75
0.91
0.90
0.76
0.75
0.67
0.21
0.06
0.08
0.08
0.12
0.12
0.12
0.12
0.12
0.08
0.08
0.12
0.12
0.12
0.12
0.12
0.08
0.08
0.08
0.08
0.08
0.08
0.08
0.08
0.08
0.08
0.08
0.08
0.08
0.08
0.12
0.12
0.12
0.12
0.12
0.12
0.08
0.08
0.08
0.08
0.08
0.08
0.08
0.08
0.08
0.19
0.19
0.08
0.08
0.17
0.08
0.08
0.08
0.08
0.08
0.17
0.17
0.17
0.17
0.08
0.06
0.00
0.00
0.06
0.06
0.06
0.06
0.06
0.00
0.00
0.06
0.06
0.00
0.00
0.00
0.00
0.00
0.00
0.00
0.00
0.00
0.00
0.00
0.17
0.08
0.21
0.71
0.78
0.74
0.78
0.78
0.75
0.67
0.12
0.17
0.20
0.43
0.35
0.35
0.35
0.35
0.35
0.43
0.38
0.38
0.20
0.20
0.20
0.12
0.12
0.12
0.08
0.08
0.08
0.08
0.08
0.08
0.08
0.08
0.08
0.08
0.12
0.12
0.12
0.08
0.08
0.12
0.08
0.08
0.08
0.08
0.08
0.08
0.19
0.17
0.08
0.08
0.08
0.08
0.19
0.17
0.17
0.17
0.08
0.08
0.08
0.08
0.08
0.08
0.08
0.17
0.17
0.08
0.06
0.06
0.06
0.06
0.06
0.06
0.06
0.00
0.00
0.06
0.06
0.06
0.06
0.00
0.00
0.00
0.00
0.00
0.06
0.06
0.06
0.00
0.06
0.19
0.12
0.12
0.71
0.78
0.75
0.75
0.78
0.73
0.62
0.00
0.19
0.38
0.35
0.51
0.51
0.51
0.51
0.51
0.35
0.35
0.35
0.43
0.43
0.38
0.20
0.20
0.20
0.12
0.12
0.12
0.12
0.12
0.12
0.12
0.12
0.12
0.12
0.12
0.12
0.20
0.12
0.12
0.12
0.12
0.12
0.12
0.12
0.08
0.08
0.08
0.12
0.08
0.08
0.08
0.08
0.19
0.19
0.17
0.08
0.06
0.06
0.06
0.00
0.00
0.00
0.00
0.00
0.00
0.00
0.00
0.12
0.21
0.31
0.21
0.21
0.21
0.21
0.31
0.31
0.31
0.39
0.39
0.40
0.40
0.36
0.36
0.36
0.40
0.40
0.36
0.36
0.36
0.39
0.12
0.21
0.67
0.75
0.75
0.91
0.94
0.76
0.76
0.70
0.40
0.00
0.00
0.06
0.08
0.06
0.06
0.06
0.06
0.08
0.06
0.00
0.00
0.00
0.00
0.00
0.00
0.00
0.00
0.12
0.12
0.12
0.12
0.21
0.21
0.21
0.12
0.12
0.00
0.00
0.12
0.12
0.12
0.12
0.12
0.12
0.12
0.12
0.12
0.12
0.12
0.12
0.21
0.21
0.21
0.21
0.21
0.21
0.21
0.21
0.21
0.21
0.21
0.12
0.12
0.12
0.00
0.00
0.12
0.21
0.31
0.31
0.31
0.31
0.21
0.21
0.21
0.21
0.21
0.21
0.31
0.31
0.21
0.21
0.21
0.21
0.21
0.21
0.21
0.21
0.12
0.00
0.08
0.06
0.66
0.74
0.75
0.86
0.82
0.80
0.70
0.40
0.06
0.08
0.20
0.43
0.35
0.35
0.35
0.35
0.35
0.35
0.35
0.35
0.43
0.43
0.43
0.38
0.38
0.38
0.20
0.20
0.20
0.20
0.20
0.20
0.20
0.20
0.20
0.20
0.20
0.20
0.20
0.20
0.20
0.20
0.20
0.12
0.12
0.12
0.12
0.12
0.12
0.12
0.12
0.12
0.12
0.12
0.12
0.08
0.08
0.12
0.19
0.19
0.08
0.08
0.08
0.12
0.12
0.08
0.08
0.17
0.08
0.08
0.08
0.08
0.08
0.08
0.08
0.08
0.08
0.08
0.08
0.08
0.08
0.08
0.08
0.08
0.08
0.08
0.08
0.08
0.08
0.08
0.08
0.35
0.08
0.69
0.78
0.75
0.75
0.78
0.75
0.62
0.06
0.12
0.35
0.51
0.65
0.65
0.65
0.65
0.65
0.65
0.65
0.51
0.35
0.35
0.35
0.35
0.35
0.35
0.43
0.20
0.20
0.20
0.20
0.20
0.20
0.20
0.20
0.20
0.20
0.20
0.38
0.38
0.20
0.20
0.20
0.20
0.20
0.12
0.12
0.12
0.08
0.08
0.08
0.08
0.08
0.08
0.08
0.08
0.19
0.19
0.08
0.19
0.17
0.08
0.08
0.08
0.08
0.17
0.19
0.08
0.08
0.06
0.06
0.00
0.00
0.00
0.00
0.00
0.00
0.00
0.00
0.00
0.00
0.00
0.00
0.00
0.00
0.00
0.00
0.00
0.00
0.00
0.00
0.00
0.08
0.08
0.06
0.70
0.76
0.76
0.74
0.76
0.76
0.68
0.31
0.08
0.12
0.38
0.35
0.35
0.35
0.35
0.43
0.38
0.38
0.20
0.20
0.12
0.12
0.12
0.08
0.08
0.08
0.19
0.19
0.19
0.17
0.17
0.17
0.17
0.19
0.08
0.08
0.08
0.17
0.08
0.08
0.08
0.08
0.08
0.08
0.08
0.08
0.08
0.08
0.08
0.08
0.08
0.08
0.08
0.08
0.08
0.08
0.08
0.06
0.06
0.06
0.06
0.06
0.08
0.08
0.08
0.08
0.06
0.00
0.00
0.12
0.12
0.12
0.00
0.00
0.00
0.00
0.00
0.12
0.12
0.12
0.12
0.12
0.12
0.12
0.12
0.12
0.12
0.12
0.12
0.00
0.06
0.08
0.39
0.69
0.77
0.74
0.80
0.76
0.75
0.69
0.21
0.08
0.08
0.20
0.38
0.20
0.20
0.20
0.20
0.20
0.12
0.12
0.12
0.12
0.08
0.08
0.08
0.08
0.19
0.19
0.17
0.19
0.08
0.17
0.19
0.08
0.08
0.08
0.08
0.08
0.19
0.08
0.08
0.08
0.08
0.08
0.08
0.08
0.08
0.08
0.08
0.08
0.08
0.08
0.08
0.06
0.06
0.06
0.06
0.06
0.06
0.06
0.00
0.00
0.00
0.00
0.06
0.06
0.06
0.06
0.06
0.00
0.00
0.12
0.12
0.12
0.12
0.00
0.00
0.12
0.12
0.12
0.00
0.00
0.00
0.00
0.00
0.00
0.00
0.00
0.00
0.00
0.12
0.00
0.06
0.08
0.36
0.71
0.80
0.78
0.82
0.75
0.75
0.69
0.31
0.00
0.08
0.08
0.08
0.08
0.08
0.19
0.08
0.08
0.08
0.08
0.08
0.08
0.08
0.06
0.06
0.06
0.00
0.00
0.00
0.00
0.12
0.12
0.12
0.12
0.12
0.12
0.12
0.12
0.12
0.12
0.12
0.12
0.12
0.12
0.12
0.21
0.12
0.00
0.00
0.00
0.08
0.12
0.35
0.51
0.76
0.87
0.90
0.96
0.96
0.97
0.98
0.98
0.91
0.43
0.52
0.69
0.71
0.72
0.73
0.73
0.73
0.73
0.72
0.72
0.72
0.72
0.72
0.72
0.71
0.71
0.70
0.71
0.71
0.69
0.71
0.71
0.71
0.70
0.70
0.68
0.69
0.67
0.66
0.59
0.52
0.39
0.36
0.31
0.21
0.12
0.12
0.00
0.00
0.00
0.00
0.00
0.00
0.00
0.00
0.06
0.06
0.00
0.00
0.06
0.06
0.06
0.06
0.06
0.06
0.06
0.06
0.06
0.06
0.06
0.06
0.06
0.06
0.06
0.06
0.06
0.06
0.08
0.08
0.06
0.06
0.06
0.08
0.08
0.06
0.06
0.06
0.06
0.06
0.06
0.06
0.06
0.06
0.06
0.06
0.08
0.08
0.06
0.06
0.06
0.08
0.08
0.08
0.17
0.08
0.08
0.08
0.06
0.06
0.06
0.06
0.08
0.08
0.08
0.08
0.08
0.08
0.08
0.08
0.06
0.06
0.08
0.08
0.08
0.08
0.08
0.08
0.17
0.38
0.08
0.39
0.75
0.75
0.75
0.76
0.78
0.70
0.21
0.19
0.43
0.35
0.65
0.65
0.65
0.65
0.65
0.65
0.51
0.51
0.51
0.51
0.35
0.43
0.43
0.35
0.35
0.43
0.43
0.38
0.20
0.38
0.43
0.43
0.35
0.51
0.51
0.51
0.51
0.51
0.65
0.51
0.51
0.51
0.51
0.35
0.35
0.35
0.38
0.38
0.20
0.12
0.12
0.12
0.12
0.12
0.12
0.08
0.08
0.08
0.08
0.08
0.08
0.17
0.17
0.17
0.17
0.17
0.17
0.17
0.08
0.08
0.06
0.00
0.00
0.00
0.00
0.00
0.00
0.00
0.00
0.00
0.00
0.00
0.00
0.00
0.00
0.00
0.00
0.00
0.00
0.00
0.00
0.00
0.00
0.08
0.17
0.39
0.72
0.78
0.74
0.75
0.77
0.70
0.36
0.06
0.19
0.20
0.43
0.43
0.43
0.38
0.20
0.20
0.20
0.20
0.20
0.12
0.12
0.08
0.08
0.08
0.08
0.19
0.17
0.17
0.17
0.17
0.08
0.08
0.17
0.19
0.19
0.19
0.08
0.08
0.08
0.08
0.19
0.19
0.17
0.08
0.08
0.08
0.06
0.06
0.06
0.06
0.06
0.06
0.06
0.06
0.06
0.06
0.06
0.00
0.00
0.00
0.00
0.00
0.06
0.06
0.06
0.00
0.00
0.00
0.12
0.12
0.12
0.12
0.12
0.12
0.21
0.12
0.12
0.12
0.12
0.12
0.21
0.21
0.21
0.12
0.12
0.00
0.00
0.00
0.00
0.00
0.17
0.06
0.66
0.75
0.75
0.80
0.74
0.77
0.70
0.39
0.06
0.17
0.12
0.20
0.20
0.20
0.20
0.20
0.20
0.20
0.12
0.12
0.08
0.08
0.08
0.08
0.19
0.19
0.08
0.19
0.19
0.19
0.19
0.19
0.19
0.19
0.08
0.08
0.08
0.08
0.08
0.08
0.08
0.08
0.08
0.08
0.17
0.17
0.08
0.08
0.08
0.08
0.08
0.08
0.08
0.06
0.06
0.06
0.06
0.06
0.00
0.00
0.00
0.00
0.00
0.00
0.06
0.00
0.00
0.00
0.00
0.00
0.12
0.12
0.12
0.12
0.12
0.12
0.12
0.12
0.21
0.21
0.12
0.12
0.00
0.00
0.00
0.00
0.00
0.00
0.00
0.00
0.00
0.08
0.08
0.00
0.70
0.78
0.75
0.80
0.75
0.77
0.70
0.39
0.06
0.17
0.12
0.12
0.12
0.12
0.08
0.08
0.19
0.17
0.08
0.08
0.08
0.08
0.08
0.06
0.06
0.00
0.00
0.00
0.00
0.00
0.00
0.00
0.00
0.00
0.00
0.00
0.00
0.00
0.00
0.00
0.00
0.00
0.12
0.12
0.12
0.12
0.21
0.21
0.21
0.21
0.31
0.21
0.21
0.31
0.31
0.31
0.31
0.31
0.31
0.39
0.39
0.31
0.31
0.31
0.31
0.31
0.39
0.40
0.36
0.39
0.39
0.39
0.39
0.39
0.39
0.39
0.39
0.39
0.39
0.52
0.52
0.52
0.52
0.52
0.52
0.39
0.52
0.52
0.52
0.39
0.40
0.21
0.52
0.70
0.79
0.91
0.95
0.94
0.78
0.72
0.62
0.21
0.00
0.08
0.08
0.08
0.08
0.08
0.08
0.08
0.17
0.08
0.08
0.17
0.08
0.08
0.08
0.08
0.08
0.08
0.08
0.08
0.08
0.08
0.08
0.08
0.08
0.08
0.08
0.19
0.08
0.08
0.08
0.08
0.08
0.08
0.08
0.08
0.19
0.19
0.08
0.19
0.19
0.17
0.17
0.17
0.19
0.19
0.17
0.17
0.17
0.08
0.08
0.08
0.08
0.08
0.19
0.08
0.08
0.19
0.08
0.08
0.08
0.08
0.06
0.06
0.06
0.08
0.06
0.06
0.06
0.06
0.06
0.06
0.06
0.06
0.00
0.00
0.06
0.06
0.06
0.06
0.06
0.06
0.17
0.20
0.12
0.70
0.78
0.74
0.78
0.77
0.75
0.62
0.00
0.08
0.20
0.43
0.35
0.51
0.51
0.51
0.35
0.35
0.35
0.43
0.43
0.38
0.20
0.20
0.20
0.12
0.12
0.12
0.12
0.12
0.12
0.12
0.12
0.12
0.12
0.12
0.20
0.12
0.12
0.12
0.12
0.12
0.12
0.08
0.08
0.19
0.19
0.19
0.08
0.08
0.08
0.19
0.19
0.19
0.19
0.17
0.17
0.08
0.08
0.17
0.08
0.08
0.08
0.17
0.17
0.17
0.19
0.19
0.17
0.08
0.06
0.00
0.00
0.00
0.06
0.06
0.06
0.00
0.00
0.06
0.00
0.00
0.06
0.00
0.00
0.00
0.06
0.06
0.06
0.06
0.00
0.00
0.08
0.20
0.00
0.70
0.78
0.75
0.78
0.75
0.74
0.69
0.21
0.17
0.12
0.43
0.51
0.51
0.51
0.51
0.51
0.35
0.35
0.35
0.35
0.43
0.38
0.20
0.20
0.20
0.12
0.12
0.12
0.12
0.12
0.12
0.12
0.12
0.20
0.20
0.20
0.20
0.20
0.20
0.12
0.12
0.12
0.12
0.12
0.08
0.08
0.08
0.08
0.08
0.08
0.08
0.17
0.19
0.19
0.19
0.19
0.19
0.08
0.08
0.08
0.08
0.08
0.08
0.08
0.08
0.17
0.19
0.08
0.08
0.06
0.00
0.00
0.06
0.06
0.06
0.00
0.00
0.00
0.00
0.00
0.00
0.00
0.00
0.00
0.00
0.00
0.00
0.00
0.00
0.00
0.00
0.06
0.08
0.19
0.40
0.71
0.80
0.75
0.75
0.77
0.71
0.52
0.08
0.08
0.38
0.35
0.51
0.51
0.51
0.35
0.35
0.35
0.35
0.43
0.43
0.38
0.20
0.12
0.12
0.08
0.08
0.08
0.08
0.12
0.12
0.08
0.08
0.12
0.12
0.12
0.12
0.08
0.08
0.08
0.08
0.08
0.17
0.17
0.08
0.08
0.08
0.08
0.08
0.08
0.08
0.08
0.08
0.08
0.08
0.08
0.08
0.08
0.08
0.08
0.08
0.06
0.06
0.08
0.08
0.08
0.08
0.08
0.00
0.00
0.00
0.00
0.00
0.00
0.00
0.00
0.00
0.12
0.12
0.00
0.00
0.00
0.12
0.12
0.12
0.12
0.12
0.12
0.12
0.12
0.00
0.00
0.08
0.06
0.66
0.75
0.76
0.78
0.75
0.77
0.71
0.39
0.06
0.19
0.20
0.38
0.43
0.43
0.38
0.20
0.20
0.20
0.12
0.12
0.12
0.12
0.08
0.08
0.17
0.17
0.08
0.08
0.08
0.08
0.08
0.08
0.08
0.08
0.08
0.08
0.08
0.08
0.08
0.08
0.08
0.08
0.08
0.08
0.08
0.08
0.06
0.06
0.06
0.06
0.00
0.00
0.06
0.06
0.00
0.00
0.00
0.00
0.00
0.00
0.00
0.00
0.00
0.00
0.00
0.00
0.06
0.00
0.00
0.00
0.12
0.21
0.21
0.21
0.21
0.21
0.21
0.21
0.12
0.12
0.21
0.21
0.21
0.21
0.21
0.21
0.21
0.21
0.21
0.12
0.00
0.06
0.08
0.00
0.69
0.74
0.76
0.75
0.76
0.78
0.70
0.31
0.08
0.08
0.20
0.20
0.38
0.20
0.20
0.20
0.20
0.12
0.08
0.08
0.08
0.17
0.08
0.08
0.08
0.06
0.06
0.06
0.00
0.00
0.00
0.00
0.00
0.00
0.00
0.00
0.00
0.00
0.00
0.00
0.00
0.00
0.00
0.12
0.12
0.12
0.12
0.12
0.21
0.21
0.21
0.21
0.21
0.21
0.21
0.21
0.31
0.31
0.31
0.31
0.31
0.39
0.31
0.31
0.21
0.21
0.31
0.39
0.36
0.39
0.39
0.39
0.39
0.39
0.36
0.36
0.36
0.36
0.36
0.36
0.36
0.36
0.40
0.40
0.40
0.39
0.39
0.39
0.31
0.21
0.12
0.00
0.12
0.69
0.77
0.78
0.90
0.86
0.80
0.71
0.52
0.00
0.08
0.19
0.08
0.12
0.12
0.12
0.12
0.12
0.12
0.12
0.08
0.08
0.08
0.08
0.08
0.19
0.19
0.17
0.17
0.17
0.17
0.17
0.17
0.17
0.19
0.19
0.08
0.08
0.08
0.08
0.08
0.08
0.08
0.08
0.08
0.19
0.17
0.17
0.17
0.08
0.08
0.17
0.17
0.08
0.08
0.08
0.08
0.08
0.08
0.08
0.08
0.08
0.08
0.08
0.08
0.08
0.08
0.08
0.08
0.06
0.00
0.00
0.06
0.06
0.06
0.00
0.00
0.00
0.00
0.00
0.00
0.00
0.00
0.06
0.06
0.06
0.06
0.06
0.06
0.06
0.06
0.08
0.20
0.08
0.66
0.74
0.76
0.78
0.76
0.77
0.70
0.31
0.17
0.20
0.43
0.51
0.51
0.51
0.35
0.35
0.51
0.35
0.43
0.43
0.43
0.43
0.38
0.20
0.20
0.20
0.12
0.12
0.12
0.12
0.12
0.12
0.12
0.12
0.20
0.20
0.20
0.20
0.20
0.20
0.20
0.12
0.12
0.12
0.12
0.08
0.08
0.08
0.08
0.08
0.19
0.19
0.19
0.19
0.17
0.17
0.17
0.08
0.08
0.08
0.08
0.08
0.08
0.08
0.17
0.17
0.17
0.08
0.08
0.06
0.06
0.06
0.06
0.06
0.06
0.06
0.00
0.00
0.06
0.06
0.00
0.00
0.00
0.00
0.00
0.00
0.00
0.00
0.00
0.00
0.06
0.08
0.12
0.17
0.39
0.72
0.79
0.75
0.75
0.78
0.71
0.36
0.08
0.08
0.38
0.35
0.43
0.43
0.35
0.35
0.43
0.38
0.20
0.20
0.20
0.12
0.12
0.08
0.08
0.08
0.08
0.08
0.08
0.08
0.08
0.19
0.19
0.08
0.08
0.08
0.08
0.08
0.08
0.08
0.08
0.08
0.08
0.08
0.08
0.17
0.19
0.12
0.43
0.76
0.80
0.83
0.89
0.93
0.97
0.98
0.98
0.99
0.99
0.98
0.90
0.12
0.57
0.68
0.70
0.70
0.70
0.71
0.69
0.69
0.71
0.69
0.69
0.69
0.69
0.69
0.71
0.71
0.71
0.70
0.70
0.70
0.70
0.70
0.69
0.66
0.62
0.62
0.57
0.52
0.36
0.40
0.31
0.21
0.12
0.00
0.00
0.00
0.06
0.06
0.06
0.08
0.08
0.08
0.08
0.06
0.06
0.08
0.08
0.06
0.06
0.06
0.06
0.06
0.06
0.06
0.06
0.06
0.06
0.06
0.06
0.06
0.06
0.06
0.06
0.00
0.00
0.06
0.06
0.06
0.00
0.00
0.00
0.00
0.00
0.00
0.00
0.00
0.00
0.00
0.00
0.00
0.00
0.00
0.00
0.00
0.00
0.00
0.00
0.00
0.00
0.00
0.00
0.00
0.00
0.00
0.00
0.00
0.00
0.00
0.06
0.00
0.00
0.00
0.12
0.12
0.00
0.00
0.00
0.00
0.00
0.00
0.00
0.00
0.00
0.00
0.00
0.00
0.00
0.00
0.00
0.00
0.00
0.00
0.08
0.17
0.40
0.69
0.77
0.75
0.74
0.80
0.72
0.57
0.00
0.19
0.38
0.35
0.35
0.35
0.35
0.35
0.35
0.38
0.38
0.20
0.20
0.20
0.12
0.12
0.12
0.12
0.12
0.12
0.12
0.12
0.12
0.12
0.12
0.12
0.20
0.20
0.20
0.20
0.20
0.20
0.38
0.38
0.38
0.20
0.20
0.20
0.20
0.12
0.12
0.08
0.08
0.19
0.19
0.19
0.08
0.08
0.08
0.08
0.08
0.08
0.08
0.08
0.08
0.08
0.08
0.08
0.08
0.08
0.00
0.00
0.00
0.00
0.00
0.00
0.12
0.12
0.12
0.12
0.12
0.12
0.21
0.21
0.21
0.21
0.12
0.12
0.21
0.21
0.21
0.21
0.12
0.00
0.08
0.06
0.62
0.75
0.75
0.82
0.78
0.80
0.70
0.36
0.00
0.17
0.12
0.20
0.20
0.20
0.20
0.20
0.12
0.12
0.12
0.12
0.08
0.08
0.19
0.19
0.08
0.08
0.08
0.08
0.08
0.08
0.06
0.06
0.06
0.08
0.08
0.08
0.08
0.08
0.08
0.08
0.08
0.08
0.08
0.06
0.06
0.06
0.06
0.06
0.06
0.06
0.00
0.00
0.00
0.00
0.00
0.00
0.00
0.00
0.00
0.00
0.00
0.00
0.00
0.00
0.00
0.00
0.00
0.00
0.12
0.21
0.31
0.21
0.21
0.21
0.21
0.31
0.31
0.31
0.31
0.31
0.31
0.31
0.31
0.31
0.21
0.21
0.12
0.12
0.12
0.12
0.00
0.00
0.19
0.21
0.71
0.80
0.75
0.86
0.75
0.74
0.68
0.31
0.08
0.19
0.12
0.20
0.20
0.20
0.20
0.12
0.12
0.12
0.12
0.12
0.12
0.12
0.12
0.08
0.08
0.08
0.08
0.08
0.19
0.17
0.17
0.17
0.17
0.17
0.17
0.08
0.08
0.08
0.08
0.08
0.08
0.08
0.08
0.08
0.08
0.06
0.00
0.00
0.00
0.00
0.00
0.00
0.00
0.00
0.12
0.12
0.12
0.12
0.21
0.21
0.21
0.21
0.21
0.12
0.12
0.12
0.21
0.39
0.36
0.36
0.39
0.36
0.36
0.36
0.36
0.36
0.40
0.36
0.36
0.36
0.36
0.36
0.36
0.36
0.36
0.40
0.40
0.31
0.31
0.31
0.12
0.00
0.31
0.70
0.77
0.75
0.90
0.80
0.78
0.71
0.52
0.00
0.08
0.19
0.08
0.08
0.08
0.08
0.08
0.08
0.08
0.08
0.19
0.19
0.17
0.08
0.08
0.08
0.08
0.08
0.08
0.08
0.08
0.08
0.08
0.08
0.08
0.08
0.08
0.17
0.17
0.17
0.19
0.19
0.19
0.08
0.08
0.08
0.08
0.08
0.08
0.08
0.08
0.08
0.08
0.08
0.08
0.08
0.08
0.08
0.08
0.08
0.08
0.08
0.08
0.08
0.08
0.08
0.08
0.08
0.00
0.00
0.00
0.00
0.00
0.00
0.00
0.00
0.00
0.00
0.00
0.00
0.00
0.00
0.00
0.00
0.00
0.00
0.00
0.00
0.00
0.00
0.00
0.06
0.08
0.08
0.57
0.75
0.76
0.80
0.75
0.78
0.71
0.39
0.06
0.08
0.38
0.35
0.35
0.35
0.35
0.35
0.35
0.35
0.35
0.43
0.38
0.20
0.20
0.12
0.12
0.12
0.12
0.12
0.08
0.08
0.12
0.08
0.08
0.12
0.12
0.12
0.12
0.12
0.12
0.12
0.12
0.12
0.12
0.12
0.08
0.08
0.08
0.19
0.17
0.17
0.19
0.19
0.17
0.17
0.17
0.08
0.08
0.08
0.08
0.08
0.08
0.08
0.08
0.08
0.17
0.17
0.17
0.17
0.08
0.06
0.06
0.06
0.00
0.00
0.06
0.06
0.00
0.00
0.00
0.06
0.00
0.00
0.00
0.00
0.00
0.00
0.00
0.00
0.00
0.00
0.00
0.06
0.17
0.19
0.36
0.71
0.79
0.75
0.75
0.80
0.71
0.52
0.00
0.19
0.20
0.35
0.35
0.35
0.35
0.35
0.38
0.20
0.20
0.20
0.20
0.12
0.12
0.08
0.08
0.08
0.08
0.17
0.17
0.08
0.08
0.08
0.19
0.08
0.08
0.08
0.08
0.08
0.08
0.08
0.08
0.08
0.08
0.19
0.17
0.17
0.08
0.08
0.08
0.08
0.08
0.08
0.08
0.08
0.08
0.08
0.08
0.06
0.06
0.06
0.00
0.00
0.00
0.00
0.00
0.06
0.06
0.00
0.00
0.00
0.12
0.12
0.12
0.00
0.12
0.12
0.00
0.00
0.00
0.00
0.00
0.00
0.00
0.00
0.00
0.00
0.00
0.00
0.00
0.00
0.00
0.08
0.19
0.21
0.71
0.78
0.75
0.86
0.75
0.74
0.70
0.12
0.08
0.08
0.12
0.20
0.20
0.20
0.20
0.20
0.20
0.20
0.12
0.12
0.08
0.08
0.08
0.17
0.17
0.17
0.08
0.08
0.08
0.08
0.17
0.17
0.17
0.19
0.17
0.19
0.19
0.19
0.19
0.08
0.08
0.19
0.17
0.08
0.08
0.17
0.08
0.08
0.08
0.08
0.08
0.08
0.08
0.08
0.08
0.08
0.06
0.06
0.06
0.00
0.00
0.00
0.00
0.00
0.06
0.06
0.06
0.00
0.00
0.12
0.12
0.12
0.12
0.00
0.00
0.00
0.00
0.00
0.00
0.00
0.00
0.12
0.00
0.00
0.00
0.00
0.00
0.00
0.00
0.00
0.00
0.19
0.19
0.39
0.71
0.78
0.75
0.75
0.80
0.72
0.52
0.06
0.08
0.20
0.43
0.35
0.35
0.35
0.43
0.43
0.43
0.38
0.20
0.20
0.20
0.12
0.12
0.08
0.08
0.08
0.19
0.17
0.08
0.08
0.08
0.08
0.08
0.08
0.08
0.08
0.08
0.08
0.08
0.08
0.08
0.08
0.17
0.08
0.08
0.08
0.08
0.08
0.08
0.08
0.08
0.08
0.08
0.08
0.08
0.08
0.08
0.06
0.06
0.06
0.06
0.06
0.06
0.08
0.08
0.06
0.00
0.00
0.00
0.00
0.12
0.12
0.12
0.12
0.12
0.12
0.12
0.12
0.12
0.12
0.12
0.12
0.12
0.12
0.12
0.12
0.12
0.12
0.12
0.00
0.17
0.06
0.59
0.75
0.76
0.80
0.75
0.80
0.71
0.52
0.06
0.19
0.20
0.43
0.38
0.38
0.38
0.38
0.38
0.20
0.12
0.12
0.12
0.08
0.08
0.08
0.19
0.17
0.08
0.08
0.08
0.08
0.08
0.17
0.17
0.19
0.19
0.08
0.08
0.08
0.08
0.08
0.08
0.17
0.17
0.08
0.08
0.08
0.06
0.06
0.06
0.06
0.06
0.00
0.00
0.06
0.00
0.00
0.00
0.00
0.00
0.00
0.00
0.00
0.00
0.00
0.06
0.00
0.00
0.00
0.12
0.12
0.21
0.21
0.21
0.21
0.21
0.21
0.21
0.21
0.12
0.12
0.12
0.12
0.12
0.21
0.12
0.12
0.12
0.21
0.21
0.12
0.00
0.08
0.06
0.62
0.75
0.75
0.86
0.78
0.80
0.72
0.59
0.00
0.08
0.08
0.12
0.12
0.20
0.12
0.12
0.12
0.08
0.08
0.08
0.08
0.08
0.08
0.19
0.19
0.19
0.19
0.19
0.19
0.19
0.19
0.17
0.17
0.19
0.08
0.17
0.17
0.19
0.08
0.19
0.08
0.08
0.08
0.08
0.08
0.08
0.08
0.06
0.00
0.00
0.00
0.00
0.00
0.00
0.00
0.00
0.12
0.12
0.12
0.12
0.21
0.21
0.12
0.12
0.12
0.12
0.12
0.21
0.40
0.40
0.40
0.36
0.36
0.36
0.36
0.36
0.39
0.36
0.36
0.39
0.39
0.39
0.52
0.39
0.39
0.52
0.52
0.39
0.39
0.52
0.39
0.31
0.31
0.66
0.75
0.75
0.94
0.94
0.82
0.77
0.71
0.57
0.21
0.00
0.06
0.06
0.06
0.06
0.06
0.06
0.06
0.00
0.00
0.00
0.06
0.00
0.00
0.00
0.00
0.00
0.00
0.00
0.00
0.00
0.00
0.00
0.00
0.00
0.00
0.06
0.06
0.06
0.06
0.06
0.06
0.00
0.00
0.06
0.06
0.06
0.06
0.00
0.00
0.06
0.06
0.00
0.00
0.06
0.06
0.06
0.00
0.00
0.00
0.00
0.06
0.06
0.08
0.08
0.08
0.06
0.00
0.00
0.00
0.00
0.00
0.00
0.00
0.00
0.00
0.00
0.00
0.00
0.00
0.00
0.00
0.00
0.00
0.00
0.00
0.00
0.00
0.00
0.00
0.08
0.19
0.31
0.71
0.80
0.78
0.82
0.75
0.75
0.67
0.00
0.19
0.20
0.35
0.35
0.35
0.35
0.35
0.35
0.35
0.35
0.38
0.38
0.20
0.20
0.38
0.20
0.20
0.12
0.12
0.12
0.12
0.12
0.12
0.12
0.12
0.12
0.12
0.20
0.20
0.12
0.12
0.12
0.12
0.12
0.12
0.12
0.08
0.08
0.08
0.08
0.08
0.08
0.08
0.08
0.08
0.08
0.08
0.19
0.19
0.17
0.17
0.17
0.08
0.08
0.08
0.19
0.19
0.19
0.17
0.08
0.08
0.06
0.06
0.06
0.06
0.06
0.00
0.00
0.06
0.06
0.06
0.06
0.06
0.06
0.00
0.00
0.00
0.00
0.06
0.06
0.06
0.06
0.06
0.19
0.20
0.21
0.71
0.79
0.75
0.75
0.79
0.72
0.57
0.00
0.08
0.38
0.43
0.35
0.35
0.35
0.35
0.35
0.35
0.43
0.38
0.38
0.20
0.20
0.12
0.12
0.12
0.12
0.12
0.12
0.08
0.08
0.12
0.12
0.12
0.12
0.12
0.20
0.12
0.12
0.12
0.12
0.12
0.12
0.12
0.08
0.08
0.08
0.08
0.08
0.08
0.08
0.19
0.19
0.19
0.19
0.17
0.17
0.08
0.08
0.08
0.08
0.08
0.08
0.08
0.08
0.17
0.17
0.08
0.08
0.06
0.00
0.00
0.00
0.00
0.00
0.00
0.00
0.00
0.00
0.00
0.00
0.00
0.00
0.00
0.00
0.00
0.00
0.00
0.00
0.00
0.00
0.00
0.19
0.17
0.52
0.74
0.77
0.75
0.74
0.78
0.70
0.39
0.06
0.19
0.20
0.43
0.35
0.35
0.43
0.43
0.43
0.20
0.20
0.12
0.12
0.12
0.08
0.08
0.08
0.19
0.17
0.08
0.08
0.17
0.17
0.08
0.19
0.19
0.08
0.08
0.08
0.08
0.08
0.08
0.08
0.08
0.08
0.17
0.17
0.17
0.08
0.08
0.08
0.08
0.08
0.08
0.08
0.08
0.08
0.08
0.08
0.08
0.08
0.06
0.06
0.06
0.08
0.08
0.08
0.08
0.08
0.06
0.00
0.00
0.00
0.00
0.00
0.00
0.00
0.00
0.00
0.00
0.00
0.00
0.00
0.00
0.00
0.00
0.00
0.00
0.00
0.00
0.00
0.00
0.00
0.17
0.08
0.36
0.71
0.78
0.80
0.78
0.79
0.73
0.62
0.00
0.17
0.12
0.20
0.38
0.38
0.20
0.20
0.20
0.20
0.20
0.12
0.12
0.12
0.08
0.19
0.19
0.19
0.19
0.08
0.08
0.08
0.08
0.08
0.08
0.08
0.08
0.12
0.12
0.12
0.12
0.12
0.08
0.08
0.08
0.17
0.08
0.08
0.08
0.08
0.08
0.06
0.06
0.06
0.00
0.00
0.00
0.00
0.00
0.00
0.00
0.12
0.12
0.21
0.12
0.12
0.12
0.12
0.12
0.12
0.21
0.31
0.40
0.36
0.36
0.40
0.40
0.36
0.36
0.36
0.36
0.36
0.36
0.39
0.39
0.39
0.39
0.39
0.39
0.39
0.39
0.39
0.36
0.39
0.12
0.40
0.71
0.78
0.80
0.94
0.94
0.75
0.75
0.70
0.39
0.00
0.06
0.06
0.08
0.08
0.08
0.06
0.06
0.06
0.06
0.06
0.00
0.00
0.00
0.00
0.00
0.00
0.00
0.00
0.00
0.00
0.00
0.00
0.00
0.00
0.00
0.00
0.06
0.06
0.06
0.06
0.06
0.06
0.06
0.06
0.00
0.00
0.06
0.06
0.06
0.06
0.06
0.06
0.06
0.08
0.08
0.06
0.06
0.06
0.06
0.06
0.06
0.08
0.08
0.08
0.08
0.08
0.06
0.00
0.00
0.00
0.00
0.00
0.00
0.00
0.00
0.00
0.00
0.00
0.00
0.00
0.00
0.00
0.00
0.00
0.00
0.00
0.00
0.00
0.00
0.06
0.17
0.08
0.59
0.75
0.75
0.80
0.75
0.78
0.71
0.39
0.06
0.08
0.38
0.35
0.35
0.35
0.35
0.35
0.35
0.43
0.38
0.20
0.20
0.20
0.20
0.12
0.12
0.12
0.12
0.12
0.08
0.08
0.08
0.19
0.19
0.08
0.08
0.08
0.12
0.12
0.12
0.12
0.12
0.12
0.08
0.08
0.08
0.08
0.08
0.08
0.08
0.19
0.19
0.17
0.17
0.19
0.17
0.17
0.08
0.08
0.08
0.08
0.08
0.08
0.08
0.17
0.19
0.17
0.17
0.06
0.06
0.00
0.00
0.00
0.00
0.06
0.00
0.00
0.00
0.00
0.00
0.00
0.00
0.00
0.00
0.00
0.00
0.00
0.00
0.00
0.00
0.00
0.08
0.20
0.06
0.69
0.77
0.75
0.80
0.75
0.77
0.70
0.12
0.08
0.12
0.43
0.35
0.35
0.51
0.35
0.35
0.35
0.35
0.35
0.20
0.20
0.20
0.20
0.20
0.12
0.12
0.12
0.12
0.12
0.12
0.12
0.12
0.12
0.12
0.12
0.12
0.20
0.12
0.12
0.12
0.12
0.08
0.08
0.08
0.08
0.08
0.08
0.08
0.08
0.08
0.08
0.08
0.08
0.08
0.08
0.19
0.17
0.17
0.17
0.08
0.08
0.08
0.08
0.17
0.19
0.17
0.08
0.08
0.06
0.00
0.00
0.06
0.06
0.00
0.00
0.00
0.00
0.00
0.00
0.00
0.00
0.00
0.00
0.00
0.00
0.00
0.00
0.06
0.06
0.06
0.08
0.38
0.17
0.66
0.74
0.76
0.78
0.76
0.78
0.70
0.39
0.06
0.19
0.12
0.20
0.12
0.12
0.12
0.12
0.08
0.08
0.08
0.17
0.08
0.08
0.08
0.06
0.06
0.06
0.00
0.00
0.00
0.00
0.00
0.00
0.00
0.00
0.00
0.00
0.00
0.00
0.00
0.00
0.00
0.00
0.00
0.00
0.00
0.12
0.12
0.12
0.12
0.21
0.12
0.12
0.21
0.21
0.21
0.21
0.21
0.21
0.21
0.21
0.21
0.21
0.21
0.21
0.21
0.31
0.39
0.36
0.39
0.36
0.36
0.36
0.36
0.39
0.39
0.36
0.36
0.36
0.39
0.39
0.36
0.36
0.36
0.36
0.36
0.40
0.40
0.40
0.31
0.12
0.00
0.59
0.73
0.75
0.90
0.94
0.75
0.76
0.68
0.31
0.06
0.17
0.19
0.08
0.12
0.12
0.12
0.12
0.08
0.08
0.08
0.08
0.08
0.08
0.08
0.19
0.17
0.19
0.17
0.17
0.08
0.08
0.08
0.17
0.19
0.08
0.08
0.08
0.08
0.08
0.08
0.08
0.08
0.08
0.08
0.17
0.19
0.19
0.08
0.08
0.17
0.17
0.17
0.17
0.08
0.08
0.08
0.08
0.08
0.08
0.08
0.08
0.08
0.08
0.08
0.08
0.08
0.08
0.06
0.00
0.00
0.00
0.00
0.00
0.00
0.00
0.00
0.00
0.00
0.00
0.00
0.00
0.00
0.00
0.00
0.00
0.00
0.00
0.00
0.00
0.00
0.08
0.19
0.21
0.71
0.78
0.75
0.78
0.75
0.74
0.69
0.21
0.08
0.08
0.20
0.38
0.43
0.43
0.35
0.43
0.38
0.20
0.20
0.20
0.12
0.12
0.12
0.12
0.08
0.08
0.08
0.08
0.08
0.19
0.19
0.08
0.08
0.08
0.08
0.08
0.08
0.08
0.12
0.12
0.08
0.08
0.08
0.08
0.08
0.08
0.08
0.19
0.19
0.19
0.19
0.19
0.19
0.19
0.17
0.17
0.17
0.17
0.08
0.08
0.17
0.08
0.08
0.08
0.19
0.08
0.06
0.06
0.06
0.06
0.06
0.06
0.06
0.00
0.00
0.06
0.06
0.06
0.00
0.00
0.00
0.00
0.00
0.00
0.00
0.00
0.00
0.06
0.08
0.08
0.19
0.36
0.72
0.78
0.75
0.75
0.78
0.71
0.52
0.06
0.08
0.38
0.35
0.35
0.35
0.35
0.35
0.43
0.43
0.43
0.38
0.20
0.20
0.20
0.20
0.12
0.12
0.12
0.08
0.08
0.08
0.08
0.12
0.08
0.08
0.08
0.12
0.12
0.12
0.12
0.12
0.12
0.08
0.08
0.08
0.08
0.08
0.19
0.19
0.19
0.17
0.08
0.08
0.08
0.08
0.08
0.08
0.08
0.08
0.08
0.06
0.06
0.08
0.06
0.06
0.06
0.06
0.00
0.00
0.12
0.21
0.21
0.21
0.21
0.21
0.31
0.31
0.31
0.31
0.31
0.31
0.39
0.40
0.39
0.39
0.36
0.40
0.40
0.40
0.40
0.31
0.00
0.12
0.62
0.75
0.75
0.90
0.91
0.75
0.78
0.70
0.40
0.00
0.00
0.08
0.08
0.08
0.08
0.08
0.08
0.08
0.06
0.06
0.06
0.06
0.06
0.06
0.06
0.00
0.00
0.00
0.00
0.00
0.00
0.00
0.00
0.00
0.00
0.06
0.06
0.06
0.06
0.06
0.08
0.08
0.06
0.06
0.08
0.06
0.06
0.06
0.06
0.06
0.06
0.06
0.06
0.06
0.06
0.06
0.06
0.06
0.08
0.08
0.08
0.08
0.08
0.08
0.06
0.00
0.00
0.00
0.00
0.00
0.00
0.00
0.00
0.00
0.00
0.00
0.00
0.00
0.00
0.00
0.00
0.00
0.00
0.00
0.00
0.00
0.00
0.08
0.08
0.19
0.52
0.74
0.76
0.78
0.74
0.78
0.71
0.40
0.08
0.12
0.35
0.51
0.51
0.65
0.51
0.51
0.51
0.51
0.35
0.35
0.35
0.43
0.38
0.20
0.20
0.20
0.12
0.12
0.12
0.12
0.12
0.12
0.12
0.12
0.12
0.20
0.20
0.20
0.20
0.20
0.12
0.12
0.12
0.12
0.08
0.08
0.08
0.08
0.08
0.08
0.08
0.08
0.08
0.08
0.08
0.17
0.17
0.17
0.08
0.08
0.08
0.19
0.19
0.19
0.08
0.08
0.08
0.08
0.08
0.06
0.06
0.06
0.06
0.06
0.06
0.06
0.06
0.06
0.00
0.00
0.06
0.00
0.00
0.00
0.00
0.00
0.00
0.06
0.06
0.17
0.12
0.12
0.71
0.80
0.75
0.78
0.78
0.74
0.59
0.00
0.19
0.20
0.43
0.35
0.51
0.51
0.35
0.35
0.43
0.43
0.35
0.38
0.20
0.12
0.12
0.12
0.08
0.08
0.08
0.08
0.08
0.08
0.08
0.08
0.19
0.19
0.08
0.08
0.08
0.08
0.08
0.08
0.08
0.08
0.08
0.08
0.19
0.19
0.19
0.19
0.19
0.08
0.17
0.17
0.17
0.17
0.08
0.08
0.08
0.08
0.08
0.08
0.17
0.17
0.17
0.17
0.08
0.06
0.00
0.00
0.00
0.00
0.00
0.00
0.00
0.00
0.00
0.00
0.00
0.00
0.00
0.00
0.00
0.00
0.00
0.00
0.00
0.00
0.00
0.00
0.17
0.19
0.39
0.71
0.78
0.75
0.78
0.78
0.72
0.57
0.00
0.19
0.20
0.38
0.43
0.35
0.35
0.35
0.38
0.38
0.38
0.38
0.20
0.20
0.12
0.12
0.12
0.08
0.08
0.08
0.19
0.19
0.08
0.08
0.08
0.08
0.08
0.08
0.08
0.08
0.08
0.08
0.08
0.08
0.08
0.08
0.08
0.17
0.17
0.08
0.08
0.08
0.08
0.08
0.08
0.08
0.08
0.06
0.06
0.06
0.06
0.06
0.06
0.08
0.08
0.08
0.06
0.00
0.00
0.00
0.12
0.00
0.00
0.00
0.00
0.12
0.12
0.00
0.00
0.12
0.12
0.12
0.12
0.12
0.12
0.12
0.12
0.12
0.12
0.00
0.00
0.19
0.12
0.70
0.78
0.75
0.80
0.75
0.76
0.68
0.31
0.08
0.19
0.20
0.38
0.38
0.38
0.38
0.20
0.20
0.12
0.12
0.08
0.08
0.08
0.08
0.19
0.17
0.08
0.08
0.08
0.08
0.08
0.08
0.08
0.17
0.19
0.17
0.17
0.19
0.19
0.08
0.08
0.08
0.17
0.17
0.08
0.08
0.08
0.08
0.08
0.08
0.08
0.08
0.08
0.06
0.06
0.06
0.06
0.00
0.00
0.06
0.06
0.08
0.08
0.06
0.00
0.00
0.00
0.12
0.12
0.12
0.12
0.12
0.12
0.21
0.21
0.12
0.12
0.12
0.12
0.12
0.12
0.12
0.12
0.12
0.00
0.00
0.00
0.00
0.00
0.17
0.00
0.69
0.78
0.75
0.82
0.75
0.78
0.71
0.40
0.06
0.19
0.12
0.20
0.38
0.38
0.20
0.20
0.20
0.20
0.12
0.12
0.08
0.08
0.19
0.19
0.19
0.17
0.08
0.08
0.08
0.08
0.08
0.08
0.08
0.08
0.08
0.08
0.17
0.19
0.19
0.19
0.17
0.17
0.17
0.08
0.08
0.08
0.08
0.08
0.08
0.08
0.08
0.08
0.08
0.08
0.08
0.08
0.08
0.06
0.06
0.08
0.08
0.08
0.08
0.06
0.00
0.00
0.12
0.12
0.12
0.00
0.00
0.00
0.00
0.00
0.00
0.00
0.00
0.00
0.00
0.00
0.00
0.00
0.00
0.00
0.00
0.00
0.00
0.00
0.19
0.06
0.67
0.75
0.75
0.78
0.75
0.77
0.70
0.39
0.00
0.17
0.08
0.20
0.38
0.20
0.20
0.20
0.20
0.20
0.12
0.08
0.08
0.08
0.08
0.19
0.08
0.08
0.08
0.08
0.08
0.08
0.08
0.08
0.08
0.08
0.17
0.17
0.17
0.17
0.17
0.08
0.08
0.17
0.17
0.08
0.08
0.08
0.08
0.08
0.08
0.08
0.08
0.08
0.08
0.08
0.08
0.08
0.08
0.08
0.08
0.08
0.08
0.08
0.08
0.06
0.00
0.00
0.00
0.00
0.00
0.00
0.00
0.00
0.12
0.12
0.12
0.21
0.21
0.31
0.21
0.21
0.21
0.21
0.31
0.31
0.31
0.31
0.21
0.00
0.00
0.57
0.72
0.77
0.87
0.94
0.75
0.78
0.71
0.39
0.12
0.00
0.06
0.08
0.08
0.06
0.06
0.06
0.00
0.00
0.00
0.00
0.00
0.00
0.12
0.12
0.12
0.21
0.21
0.21
0.21
0.31
0.31
0.31
0.31
0.31
0.31
0.21
0.21
0.31
0.21
0.21
0.21
0.31
0.31
0.21
0.21
0.21
0.21
0.21
0.21
0.21
0.21
0.21
0.21
0.21
0.12
0.12
0.12
0.00
0.00
0.00
0.00
0.00
0.00
0.12
0.21
0.21
0.21
0.21
0.21
0.21
0.21
0.21
0.21
0.21
0.21
0.21
0.21
0.21
0.21
0.21
0.21
0.21
0.12
0.12
0.12
0.00
0.06
0.08
0.40
0.71
0.80
0.80
0.86
0.75
0.78
0.70
0.39
0.08
0.08
0.20
0.43
0.43
0.43
0.43
0.43
0.43
0.38
0.20
0.20
0.20
0.20
0.20
0.12
0.12
0.12
0.08
0.08
0.08
0.08
0.08
0.08
0.08
0.08
0.08
0.08
0.08
0.08
0.08
0.12
0.12
0.08
0.08
0.08
0.08
0.08
0.08
0.08
0.08
0.08
0.08
0.08
0.19
0.19
0.08
0.08
0.08
0.19
0.19
0.08
0.08
0.08
0.08
0.19
0.08
0.08
0.08
0.08
0.08
0.08
0.08
0.08
0.08
0.08
0.08
0.06
0.06
0.06
0.06
0.06
0.06
0.06
0.06
0.06
0.06
0.08
0.19
0.20
0.08
0.67
0.74
0.75
0.75
0.76
0.78
0.70
0.31
0.17
0.20
0.51
0.65
0.51
0.51
0.51
0.51
0.51
0.35
0.35
0.35
0.35
0.35
0.35
0.38
0.38
0.20
0.20
0.20
0.20
0.20
0.20
0.12
0.12
0.20
0.20
0.20
0.20
0.20
0.20
0.20
0.12
0.12
0.12
0.12
0.12
0.12
0.12
0.12
0.12
0.08
0.08
0.08
0.08
0.08
0.08
0.08
0.08
0.08
0.08
0.08
0.08
0.12
0.08
0.08
0.08
0.08
0.08
0.08
0.06
0.06
0.06
0.06
0.06
0.06
0.06
0.06
0.00
0.00
0.00
0.00
0.00
0.00
0.00
0.00
0.00
0.00
0.00
0.08
0.08
0.21
0.71
0.77
0.74
0.75
0.77
0.75
0.67
0.00
0.19
0.38
0.35
0.35
0.51
0.51
0.35
0.35
0.43
0.43
0.20
0.20
0.12
0.12
0.08
0.17
0.08
0.08
0.08
0.08
0.06
0.06
0.06
0.06
0.06
0.06
0.06
0.00
0.00
0.06
0.00
0.00
0.00
0.00
0.00
0.00
0.00
0.00
0.12
0.12
0.12
0.12
0.12
0.12
0.12
0.12
0.12
0.12
0.12
0.12
0.12
0.00
0.00
0.00
0.00
0.00
0.12
0.21
0.21
0.31
0.31
0.31
0.21
0.21
0.21
0.31
0.31
0.21
0.21
0.31
0.31
0.21
0.21
0.21
0.21
0.21
0.21
0.21
0.12
0.00
0.08
0.40
0.71
0.79
0.80
0.90
0.75
0.78
0.70
0.21
0.06
0.17
0.12
0.20
0.20
0.20
0.20
0.20
0.20
0.12
0.12
0.12
0.12
0.12
0.08
0.08
0.08
0.19
0.17
0.17
0.17
0.17
0.17
0.17
0.19
0.19
0.19
0.08
0.08
0.08
0.08
0.08
0.08
0.08
0.08
0.08
0.19
0.19
0.19
0.17
0.17
0.17
0.08
0.08
0.08
0.08
0.08
0.08
0.08
0.08
0.17
0.19
0.08
0.08
0.08
0.17
0.08
0.08
0.06
0.06
0.06
0.06
0.06
0.06
0.06
0.06
0.06
0.06
0.06
0.06
0.06
0.06
0.06
0.06
0.06
0.06
0.06
0.06
0.08
0.12
0.12
0.40
0.71
0.77
0.75
0.78
0.78
0.71
0.39
0.06
0.12
0.43
0.35
0.51
0.51
0.51
0.51
0.35
0.35
0.35
0.38
0.38
0.38
0.20
0.12
0.12
0.12
0.12
0.12
0.08
0.08
0.12
0.12
0.12
0.12
0.12
0.12
0.12
0.12
0.20
0.20
0.20
0.20
0.12
0.12
0.12
0.12
0.12
0.12
0.08
0.19
0.19
0.19
0.08
0.17
0.17
0.08
0.08
0.08
0.08
0.08
0.08
0.08
0.08
0.08
0.06
0.00
0.00
0.00
0.12
0.00
0.00
0.00
0.12
0.12
0.00
0.00
0.00
0.00
0.00
0.00
0.00
0.00
0.00
0.00
0.00
0.00
0.00
0.00
0.08
0.17
0.36
0.71
0.78
0.75
0.82
0.78
0.74
0.62
0.12
0.08
0.12
0.20
0.38
0.38
0.38
0.38
0.20
0.20
0.20
0.12
0.12
0.12
0.08
0.08
0.08
0.08
0.19
0.17
0.08
0.08
0.17
0.17
0.19
0.19
0.19
0.08
0.08
0.08
0.08
0.08
0.08
0.08
0.08
0.08
0.17
0.08
0.08
0.08
0.08
0.08
0.08
0.08
0.08
0.08
0.06
0.06
0.06
0.06
0.06
0.08
0.08
0.08
0.08
0.06
0.00
0.00
0.00
0.00
0.00
0.00
0.00
0.00
0.00
0.00
0.12
0.12
0.12
0.12
0.12
0.00
0.00
0.12
0.12
0.12
0.12
0.00
0.00
0.00
0.19
0.21
0.71
0.78
0.74
0.82
0.75
0.75
0.70
0.21
0.08
0.08
0.38
0.43
0.35
0.43
0.43
0.38
0.38
0.20
0.20
0.12
0.12
0.12
0.12
0.08
0.08
0.08
0.08
0.08
0.08
0.08
0.08
0.08
0.08
0.08
0.08
0.19
0.19
0.19
0.08
0.17
0.08
0.08
0.08
0.08
0.06
0.00
0.00
0.00
0.00
0.00
0.00
0.00
0.00
0.00
0.00
0.00
0.12
0.12
0.00
0.00
0.00
0.00
0.12
0.12
0.21
0.31
0.36
0.36
0.36
0.36
0.36
0.39
0.39
0.36
0.36
0.36
0.39
0.39
0.39
0.39
0.39
0.39
0.39
0.39
0.39
0.39
0.39
0.31
0.21
0.69
0.75
0.75
0.94
0.94
0.78
0.78
0.71
0.39
0.12
0.00
0.06
0.08
0.08
0.08
0.08
0.08
0.08
0.08
0.08
0.08
0.06
0.06
0.06
0.06
0.06
0.00
0.00
0.00
0.00
0.00
0.06
0.06
0.00
0.00
0.06
0.06
0.06
0.06
0.08
0.08
0.08
0.06
0.06
0.08
0.08
0.08
0.08
0.08
0.08
0.08
0.08
0.08
0.08
0.08
0.08
0.08
0.08
0.08
0.08
0.08
0.08
0.08
0.08
0.06
0.00
0.00
0.00
0.00
0.06
0.00
0.00
0.00
0.00
0.00
0.00
0.00
0.00
0.00
0.00
0.00
0.00
0.00
0.06
0.06
0.06
0.08
0.12
0.17
0.52
0.74
0.78
0.80
0.74
0.78
0.71
0.39
0.08
0.12
0.43
0.51
0.65
0.51
0.51
0.51
0.51
0.51
0.51
0.35
0.35
0.35
0.35
0.43
0.38
0.20
0.20
0.20
0.20
0.20
0.20
0.20
0.20
0.20
0.20
0.20
0.38
0.38
0.20
0.20
0.20
0.20
0.20
0.20
0.12
0.12
0.12
0.12
0.12
0.12
0.12
0.12
0.12
0.12
0.12
0.12
0.08
0.08
0.08
0.08
0.12
0.12
0.12
0.08
0.19
0.08
0.08
0.08
0.08
0.08
0.08
0.08
0.06
0.06
0.08
0.08
0.08
0.06
0.06
0.06
0.06
0.06
0.00
0.00
0.06
0.06
0.06
0.08
0.12
0.08
0.66
0.75
0.75
0.75
0.75
0.77
0.70
0.21
0.17
0.38
0.35
0.51
0.51
0.51
0.35
0.35
0.35
0.35
0.43
0.38
0.38
0.20
0.12
0.12
0.12
0.08
0.19
0.19
0.19
0.19
0.19
0.19
0.19
0.08
0.08
0.08
0.08
0.08
0.08
0.08
0.17
0.19
0.19
0.17
0.08
0.08
0.08
0.08
0.06
0.06
0.06
0.06
0.06
0.06
0.06
0.06
0.06
0.06
0.06
0.08
0.08
0.08
0.06
0.00
0.00
0.00
0.12
0.12
0.12
0.00
0.00
0.12
0.12
0.12
0.12
0.00
0.00
0.12
0.21
0.21
0.21
0.12
0.12
0.21
0.21
0.12
0.00
0.08
0.08
0.52
0.72
0.78
0.78
0.80
0.78
0.74
0.62
0.00
0.17
0.12
0.38
0.43
0.35
0.43
0.38
0.38
0.38
0.20
0.20
0.20
0.12
0.12
0.12
0.12
0.08
0.08
0.08
0.08
0.08
0.19
0.19
0.08
0.08
0.08
0.08
0.08
0.08
0.08
0.08
0.08
0.08
0.08
0.08
0.08
0.19
0.08
0.08
0.08
0.08
0.08
0.08
0.08
0.08
0.08
0.08
0.08
0.08
0.08
0.08
0.08
0.08
0.08
0.08
0.08
0.00
0.00
0.00
0.00
0.00
0.00
0.00
0.00
0.12
0.12
0.12
0.21
0.21
0.31
0.31
0.31
0.39
0.39
0.39
0.40
0.40
0.40
0.31
0.00
0.39
0.70
0.78
0.74
0.90
0.86
0.78
0.73
0.62
0.12
0.00
0.08
0.08
0.17
0.08
0.08
0.08
0.08
0.08
0.08
0.08
0.08
0.06
0.00
0.00
0.00
0.00
0.00
0.00
0.00
0.12
0.12
0.12
0.12
0.12
0.12
0.12
0.12
0.12
0.12
0.12
0.12
0.12
0.12
0.12
0.12
0.12
0.21
0.12
0.12
0.12
0.12
0.12
0.21
0.21
0.21
0.21
0.12
0.12
0.12
0.12
0.12
0.12
0.21
0.39
0.40
0.36
0.36
0.36
0.40
0.40
0.40
0.40
0.40
0.40
0.39
0.40
0.40
0.39
0.39
0.39
0.39
0.31
0.31
0.31
0.21
0.12
0.00
0.12
0.69
0.77
0.75
0.90
0.87
0.78
0.72
0.57
0.00
0.08
0.12
0.20
0.20
0.20
0.38
0.20
0.20
0.20
0.20
0.20
0.20
0.20
0.20
0.12
0.12
0.08
0.08
0.08
0.08
0.08
0.08
0.08
0.08
0.08
0.08
0.08
0.08
0.12
0.12
0.08
0.08
0.08
0.19
0.19
0.19
0.19
0.19
0.17
0.17
0.08
0.08
0.17
0.17
0.08
0.08
0.08
0.08
0.08
0.08
0.19
0.19
0.19
0.17
0.17
0.08
0.06
0.00
0.00
0.00
0.06
0.06
0.06
0.06
0.06
0.06
0.00
0.00
0.00
0.00
0.00
0.00
0.06
0.06
0.06
0.00
0.00
0.08
0.19
0.08
0.40
0.70
0.79
0.75
0.78
0.79
0.72
0.52
0.06
0.12
0.38
0.35
0.51
0.65
0.51
0.51
0.51
0.51
0.51
0.35
0.35
0.35
0.20
0.43
0.38
0.20
0.20
0.20
0.12
0.12
0.12
0.12
0.12
0.20
0.20
0.20
0.20
0.38
0.20
0.20
0.20
0.20
0.20
0.20
0.20
0.20
0.20
0.12
0.12
0.12
0.12
0.12
0.12
0.12
0.12
0.12
0.12
0.08
0.08
0.08
0.12
0.12
0.12
0.08
0.08
0.08
0.08
0.08
0.08
0.08
0.08
0.06
0.06
0.06
0.06
0.06
0.06
0.06
0.06
0.00
0.00
0.06
0.00
0.00
0.00
0.00
0.06
0.19
0.20
0.12
0.70
0.77
0.75
0.75
0.78
0.75
0.59
0.00
0.19
0.20
0.43
0.35
0.35
0.38
0.20
0.20
0.20
0.12
0.12
0.08
0.08
0.17
0.08
0.08
0.08
0.06
0.00
0.00
0.00
0.00
0.00
0.00
0.00
0.00
0.00
0.00
0.00
0.00
0.00
0.00
0.00
0.00
0.00
0.12
0.12
0.12
0.12
0.12
0.12
0.12
0.12
0.12
0.12
0.12
0.00
0.00
0.12
0.00
0.00
0.00
0.00
0.00
0.00
0.12
0.21
0.21
0.21
0.21
0.21
0.21
0.21
0.21
0.21
0.21
0.21
0.21
0.21
0.21
0.21
0.21
0.21
0.21
0.12
0.12
0.12
0.00
0.06
0.08
0.52
0.73
0.75
0.82
0.87
0.75
0.75
0.66
0.12
0.08
0.08
0.12
0.20
0.38
0.38
0.38
0.38
0.20
0.20
0.20
0.20
0.12
0.12
0.12
0.12
0.08
0.08
0.08
0.19
0.19
0.08
0.08
0.08
0.08
0.08
0.12
0.12
0.12
0.12
0.12
0.12
0.12
0.12
0.08
0.08
0.08
0.08
0.08
0.08
0.08
0.08
0.08
0.08
0.19
0.19
0.08
0.08
0.08
0.08
0.08
0.12
0.12
0.08
0.19
0.08
0.08
0.08
0.08
0.08
0.08
0.08
0.08
0.08
0.08
0.08
0.08
0.06
0.06
0.06
0.06
0.06
0.06
0.06
0.06
0.06
0.08
0.08
0.20
0.20
0.36
0.72
0.77
0.78
0.74
0.77
0.70
0.36
0.08
0.08
0.43
0.35
0.51
0.51
0.51
0.35
0.35
0.43
0.43
0.35
0.43
0.20
0.12
0.12
0.12
0.12
0.12
0.12
0.12
0.12
0.12
0.12
0.12
0.12
0.12
0.12
0.12
0.08
0.08
0.08
0.19
0.17
0.17
0.08
0.08
0.08
0.06
0.06
0.06
0.00
0.00
0.00
0.00
0.00
0.00
0.12
0.12
0.12
0.21
0.12
0.12
0.12
0.12
0.21
0.31
0.40
0.36
0.39
0.39
0.39
0.39
0.39
0.39
0.39
0.39
0.39
0.52
0.52
0.52
0.52
0.52
0.52
0.52
0.52
0.52
0.52
0.39
0.31
0.12
0.57
0.72
0.78
0.86
0.94
0.80
0.77
0.69
0.39
0.12
0.06
0.08
0.17
0.19
0.19
0.17
0.17
0.19
0.17
0.08
0.08
0.08
0.08
0.08
0.08
0.08
0.06
0.06
0.06
0.06
0.06
0.06
0.06
0.06
0.06
0.08
0.08
0.08
0.08
0.08
0.08
0.08
0.08
0.08
0.08
0.08
0.08
0.08
0.08
0.08
0.08
0.08
0.08
0.08
0.08
0.08
0.08
0.19
0.08
0.08
0.08
0.08
0.17
0.08
0.08
0.06
0.06
0.08
0.08
0.06
0.06
0.06
0.06
0.06
0.06
0.06
0.06
0.06
0.06
0.06
0.06
0.06
0.08
0.06
0.06
0.08
0.20
0.12
0.40
0.71
0.79
0.74
0.74
0.80
0.71
0.39
0.08
0.20
0.35
0.71
0.78
0.76
0.71
0.65
0.65
0.65
0.65
0.65
0.51
0.51
0.51
0.35
0.35
0.43
0.43
0.43
0.20
0.20
0.20
0.20
0.20
0.38
0.38
0.38
0.38
0.38
0.20
0.20
0.20
0.20
0.20
0.12
0.12
0.12
0.12
0.12
0.12
0.08
0.08
0.12
0.08
0.08
0.08
0.08
0.19
0.19
0.08
0.08
0.12
0.08
0.19
0.17
0.08
0.08
0.06
0.06
0.06
0.00
0.00
0.00
0.00
0.00
0.00
0.00
0.00
0.00
0.00
0.00
0.00
0.00
0.00
0.00
0.00
0.00
0.00
0.08
0.06
0.59
0.75
0.76
0.80
0.75
0.79
0.72
0.59
0.12
0.08
0.17
0.08
0.08
0.08
0.19
0.17
0.08
0.08
0.08
0.08
0.08
0.08
0.06
0.06
0.00
0.00
0.00
0.00
0.00
0.00
0.00
0.00
0.00
0.00
0.00
0.00
0.00
0.00
0.00
0.00
0.00
0.00
0.06
0.00
0.00
0.06
0.06
0.00
0.00
0.06
0.06
0.06
0.06
0.00
0.00
0.00
0.06
0.06
0.08
0.08
0.08
0.06
0.00
0.00
0.00
0.00
0.12
0.00
0.00
0.00
0.00
0.00
0.00
0.00
0.00
0.00
0.00
0.00
0.00
0.12
0.00
0.00
0.00
0.00
0.00
0.00
0.19
0.08
0.62
0.75
0.75
0.80
0.74
0.77
0.70
0.39
0.08
0.08
0.43
0.35
0.35
0.35
0.51
0.51
0.35
0.35
0.51
0.35
0.35
0.43
0.38
0.38
0.20
0.12
0.12
0.12
0.12
0.12
0.12
0.12
0.12
0.12
0.12
0.20
0.12
0.12
0.20
0.12
0.12
0.12
0.12
0.12
0.12
0.08
0.08
0.19
0.19
0.08
0.08
0.08
0.08
0.08
0.08
0.08
0.08
0.08
0.08
0.08
0.08
0.08
0.19
0.08
0.06
0.00
0.00
0.00
0.06
0.00
0.00
0.00
0.00
0.00
0.00
0.00
0.00
0.00
0.00
0.00
0.00
0.00
0.00
0.00
0.00
0.00
0.08
0.08
0.39
0.71
0.80
0.75
0.78
0.78
0.73
0.62
0.00
0.17
0.20
0.43
0.35
0.35
0.35
0.43
0.38
0.38
0.20
0.12
0.12
0.12
0.08
0.19
0.17
0.08
0.08
0.08
0.06
0.06
0.06
0.06
0.06
0.00
0.00
0.00
0.00
0.00
0.00
0.00
0.00
0.00
0.00
0.00
0.00
0.00
0.00
0.12
0.12
0.12
0.12
0.12
0.12
0.12
0.12
0.12
0.21
0.21
0.12
0.12
0.00
0.00
0.12
0.12
0.31
0.39
0.36
0.36
0.36
0.36
0.36
0.36
0.39
0.39
0.39
0.39
0.39
0.39
0.39
0.39
0.39
0.39
0.39
0.39
0.39
0.39
0.40
0.21
0.21
0.59
0.72
0.78
0.90
0.94
0.82
0.78
0.70
0.52
0.12
0.00
0.08
0.08
0.17
0.08
0.08
0.08
0.08
0.08
0.08
0.08
0.08
0.08
0.08
0.08
0.08
0.06
0.06
0.06
0.06
0.06
0.06
0.06
0.06
0.08
0.08
0.08
0.08
0.08
0.08
0.08
0.08
0.08
0.08
0.08
0.08
0.08
0.08
0.08
0.08
0.08
0.08
0.08
0.08
0.08
0.17
0.17
0.17
0.08
0.08
0.08
0.19
0.17
0.08
0.06
0.06
0.06
0.06
0.06
0.06
0.06
0.06
0.06
0.06
0.08
0.06
0.06
0.06
0.06
0.08
0.08
0.08
0.08
0.08
0.06
0.08
0.08
0.20
0.12
0.71
0.78
0.75
0.74
0.78
0.75
0.62
0.06
0.12
0.35
0.65
0.65
0.65
0.65
0.65
0.65
0.65
0.65
0.65
0.51
0.51
0.51
0.51
0.35
0.43
0.43
0.35
0.43
0.43
0.38
0.38
0.38
0.38
0.38
0.38
0.43
0.43
0.43
0.43
0.43
0.43
0.43
0.43
0.38
0.20
0.20
0.20
0.20
0.20
0.20
0.20
0.20
0.12
0.12
0.12
0.12
0.12
0.12
0.12
0.12
0.12
0.12
0.08
0.19
0.17
0.08
0.08
0.08
0.08
0.08
0.08
0.06
0.06
0.06
0.06
0.06
0.00
0.00
0.00
0.00
0.00
0.00
0.00
0.00
0.00
0.00
0.08
0.19
0.12
0.70
0.77
0.75
0.75
0.75
0.76
0.70
0.21
0.08
0.08
0.20
0.20
0.20
0.20
0.12
0.12
0.12
0.08
0.08
0.08
0.17
0.08
0.08
0.08
0.06
0.06
0.00
0.00
0.00
0.00
0.00
0.00
0.00
0.00
0.00
0.00
0.00
0.00
0.00
0.00
0.00
0.00
0.00
0.00
0.00
0.00
0.12
0.12
0.12
0.12
0.12
0.12
0.12
0.12
0.21
0.21
0.12
0.12
0.12
0.12
0.12
0.12
0.21
0.31
0.40
0.36
0.36
0.36
0.40
0.40
0.40
0.36
0.36
0.36
0.36
0.36
0.36
0.36
0.36
0.36
0.36
0.40
0.40
0.40
0.39
0.21
0.00
0.00
0.59
0.75
0.75
0.87
0.90
0.76
0.74
0.70
0.12
0.08
0.19
0.12
0.12
0.20
0.12
0.12
0.12
0.12
0.12
0.12
0.12
0.12
0.12
0.08
0.08
0.08
0.19
0.19
0.19
0.17
0.17
0.17
0.17
0.19
0.08
0.08
0.12
0.12
0.12
0.12
0.12
0.12
0.08
0.08
0.08
0.08
0.12
0.12
0.12
0.12
0.12
0.12
0.12
0.12
0.12
0.12
0.12
0.19
0.08
0.12
0.12
0.12
0.12
0.08
0.17
0.08
0.08
0.08
0.08
0.08
0.08
0.08
0.08
0.08
0.08
0.08
0.08
0.08
0.08
0.08
0.08
0.08
0.08
0.08
0.08
0.08
0.17
0.20
0.38
0.31
0.70
0.80
0.75
0.74
0.78
0.71
0.40
0.17
0.20
0.51
0.76
0.71
0.71
0.71
0.71
0.71
0.65
0.65
0.65
0.51
0.51
0.35
0.35
0.35
0.43
0.38
0.38
0.38
0.20
0.20
0.20
0.20
0.20
0.20
0.20
0.38
0.20
0.20
0.20
0.20
0.20
0.20
0.20
0.12
0.08
0.19
0.17
0.17
0.17
0.17
0.17
0.17
0.17
0.08
0.08
0.08
0.08
0.08
0.08
0.19
0.19
0.19
0.17
0.08
0.06
0.00
0.00
0.00
0.00
0.00
0.00
0.00
0.00
0.12
0.12
0.21
0.21
0.21
0.31
0.31
0.40
0.40
0.40
0.40
0.36
0.40
0.39
0.00
0.12
0.70
0.75
0.75
0.90
0.90
0.75
0.75
0.67
0.31
0.00
0.08
0.08
0.17
0.08
0.08
0.08
0.08
0.08
0.08
0.06
0.06
0.00
0.00
0.00
0.00
0.00
0.00
0.00
0.12
0.21
0.21
0.21
0.21
0.12
0.12
0.12
0.12
0.12
0.12
0.12
0.12
0.12
0.12
0.12
0.12
0.12
0.12
0.12
0.12
0.12
0.12
0.00
0.00
0.12
0.00
0.00
0.00
0.00
0.00
0.00
0.00
0.00
0.00
0.00
0.12
0.21
0.21
0.21
0.12
0.12
0.21
0.21
0.21
0.21
0.21
0.12
0.12
0.12
0.12
0.12
0.12
0.12
0.12
0.00
0.00
0.00
0.17
0.08
0.36
0.73
0.75
0.82
0.86
0.78
0.72
0.59
0.00
0.08
0.38
0.35
0.51
0.51
0.51
0.35
0.35
0.51
0.51
0.51
0.35
0.35
0.35
0.35
0.43
0.38
0.20
0.20
0.20
0.20
0.20
0.20
0.20
0.20
0.20
0.20
0.20
0.20
0.20
0.20
0.20
0.12
0.12
0.12
0.12
0.12
0.12
0.12
0.12
0.12
0.12
0.12
0.12
0.12
0.12
0.12
0.12
0.12
0.12
0.20
0.20
0.20
0.20
0.08
0.19
0.17
0.08
0.08
0.08
0.08
0.08
0.08
0.08
0.08
0.08
0.08
0.08
0.08
0.08
0.08
0.08
0.08
0.08
0.08
0.08
0.08
0.08
0.12
0.20
0.31
0.71
0.79
0.74
0.75
0.80
0.72
0.57
0.00
0.12
0.35
0.51
0.65
0.51
0.51
0.51
0.51
0.51
0.35
0.35
0.43
0.38
0.38
0.20
0.12
0.12
0.12
0.12
0.12
0.12
0.12
0.12
0.12
0.20
0.20
0.12
0.08
0.12
0.12
0.08
0.08
0.08
0.19
0.17
0.17
0.17
0.08
0.08
0.08
0.08
0.08
0.06
0.06
0.06
0.06
0.00
0.00
0.00
0.00
0.00
0.00
0.00
0.00
0.00
0.12
0.21
0.39
0.40
0.40
0.36
0.36
0.36
0.39
0.39
0.39
0.39
0.39
0.36
0.40
0.40
0.36
0.36
0.40
0.40
0.40
0.36
0.36
0.40
0.00
0.12
0.69
0.75
0.76
0.90
0.91
0.76
0.74
0.69
0.31
0.00
0.08
0.17
0.19
0.08
0.08
0.08
0.08
0.08
0.19
0.17
0.17
0.08
0.08
0.08
0.08
0.06
0.06
0.06
0.06
0.06
0.06
0.06
0.08
0.08
0.08
0.08
0.08
0.08
0.08
0.08
0.08
0.08
0.08
0.08
0.08
0.08
0.08
0.08
0.08
0.17
0.08
0.43
0.76
0.80
0.83
0.87
0.90
0.96
0.98
0.99
0.99
1.00
1.00
0.99
0.93
0.20
0.57
0.70
0.71
0.71
0.69
0.69
0.69
0.69
0.69
0.69
0.69
0.71
0.71
0.70
0.70
0.70
0.70
0.68
0.68
0.69
0.67
0.67
0.66
0.66
0.62
0.57
0.52
0.39
0.36
0.39
0.21
0.12
0.00
0.00
0.00
0.06
0.08
0.08
0.17
0.17
0.17
0.08
0.08
0.08
0.08
0.08
0.08
0.08
0.08
0.08
0.19
0.17
0.17
0.17
0.17
0.17
0.17
0.08
0.08
0.08
0.08
0.08
0.08
0.08
0.08
0.08
0.08
0.08
0.08
0.08
0.08
0.08
0.08
0.08
0.08
0.08
0.08
0.08
0.08
0.08
0.08
0.08
0.08
0.08
0.08
0.08
0.08
0.06
0.00
0.00
0.00
0.00
0.00
0.00
0.00
0.00
0.00
0.00
0.00
0.00
0.00
0.00
0.00
0.00
0.00
0.00
0.00
0.00
0.00
0.08
0.08
0.06
0.70
0.77
0.75
0.75
0.75
0.77
0.70
0.39
0.08
0.19
0.12
0.20
0.20
0.20
0.20
0.12
0.12
0.08
0.19
0.17
0.08
0.08
0.06
0.06
0.00
0.00
0.00
0.00
0.00
0.00
0.00
0.00
0.00
0.00
0.00
0.06
0.06
0.06
0.08
0.08
0.08
0.08
0.06
0.06
0.06
0.00
0.00
0.00
0.00
0.00
0.00
0.00
0.00
0.12
0.12
0.12
0.12
0.12
0.00
0.00
0.00
0.00
0.12
0.12
0.31
0.40
0.40
0.36
0.36
0.36
0.36
0.36
0.36
0.39
0.39
0.39
0.39
0.39
0.39
0.39
0.39
0.39
0.39
0.36
0.36
0.36
0.31
0.00
0.31
0.68
0.76
0.75
0.91
0.90
0.75
0.75
0.67
0.21
0.06
0.08
0.19
0.08
0.08
0.08
0.08
0.08
0.08
0.08
0.08
0.08
0.19
0.17
0.08
0.08
0.08
0.08
0.08
0.08
0.08
0.08
0.08
0.08
0.08
0.17
0.19
0.08
0.19
0.19
0.08
0.08
0.19
0.19
0.17
0.17
0.19
0.08
0.08
0.08
0.08
0.08
0.08
0.08
0.08
0.19
0.19
0.08
0.08
0.08
0.08
0.12
0.12
0.08
0.19
0.08
0.08
0.08
0.08
0.08
0.08
0.08
0.08
0.08
0.08
0.08
0.08
0.08
0.08
0.08
0.08
0.08
0.08
0.08
0.08
0.08
0.08
0.08
0.20
0.38
0.00
0.70
0.77
0.75
0.75
0.79
0.72
0.59
0.08
0.20
0.35
0.65
0.71
0.76
0.65
0.65
0.65
0.65
0.51
0.51
0.51
0.51
0.51
0.35
0.35
0.35
0.38
0.38
0.20
0.20
0.20
0.20
0.20
0.20
0.20
0.20
0.20
0.38
0.38
0.20
0.20
0.20
0.20
0.20
0.20
0.12
0.12
0.12
0.08
0.19
0.17
0.17
0.08
0.08
0.08
0.08
0.08
0.08
0.08
0.08
0.08
0.19
0.19
0.17
0.08
0.06
0.06
0.00
0.00
0.00
0.00
0.00
0.00
0.12
0.12
0.12
0.12
0.21
0.31
0.31
0.31
0.31
0.31
0.31
0.31
0.39
0.39
0.21
0.00
0.12
0.62
0.75
0.77
0.82
0.86
0.76
0.76
0.68
0.39
0.00
0.06
0.08
0.08
0.08
0.08
0.08
0.08
0.08
0.08
0.08
0.06
0.06
0.00
0.00
0.00
0.00
0.12
0.12
0.12
0.12
0.21
0.21
0.21
0.21
0.12
0.12
0.12
0.12
0.00
0.00
0.12
0.00
0.00
0.12
0.12
0.12
0.00
0.00
0.12
0.12
0.00
0.00
0.00
0.00
0.00
0.00
0.00
0.00
0.00
0.00
0.00
0.00
0.00
0.12
0.12
0.21
0.21
0.21
0.21
0.21
0.21
0.21
0.21
0.21
0.21
0.21
0.21
0.21
0.21
0.21
0.12
0.12
0.12
0.12
0.00
0.00
0.08
0.08
0.36
0.72
0.78
0.80
0.82
0.77
0.75
0.66
0.00
0.19
0.20
0.35
0.35
0.35
0.35
0.43
0.43
0.35
0.35
0.35
0.35
0.35
0.35
0.35
0.38
0.20
0.20
0.20
0.20
0.12
0.12
0.12
0.12
0.20
0.20
0.20
0.20
0.20
0.20
0.20
0.20
0.12
0.12
0.12
0.20
0.12
0.12
0.12
0.12
0.12
0.12
0.12
0.12
0.12
0.12
0.12
0.12
0.12
0.12
0.12
0.20
0.20
0.20
0.12
0.08
0.17
0.08
0.08
0.08
0.08
0.08
0.08
0.08
0.08
0.08
0.08
0.08
0.08
0.08
0.08
0.08
0.08
0.08
0.08
0.08
0.08
0.08
0.08
0.38
0.00
0.70
0.78
0.75
0.74
0.78
0.73
0.59
0.06
0.12
0.38
0.51
0.65
0.65
0.65
0.51
0.51
0.51
0.35
0.35
0.35
0.35
0.38
0.20
0.20
0.20
0.20
0.12
0.12
0.12
0.12
0.12
0.12
0.12
0.20
0.20
0.20
0.12
0.12
0.12
0.08
0.08
0.08
0.08
0.19
0.08
0.08
0.08
0.08
0.08
0.08
0.08
0.08
0.06
0.06
0.06
0.00
0.00
0.00
0.00
0.00
0.00
0.00
0.00
0.00
0.21
0.39
0.40
0.36
0.36
0.36
0.36
0.36
0.36
0.36
0.36
0.40
0.40
0.39
0.31
0.31
0.31
0.31
0.31
0.21
0.21
0.21
0.12
0.00
0.00
0.59
0.74
0.75
0.82
0.86
0.77
0.74
0.62
0.00
0.08
0.19
0.12
0.20
0.20
0.20
0.20
0.20
0.12
0.12
0.08
0.08
0.08
0.17
0.17
0.17
0.08
0.08
0.08
0.08
0.08
0.08
0.08
0.08
0.08
0.08
0.08
0.08
0.17
0.17
0.08
0.08
0.08
0.08
0.08
0.19
0.17
0.08
0.08
0.08
0.08
0.19
0.19
0.19
0.19
0.17
0.17
0.17
0.17
0.19
0.08
0.08
0.19
0.17
0.08
0.08
0.06
0.06
0.06
0.06
0.00
0.00
0.00
0.00
0.00
0.00
0.00
0.00
0.00
0.00
0.00
0.00
0.00
0.00
0.00
0.00
0.00
0.08
0.08
0.12
0.71
0.80
0.75
0.78
0.77
0.75
0.66
0.00
0.08
0.20
0.35
0.51
0.51
0.51
0.51
0.51
0.35
0.35
0.35
0.43
0.43
0.20
0.20
0.12
0.12
0.12
0.12
0.12
0.12
0.12
0.12
0.12
0.12
0.12
0.08
0.08
0.08
0.08
0.08
0.08
0.08
0.19
0.19
0.19
0.19
0.19
0.17
0.17
0.17
0.17
0.17
0.08
0.08
0.08
0.08
0.08
0.08
0.08
0.08
0.08
0.08
0.17
0.08
0.08
0.08
0.06
0.06
0.00
0.00
0.06
0.00
0.00
0.00
0.00
0.00
0.12
0.12
0.12
0.21
0.12
0.12
0.12
0.12
0.12
0.12
0.12
0.00
0.06
0.06
0.66
0.75
0.75
0.86
0.86
0.78
0.75
0.67
0.31
0.00
0.08
0.08
0.17
0.08
0.08
0.08
0.08
0.08
0.08
0.08
0.06
0.06
0.00
0.00
0.00
0.00
0.00
0.12
0.12
0.12
0.12
0.12
0.12
0.12
0.12
0.12
0.12
0.00
0.00
0.12
0.12
0.12
0.12
0.12
0.12
0.12
0.21
0.21
0.12
0.12
0.12
0.12
0.12
0.12
0.12
0.12
0.00
0.00
0.00
0.00
0.00
0.00
0.00
0.12
0.21
0.21
0.31
0.21
0.21
0.21
0.31
0.21
0.21
0.21
0.21
0.21
0.21
0.21
0.21
0.21
0.21
0.21
0.21
0.21
0.21
0.00
0.08
0.00
0.69
0.78
0.75
0.87
0.78
0.78
0.71
0.39
0.00
0.19
0.12
0.38
0.43
0.43
0.43
0.38
0.38
0.38
0.43
0.38
0.20
0.20
0.20
0.20
0.20
0.12
0.12
0.12
0.08
0.08
0.08
0.12
0.12
0.12
0.12
0.12
0.12
0.12
0.12
0.12
0.12
0.12
0.12
0.12
0.08
0.08
0.08
0.08
0.08
0.08
0.08
0.08
0.08
0.08
0.08
0.08
0.08
0.08
0.08
0.08
0.12
0.12
0.08
0.19
0.08
0.08
0.08
0.08
0.08
0.08
0.08
0.08
0.08
0.08
0.08
0.08
0.08
0.08
0.08
0.08
0.08
0.08
0.08
0.08
0.08
0.08
0.08
0.20
0.19
0.39
0.74
0.78
0.74
0.75
0.77
0.69
0.40
0.17
0.20
0.35
0.51
0.65
0.51
0.51
0.51
0.51
0.51
0.35
0.35
0.43
0.38
0.38
0.20
0.20
0.20
0.20
0.12
0.12
0.12
0.12
0.12
0.12
0.12
0.12
0.12
0.20
0.08
0.08
0.08
0.08
0.08
0.08
0.08
0.08
0.17
0.19
0.19
0.17
0.08
0.08
0.08
0.08
0.08
0.08
0.08
0.08
0.08
0.17
0.19
0.08
0.08
0.19
0.08
0.08
0.06
0.06
0.00
0.00
0.00
0.00
0.00
0.00
0.00
0.00
0.12
0.12
0.12
0.21
0.21
0.21
0.21
0.31
0.31
0.31
0.31
0.31
0.00
0.00
0.39
0.71
0.78
0.80
0.87
0.75
0.77
0.70
0.36
0.12
0.00
0.08
0.08
0.08
0.08
0.08
0.08
0.08
0.08
0.08
0.08
0.06
0.00
0.00
0.00
0.00
0.00
0.12
0.12
0.12
0.21
0.21
0.12
0.12
0.12
0.12
0.12
0.00
0.00
0.00
0.00
0.00
0.00
0.00
0.00
0.00
0.00
0.00
0.00
0.00
0.00
0.00
0.00
0.00
0.00
0.00
0.00
0.00
0.00
0.06
0.06
0.06
0.00
0.00
0.00
0.00
0.12
0.12
0.00
0.00
0.00
0.00
0.00
0.00
0.00
0.00
0.00
0.00
0.00
0.00
0.00
0.00
0.00
0.00
0.00
0.00
0.08
0.19
0.12
0.71
0.78
0.75
0.78
0.76
0.75
0.70
0.12
0.17
0.20
0.35
0.51
0.51
0.51
0.51
0.51
0.51
0.51
0.35
0.35
0.43
0.43
0.38
0.20
0.12
0.12
0.12
0.12
0.12
0.12
0.12
0.12
0.12
0.12
0.12
0.12
0.12
0.20
0.20
0.12
0.12
0.12
0.12
0.12
0.12
0.08
0.08
0.08
0.08
0.12
0.12
0.08
0.08
0.08
0.08
0.08
0.08
0.08
0.19
0.17
0.17
0.17
0.08
0.08
0.06
0.00
0.00
0.00
0.00
0.06
0.06
0.00
0.00
0.00
0.00
0.00
0.00
0.00
0.00
0.00
0.00
0.00
0.00
0.00
0.00
0.00
0.00
0.17
0.17
0.39
0.71
0.80
0.74
0.74
0.80
0.72
0.59
0.06
0.19
0.38
0.35
0.51
0.51
0.51
0.35
0.35
0.35
0.43
0.38
0.20
0.12
0.12
0.12
0.08
0.08
0.08
0.08
0.08
0.08
0.08
0.08
0.19
0.19
0.19
0.17
0.08
0.08
0.08
0.08
0.08
0.08
0.08
0.08
0.08
0.08
0.08
0.08
0.08
0.08
0.08
0.08
0.08
0.08
0.08
0.08
0.08
0.08
0.08
0.08
0.08
0.08
0.08
0.06
0.00
0.00
0.00
0.00
0.00
0.00
0.00
0.00
0.00
0.12
0.12
0.12
0.12
0.12
0.12
0.12
0.12
0.12
0.12
0.12
0.00
0.00
0.00
0.08
0.08
0.36
0.71
0.80
0.75
0.75
0.78
0.73
0.59
0.06
0.17
0.20
0.35
0.35
0.51
0.35
0.35
0.35
0.43
0.38
0.43
0.38
0.20
0.20
0.12
0.12
0.08
0.08
0.08
0.17
0.08
0.08
0.08
0.08
0.08
0.17
0.19
0.19
0.19
0.17
0.17
0.17
0.08
0.08
0.08
0.08
0.08
0.08
0.08
0.08
0.08
0.08
0.08
0.08
0.08
0.08
0.08
0.08
0.08
0.08
0.08
0.08
0.08
0.08
0.08
0.06
0.00
0.00
0.12
0.12
0.12
0.12
0.21
0.21
0.21
0.31
0.31
0.31
0.39
0.40
0.36
0.36
0.36
0.36
0.36
0.36
0.36
0.36
0.31
0.12
0.40
0.70
0.77
0.74
0.90
0.90
0.77
0.74
0.67
0.31
0.00
0.06
0.08
0.08
0.08
0.08
0.08
0.08
0.08
0.08
0.06
0.06
0.00
0.00
0.00
0.00
0.00
0.00
0.12
0.21
0.21
0.21
0.21
0.21
0.21
0.12
0.12
0.12
0.12
0.00
0.00
0.12
0.12
0.12
0.00
0.00
0.12
0.12
0.12
0.12
0.12
0.12
0.12
0.12
0.12
0.12
0.12
0.00
0.00
0.00
0.00
0.00
0.00
0.00
0.00
0.12
0.21
0.21
0.21
0.21
0.21
0.21
0.21
0.21
0.21
0.21
0.21
0.21
0.21
0.21
0.21
0.21
0.21
0.21
0.21
0.21
0.12
0.06
0.08
0.36
0.71
0.78
0.86
0.90
0.75
0.76
0.68
0.12
0.08
0.12
0.20
0.20
0.38
0.38
0.20
0.20
0.20
0.20
0.20
0.20
0.20
0.20
0.12
0.12
0.12
0.08
0.08
0.08
0.08
0.08
0.08
0.08
0.12
0.12
0.12
0.12
0.12
0.12
0.12
0.12
0.12
0.08
0.08
0.19
0.19
0.08
0.08
0.08
0.08
0.08
0.08
0.08
0.08
0.08
0.08
0.08
0.08
0.19
0.08
0.12
0.12
0.08
0.08
0.17
0.08
0.08
0.08
0.08
0.08
0.08
0.08
0.06
0.06
0.08
0.08
0.08
0.06
0.06
0.08
0.08
0.08
0.08
0.08
0.08
0.08
0.08
0.17
0.20
0.17
0.62
0.75
0.75
0.75
0.76
0.78
0.70
0.12
0.17
0.20
0.35
0.51
0.65
0.65
0.51
0.51
0.51
0.51
0.51
0.35
0.35
0.43
0.43
0.20
0.20
0.20
0.20
0.20
0.12
0.12
0.12
0.12
0.12
0.12
0.20
0.20
0.20
0.20
0.20
0.20
0.12
0.12
0.12
0.12
0.12
0.12
0.08
0.08
0.08
0.08
0.08
0.08
0.08
0.08
0.08
0.08
0.08
0.08
0.08
0.17
0.19
0.19
0.19
0.17
0.08
0.08
0.06
0.06
0.06
0.06
0.06
0.00
0.00
0.06
0.06
0.06
0.00
0.00
0.00
0.00
0.00
0.00
0.00
0.00
0.00
0.00
0.00
0.06
0.17
0.08
0.40
0.70
0.78
0.75
0.74
0.80
0.71
0.39
0.06
0.08
0.38
0.43
0.35
0.35
0.35
0.35
0.35
0.35
0.38
0.38
0.20
0.20
0.12
0.12
0.12
0.08
0.17
0.08
0.08
0.08
0.08
0.08
0.08
0.08
0.08
0.08
0.08
0.17
0.17
0.08
0.08
0.08
0.08
0.08
0.08
0.08
0.08
0.08
0.08
0.08
0.08
0.08
0.08
0.08
0.08
0.08
0.08
0.08
0.08
0.08
0.08
0.08
0.08
0.06
0.00
0.00
0.00
0.00
0.00
0.00
0.00
0.00
0.12
0.00
0.00
0.00
0.12
0.12
0.12
0.12
0.12
0.12
0.12
0.12
0.12
0.00
0.00
0.08
0.08
0.57
0.75
0.75
0.86
0.80
0.79
0.72
0.57
0.00
0.17
0.12
0.20
0.20
0.20
0.20
0.20
0.20
0.20
0.12
0.12
0.12
0.12
0.08
0.08
0.08
0.19
0.17
0.17
0.08
0.08
0.08
0.08
0.08
0.08
0.08
0.08
0.08
0.08
0.08
0.08
0.08
0.08
0.08
0.08
0.08
0.08
0.08
0.08
0.08
0.08
0.08
0.08
0.08
0.08
0.08
0.08
0.08
0.08
0.08
0.08
0.08
0.08
0.08
0.08
0.08
0.00
0.00
0.00
0.00
0.00
0.00
0.00
0.00
0.00
0.00
0.00
0.12
0.12
0.12
0.12
0.12
0.12
0.12
0.21
0.21
0.21
0.21
0.21
0.00
0.00
0.67
0.75
0.76
0.86
0.87
0.77
0.74
0.67
0.21
0.00
0.08
0.17
0.19
0.08
0.08
0.08
0.08
0.08
0.08
0.08
0.06
0.06
0.00
0.00
0.00
0.00
0.00
0.12
0.12
0.21
0.21
0.21
0.21
0.12
0.12
0.12
0.12
0.12
0.12
0.12
0.12
0.12
0.12
0.12
0.12
0.21
0.21
0.21
0.21
0.21
0.21
0.21
0.21
0.21
0.21
0.21
0.12
0.12
0.00
0.00
0.00
0.00
0.00
0.21
0.21
0.31
0.31
0.21
0.21
0.31
0.31
0.31
0.21
0.21
0.31
0.31
0.31
0.31
0.31
0.21
0.21
0.21
0.21
0.21
0.21
0.00
0.08
0.00
0.70
0.77
0.75
0.91
0.86
0.79
0.72
0.57
0.00
0.08
0.08
0.20
0.20
0.20
0.20
0.20
0.20
0.20
0.20
0.20
0.20
0.12
0.12
0.08
0.08
0.08
0.08
0.19
0.19
0.19
0.08
0.08
0.08
0.08
0.08
0.08
0.08
0.08
0.08
0.08
0.08
0.08
0.08
0.08
0.08
0.19
0.19
0.19
0.19
0.19
0.17
0.19
0.08
0.17
0.17
0.17
0.17
0.17
0.17
0.17
0.08
0.08
0.08
0.19
0.08
0.06
0.06
0.06
0.06
0.06
0.06
0.06
0.06
0.06
0.06
0.06
0.06
0.06
0.06
0.06
0.06
0.06
0.06
0.06
0.08
0.08
0.08
0.17
0.20
0.17
0.57
0.75
0.77
0.75
0.76
0.77
0.71
0.39
0.17
0.20
0.35
0.65
0.65
0.65
0.65
0.65
0.65
0.51
0.51
0.35
0.35
0.43
0.43
0.38
0.20
0.12
0.12
0.12
0.12
0.12
0.12
0.12
0.12
0.12
0.12
0.20
0.20
0.20
0.20
0.20
0.12
0.12
0.12
0.12
0.12
0.12
0.08
0.08
0.08
0.08
0.08
0.19
0.19
0.08
0.08
0.19
0.17
0.19
0.19
0.17
0.17
0.17
0.17
0.17
0.08
0.06
0.06
0.06
0.06
0.06
0.06
0.00
0.00
0.00
0.00
0.00
0.00
0.00
0.00
0.00
0.00
0.00
0.00
0.00
0.00
0.00
0.00
0.06
0.08
0.08
0.57
0.74
0.79
0.75
0.76
0.77
0.71
0.40
0.08
0.20
0.43
0.35
0.51
0.51
0.35
0.35
0.35
0.35
0.43
0.38
0.20
0.12
0.12
0.08
0.08
0.08
0.08
0.17
0.19
0.08
0.08
0.08
0.08
0.08
0.08
0.08
0.08
0.08
0.08
0.08
0.08
0.08
0.08
0.08
0.08
0.08
0.08
0.08
0.08
0.08
0.08
0.08
0.08
0.08
0.08
0.08
0.08
0.08
0.08
0.08
0.08
0.08
0.08
0.06
0.00
0.00
0.00
0.00
0.00
0.00
0.00
0.00
0.12
0.00
0.00
0.00
0.12
0.12
0.12
0.12
0.12
0.12
0.12
0.12
0.12
0.12
0.00
0.08
0.08
0.39
0.72
0.78
0.80
0.80
0.78
0.74
0.66
0.00
0.08
0.08
0.20
0.20
0.38
0.20
0.20
0.12
0.12
0.12
0.08
0.08
0.08
0.19
0.19
0.08
0.08
0.08
0.08
0.08
0.08
0.08
0.08
0.08
0.08
0.08
0.08
0.08
0.08
0.08
0.08
0.08
0.08
0.08
0.08
0.08
0.06
0.06
0.08
0.08
0.08
0.08
0.08
0.08
0.08
0.08
0.08
0.08
0.06
0.06
0.08
0.08
0.08
0.08
0.06
0.06
0.00
0.00
0.00
0.12
0.12
0.00
0.00
0.12
0.00
0.00
0.12
0.12
0.12
0.12
0.12
0.12
0.12
0.12
0.12
0.12
0.00
0.00
0.06
0.17
0.08
0.59
0.75
0.77
0.75
0.75
0.77
0.71
0.52
0.00
0.17
0.12
0.38
0.38
0.38
0.38
0.20
0.20
0.20
0.12
0.12
0.08
0.19
0.17
0.08
0.08
0.06
0.00
0.00
0.00
0.12
0.12
0.12
0.12
0.00
0.00
0.00
0.00
0.00
0.00
0.00
0.00
0.12
0.12
0.12
0.12
0.12
0.12
0.21
0.21
0.21
0.21
0.21
0.21
0.21
0.21
0.21
0.31
0.21
0.12
0.12
0.12
0.21
0.21
0.31
0.40
0.36
0.39
0.39
0.39
0.39
0.39
0.39
0.39
0.52
0.52
0.39
0.39
0.52
0.52
0.52
0.52
0.52
0.52
0.39
0.39
0.52
0.36
0.31
0.31
0.70
0.75
0.75
0.94
0.95
0.80
0.77
0.71
0.39
0.12
0.00
0.08
0.08
0.08
0.08
0.08
0.08
0.06
0.06
0.06
0.06
0.00
0.00
0.00
0.00
0.00
0.00
0.00
0.00
0.00
0.00
0.00
0.00
0.00
0.00
0.06
0.06
0.06
0.08
0.08
0.08
0.08
0.08
0.08
0.08
0.08
0.08
0.08
0.08
0.08
0.08
0.08
0.08
0.08
0.08
0.08
0.08
0.08
0.08
0.08
0.08
0.08
0.17
0.08
0.08
0.06
0.06
0.00
0.00
0.06
0.06
0.06
0.06
0.00
0.00
0.06
0.06
0.00
0.00
0.00
0.06
0.00
0.00
0.06
0.06
0.06
0.06
0.08
0.12
0.17
0.59
0.75
0.76
0.75
0.75
0.77
0.69
0.39
0.17
0.08
0.43
0.35
0.51
0.51
0.51
0.51
0.51
0.35
0.35
0.35
0.43
0.20
0.20
0.12
0.12
0.12
0.08
0.08
0.08
0.08
0.08
0.12
0.12
0.08
0.08
0.12
0.12
0.12
0.12
0.12
0.12
0.08
0.08
0.08
0.08
0.08
0.08
0.08
0.08
0.08
0.19
0.19
0.19
0.19
0.08
0.19
0.19
0.08
0.08
0.17
0.17
0.19
0.08
0.19
0.08
0.08
0.06
0.06
0.06
0.06
0.06
0.06
0.06
0.06
0.06
0.06
0.06
0.06
0.06
0.00
0.00
0.06
0.06
0.06
0.06
0.06
0.06
0.06
0.08
0.20
0.08
0.70
0.77
0.75
0.78
0.75
0.78
0.70
0.21
0.17
0.20
0.43
0.35
0.51
0.51
0.51
0.35
0.35
0.35
0.35
0.35
0.38
0.38
0.20
0.20
0.20
0.12
0.12
0.12
0.12
0.08
0.08
0.12
0.12
0.12
0.12
0.12
0.12
0.12
0.12
0.12
0.12
0.12
0.12
0.12
0.12
0.12
0.08
0.08
0.08
0.08
0.12
0.35
0.71
0.80
0.86
0.87
0.89
0.93
0.97
0.98
0.99
1.00
1.00
1.00
0.99
0.89
0.08
0.67
0.71
0.69
0.69
0.69
0.71
0.71
0.71
0.71
0.71
0.71
0.71
0.69
0.71
0.71
0.71
0.70
0.70
0.68
0.69
0.70
0.70
0.67
0.66
0.62
0.57
0.39
0.36
0.40
0.31
0.21
0.00
0.00
0.00
0.06
0.08
0.08
0.19
0.08
0.08
0.08
0.08
0.08
0.08
0.19
0.17
0.08
0.08
0.08
0.08
0.08
0.08
0.08
0.08
0.06
0.06
0.06
0.00
0.00
0.00
0.00
0.12
0.12
0.12
0.12
0.12
0.12
0.21
0.21
0.21
0.21
0.21
0.21
0.31
0.21
0.21
0.31
0.31
0.31
0.31
0.31
0.31
0.31
0.39
0.31
0.21
0.21
0.21
0.21
0.31
0.39
0.36
0.36
0.40
0.40
0.39
0.31
0.40
0.39
0.31
0.31
0.31
0.31
0.31
0.31
0.31
0.31
0.31
0.31
0.31
0.31
0.12
0.06
0.08
0.36
0.70
0.80
0.78
0.86
0.75
0.74
0.68
0.31
0.08
0.19
0.12
0.20
0.20
0.20
0.20
0.20
0.20
0.12
0.12
0.12
0.08
0.08
0.08
0.19
0.17
0.08
0.08
0.08
0.08
0.17
0.17
0.19
0.08
0.08
0.08
0.12
0.12
0.12
0.20
0.20
0.20
0.20
0.38
0.20
0.20
0.20
0.12
0.12
0.12
0.08
0.08
0.08
0.08
0.08
0.08
0.08
0.08
0.19
0.08
0.08
0.17
0.17
0.08
0.08
0.19
0.17
0.08
0.00
0.00
0.00
0.00
0.00
0.00
0.00
0.00
0.00
0.00
0.00
0.00
0.00
0.00
0.00
0.00
0.00
0.00
0.00
0.00
0.00
0.00
0.06
0.08
0.08
0.67
0.76
0.75
0.80
0.74
0.77
0.71
0.40
0.08
0.08
0.38
0.35
0.35
0.35
0.35
0.35
0.35
0.35
0.43
0.38
0.20
0.20
0.12
0.12
0.12
0.08
0.08
0.08
0.08
0.08
0.08
0.08
0.08
0.08
0.08
0.08
0.12
0.12
0.12
0.12
0.12
0.08
0.08
0.08
0.08
0.08
0.08
0.08
0.08
0.19
0.17
0.17
0.08
0.08
0.08
0.08
0.08
0.08
0.08
0.08
0.08
0.08
0.08
0.08
0.08
0.08
0.06
0.00
0.00
0.00
0.00
0.00
0.00
0.00
0.00
0.00
0.00
0.00
0.00
0.00
0.00
0.00
0.00
0.00
0.00
0.00
0.00
0.00
0.00
0.17
0.12
0.06
0.69
0.77
0.75
0.74
0.76
0.75
0.70
0.12
0.17
0.20
0.35
0.51
0.51
0.51
0.35
0.35
0.35
0.35
0.43
0.38
0.20
0.20
0.12
0.12
0.12
0.08
0.08
0.08
0.08
0.08
0.08
0.08
0.08
0.08
0.08
0.08
0.08
0.12
0.12
0.12
0.12
0.12
0.12
0.08
0.17
0.17
0.08
0.08
0.08
0.08
0.08
0.08
0.08
0.08
0.08
0.08
0.08
0.08
0.08
0.08
0.08
0.08
0.08
0.08
0.06
0.00
0.00
0.00
0.00
0.00
0.00
0.00
0.00
0.00
0.00
0.00
0.00
0.12
0.12
0.12
0.12
0.12
0.12
0.12
0.12
0.12
0.00
0.06
0.08
0.00
0.69
0.76
0.75
0.80
0.75
0.78
0.71
0.39
0.06
0.19
0.20
0.38
0.38
0.38
0.20
0.20
0.20
0.38
0.20
0.12
0.12
0.08
0.08
0.17
0.08
0.08
0.08
0.08
0.08
0.08
0.08
0.08
0.08
0.08
0.08
0.08
0.08
0.08
0.08
0.08
0.08
0.08
0.08
0.08
0.06
0.06
0.06
0.06
0.06
0.00
0.00
0.06
0.06
0.06
0.00
0.00
0.00
0.00
0.00
0.00
0.00
0.00
0.06
0.06
0.06
0.00
0.00
0.00
0.12
0.12
0.12
0.00
0.00
0.12
0.12
0.12
0.12
0.12
0.12
0.12
0.12
0.12
0.12
0.12
0.00
0.00
0.00
0.00
0.00
0.08
0.17
0.39
0.71
0.80
0.75
0.80
0.77
0.75
0.67
0.00
0.17
0.12
0.43
0.35
0.35
0.35
0.35
0.43
0.43
0.38
0.20
0.20
0.12
0.08
0.08
0.08
0.08
0.19
0.19
0.08
0.08
0.08
0.08
0.08
0.08
0.08
0.08
0.08
0.12
0.12
0.12
0.12
0.12
0.08
0.19
0.17
0.08
0.08
0.08
0.08
0.08
0.08
0.08
0.08
0.08
0.08
0.08
0.08
0.08
0.08
0.08
0.08
0.08
0.08
0.08
0.08
0.06
0.00
0.00
0.00
0.00
0.00
0.00
0.00
0.00
0.00
0.00
0.00
0.12
0.12
0.12
0.12
0.12
0.12
0.12
0.12
0.12
0.00
0.00
0.00
0.17
0.00
0.68
0.77
0.75
0.80
0.75
0.78
0.70
0.31
0.08
0.08
0.20
0.38
0.43
0.43
0.35
0.38
0.38
0.20
0.20
0.12
0.12
0.08
0.08
0.08
0.08
0.17
0.08
0.08
0.08
0.08
0.08
0.08
0.19
0.17
0.17
0.17
0.19
0.08
0.08
0.08
0.08
0.08
0.08
0.08
0.06
0.06
0.00
0.00
0.00
0.00
0.00
0.06
0.06
0.00
0.00
0.00
0.00
0.00
0.00
0.00
0.00
0.00
0.00
0.00
0.00
0.00
0.00
0.12
0.21
0.21
0.21
0.21
0.21
0.21
0.21
0.21
0.21
0.21
0.21
0.31
0.21
0.21
0.12
0.12
0.12
0.12
0.12
0.00
0.00
0.19
0.06
0.66
0.74
0.75
0.86
0.75
0.77
0.71
0.39
0.00
0.19
0.12
0.20
0.38
0.38
0.38
0.38
0.38
0.20
0.20
0.20
0.20
0.12
0.12
0.12
0.08
0.08
0.08
0.19
0.08
0.08
0.08
0.08
0.08
0.08
0.08
0.08
0.08
0.08
0.17
0.08
0.08
0.08
0.08
0.08
0.08
0.08
0.06
0.06
0.06
0.00
0.00
0.00
0.00
0.00
0.12
0.12
0.21
0.21
0.21
0.21
0.21
0.12
0.12
0.12
0.21
0.31
0.40
0.36
0.36
0.39
0.39
0.39
0.39
0.39
0.39
0.39
0.39
0.52
0.52
0.52
0.52
0.52
0.52
0.52
0.57
0.52
0.52
0.52
0.36
0.12
0.57
0.72
0.77
0.91
0.95
0.90
0.78
0.72
0.66
0.39
0.00
0.00
0.06
0.06
0.06
0.06
0.00
0.00
0.06
0.06
0.06
0.00
0.00
0.00
0.00
0.12
0.12
0.12
0.21
0.21
0.21
0.21
0.21
0.21
0.12
0.12
0.12
0.12
0.12
0.00
0.00
0.00
0.00
0.12
0.00
0.00
0.12
0.00
0.00
0.00
0.00
0.00
0.00
0.00
0.00
0.00
0.00
0.00
0.00
0.00
0.00
0.00
0.06
0.06
0.06
0.00
0.00
0.00
0.12
0.12
0.12
0.12
0.12
0.12
0.12
0.00
0.00
0.00
0.00
0.00
0.00
0.00
0.00
0.00
0.00
0.00
0.00
0.00
0.00
0.17
0.17
0.36
0.71
0.79
0.78
0.80
0.78
0.73
0.59
0.00
0.08
0.43
0.51
0.51
0.51
0.51
0.51
0.51
0.51
0.51
0.35
0.35
0.35
0.43
0.20
0.20
0.20
0.12
0.12
0.12
0.12
0.12
0.12
0.12
0.12
0.12
0.12
0.12
0.12
0.20
0.12
0.12
0.12
0.12
0.08
0.08
0.08
0.08
0.08
0.08
0.08
0.08
0.08
0.08
0.08
0.19
0.17
0.08
0.08
0.08
0.08
0.08
0.17
0.19
0.08
0.19
0.08
0.06
0.06
0.06
0.06
0.06
0.06
0.00
0.00
0.00
0.00
0.06
0.06
0.00
0.00
0.00
0.00
0.00
0.00
0.00
0.00
0.00
0.00
0.00
0.08
0.19
0.00
0.70
0.78
0.75
0.80
0.75
0.76
0.70
0.21
0.08
0.12
0.38
0.35
0.35
0.35
0.35
0.43
0.43
0.43
0.20
0.20
0.20
0.12
0.12
0.12
0.12
0.12
0.12
0.12
0.08
0.08
0.08
0.08
0.08
0.12
0.12
0.12
0.12
0.12
0.12
0.12
0.08
0.08
0.08
0.08
0.08
0.19
0.19
0.08
0.08
0.08
0.08
0.08
0.19
0.17
0.08
0.19
0.19
0.17
0.08
0.17
0.08
0.08
0.08
0.19
0.08
0.08
0.06
0.06
0.06
0.06
0.06
0.06
0.06
0.06
0.06
0.00
0.00
0.06
0.06
0.06
0.00
0.00
0.06
0.06
0.06
0.06
0.06
0.06
0.08
0.08
0.08
0.67
0.74
0.75
0.78
0.75
0.77
0.70
0.31
0.08
0.08
0.38
0.35
0.35
0.35
0.35
0.35
0.35
0.35
0.35
0.35
0.38
0.20
0.20
0.20
0.12
0.12
0.12
0.12
0.08
0.08
0.08
0.08
0.12
0.12
0.12
0.12
0.12
0.12
0.12
0.12
0.12
0.12
0.12
0.12
0.12
0.12
0.08
0.08
0.08
0.08
0.08
0.08
0.19
0.19
0.19
0.19
0.19
0.17
0.08
0.08
0.17
0.17
0.17
0.19
0.08
0.08
0.06
0.00
0.00
0.00
0.00
0.00
0.12
0.12
0.21
0.31
0.31
0.39
0.40
0.40
0.36
0.36
0.36
0.36
0.36
0.36
0.40
0.40
0.31
0.00
0.39
0.71
0.77
0.82
0.94
0.91
0.77
0.73
0.62
0.21
0.00
0.06
0.08
0.08
0.08
0.08
0.08
0.08
0.06
0.06
0.06
0.00
0.00
0.00
0.00
0.00
0.12
0.12
0.21
0.21
0.21
0.21
0.21
0.21
0.21
0.12
0.12
0.12
0.12
0.12
0.12
0.12
0.12
0.12
0.12
0.12
0.12
0.21
0.12
0.12
0.21
0.21
0.21
0.21
0.12
0.12
0.21
0.21
0.21
0.21
0.12
0.00
0.00
0.00
0.00
0.00
0.21
0.31
0.31
0.31
0.31
0.31
0.31
0.31
0.31
0.31
0.31
0.31
0.31
0.31
0.21
0.21
0.21
0.21
0.21
0.21
0.21
0.12
0.00
0.08
0.17
0.39
0.72
0.77
0.82
0.86
0.76
0.75
0.67
0.00
0.17
0.12
0.43
0.35
0.35
0.35
0.35
0.43
0.43
0.35
0.35
0.43
0.38
0.38
0.20
0.20
0.20
0.12
0.12
0.12
0.12
0.12
0.12
0.12
0.12
0.12
0.20
0.12
0.12
0.12
0.12
0.12
0.12
0.08
0.08
0.08
0.08
0.08
0.08
0.08
0.19
0.19
0.08
0.08
0.08
0.17
0.17
0.17
0.08
0.08
0.08
0.08
0.08
0.08
0.17
0.17
0.08
0.08
0.08
0.06
0.00
0.00
0.00
0.06
0.00
0.00
0.00
0.06
0.00
0.00
0.00
0.00
0.00
0.00
0.00
0.00
0.00
0.00
0.00
0.00
0.00
0.17
0.08
0.21
0.69
0.80
0.74
0.80
0.77
0.75
0.66
0.00
0.19
0.20
0.43
0.35
0.51
0.35
0.35
0.35
0.43
0.43
0.35
0.38
0.20
0.20
0.12
0.12
0.12
0.12
0.12
0.12
0.08
0.08
0.08
0.12
0.12
0.12
0.12
0.12
0.12
0.12
0.12
0.12
0.12
0.12
0.08
0.08
0.08
0.08
0.08
0.08
0.08
0.08
0.08
0.08
0.08
0.08
0.08
0.19
0.19
0.19
0.17
0.17
0.19
0.08
0.08
0.08
0.19
0.17
0.08
0.08
0.08
0.08
0.08
0.06
0.06
0.06
0.06
0.06
0.06
0.06
0.06
0.06
0.06
0.06
0.06
0.06
0.06
0.06
0.06
0.06
0.06
0.08
0.20
0.00
0.71
0.77
0.75
0.78
0.78
0.75
0.66
0.00
0.19
0.20
0.35
0.51
0.51
0.51
0.35
0.35
0.35
0.43
0.43
0.43
0.38
0.20
0.20
0.20
0.12
0.12
0.12
0.12
0.08
0.08
0.12
0.12
0.12
0.12
0.20
0.20
0.20
0.20
0.20
0.20
0.20
0.20
0.20
0.12
0.12
0.12
0.12
0.08
0.08
0.08
0.08
0.12
0.12
0.08
0.08
0.08
0.08
0.08
0.08
0.19
0.19
0.08
0.08
0.12
0.08
0.19
0.08
0.08
0.08
0.08
0.08
0.08
0.06
0.00
0.00
0.00
0.00
0.00
0.00
0.00
0.00
0.00
0.00
0.00
0.00
0.00
0.00
0.00
0.00
0.08
0.17
0.31
0.71
0.78
0.75
0.75
0.78
0.75
0.66
0.00
0.19
0.20
0.43
0.51
0.35
0.35
0.35
0.35
0.43
0.38
0.20
0.20
0.12
0.12
0.08
0.08
0.19
0.17
0.17
0.17
0.17
0.08
0.08
0.08
0.17
0.17
0.19
0.19
0.08
0.19
0.19
0.19
0.08
0.17
0.08
0.08
0.19
0.08
0.20
0.51
0.76
0.81
0.86
0.89
0.93
0.98
0.98
0.98
0.99
0.99
0.98
0.87
0.08
0.59
0.70
0.70
0.70
0.69
0.71
0.71
0.71
0.71
0.69
0.69
0.71
0.71
0.69
0.69
0.71
0.71
0.71
0.71
0.70
0.70
0.70
0.69
0.69
0.67
0.66
0.59
0.57
0.39
0.40
0.31
0.21
0.12
0.00
0.00
0.00
0.00
0.00
0.00
0.06
0.06
0.06
0.06
0.06
0.06
0.06
0.06
0.00
0.00
0.06
0.00
0.00
0.00
0.00
0.00
0.00
0.00
0.00
0.00
0.00
0.00
0.00
0.00
0.00
0.00
0.00
0.00
0.00
0.00
0.00
0.00
0.00
0.00
0.00
0.00
0.00
0.00
0.00
0.00
0.00
0.00
0.00
0.00
0.00
0.00
0.00
0.00
0.00
0.00
0.00
0.00
0.06
0.06
0.08
0.08
0.08
0.08
0.06
0.06
0.00
0.00
0.00
0.00
0.00
0.00
0.00
0.00
0.00
0.00
0.00
0.00
0.00
0.00
0.00
0.00
0.00
0.00
0.00
0.00
0.08
0.08
0.36
0.71
0.80
0.78
0.86
0.75
0.77
0.70
0.40
0.00
0.08
0.08
0.17
0.17
0.17
0.17
0.17
0.08
0.08
0.08
0.08
0.06
0.06
0.00
0.00
0.00
0.12
0.12
0.21
0.21
0.21
0.21
0.12
0.12
0.00
0.00
0.00
0.00
0.00
0.06
0.06
0.00
0.00
0.06
0.06
0.00
0.00
0.00
0.00
0.00
0.00
0.00
0.00
0.12
0.00
0.00
0.12
0.00
0.00
0.00
0.00
0.00
0.00
0.00
0.00
0.00
0.12
0.21
0.21
0.31
0.31
0.21
0.39
0.39
0.31
0.31
0.31
0.39
0.36
0.40
0.39
0.39
0.31
0.31
0.31
0.31
0.31
0.21
0.12
0.00
0.06
0.36
0.70
0.80
0.82
0.91
0.75
0.78
0.70
0.39
0.08
0.08
0.12
0.20
0.20
0.20
0.20
0.20
0.20
0.20
0.12
0.12
0.12
0.12
0.08
0.08
0.08
0.08
0.08
0.08
0.08
0.08
0.08
0.08
0.08
0.08
0.08
0.08
0.08
0.12
0.08
0.08
0.08
0.19
0.19
0.08
0.08
0.19
0.17
0.08
0.08
0.08
0.08
0.08
0.08
0.08
0.08
0.08
0.08
0.08
0.08
0.08
0.08
0.08
0.08
0.08
0.08
0.08
0.06
0.00
0.00
0.00
0.00
0.00
0.00
0.00
0.00
0.00
0.00
0.00
0.00
0.00
0.00
0.00
0.00
0.00
0.00
0.00
0.00
0.00
0.00
0.06
0.19
0.08
0.62
0.75
0.75
0.78
0.75
0.78
0.71
0.31
0.08
0.08
0.20
0.43
0.35
0.35
0.35
0.43
0.43
0.38
0.20
0.20
0.20
0.12
0.12
0.08
0.08
0.08
0.19
0.19
0.19
0.19
0.08
0.08
0.08
0.08
0.12
0.12
0.12
0.12
0.08
0.08
0.12
0.08
0.08
0.19
0.19
0.19
0.17
0.19
0.08
0.08
0.08
0.08
0.08
0.08
0.08
0.08
0.08
0.08
0.08
0.08
0.08
0.17
0.19
0.17
0.08
0.08
0.06
0.00
0.00
0.00
0.00
0.00
0.00
0.00
0.00
0.00
0.00
0.00
0.00
0.00
0.00
0.00
0.00
0.00
0.00
0.00
0.00
0.00
0.06
0.19
0.08
0.66
0.75
0.76
0.82
0.75
0.77
0.71
0.40
0.08
0.08
0.20
0.43
0.35
0.35
0.35
0.35
0.35
0.38
0.38
0.20
0.20
0.12
0.12
0.08
0.08
0.08
0.08
0.19
0.19
0.19
0.08
0.08
0.08
0.08
0.19
0.19
0.08
0.08
0.08
0.08
0.08
0.08
0.08
0.08
0.08
0.19
0.19
0.08
0.08
0.17
0.17
0.17
0.17
0.17
0.08
0.08
0.08
0.08
0.08
0.08
0.08
0.08
0.17
0.17
0.17
0.08
0.06
0.00
0.00
0.00
0.00
0.00
0.00
0.00
0.00
0.00
0.00
0.21
0.21
0.31
0.31
0.31
0.31
0.31
0.31
0.31
0.39
0.39
0.39
0.00
0.00
0.57
0.73
0.76
0.87
0.94
0.75
0.78
0.71
0.36
0.12
0.06
0.08
0.08
0.08
0.08
0.08
0.08
0.08
0.08
0.08
0.06
0.06
0.00
0.00
0.00
0.00
0.00
0.00
0.00
0.00
0.00
0.00
0.00
0.00
0.06
0.06
0.06
0.06
0.06
0.06
0.06
0.06
0.06
0.06
0.06
0.06
0.06
0.00
0.00
0.00
0.00
0.00
0.06
0.00
0.00
0.06
0.00
0.00
0.00
0.00
0.06
0.06
0.06
0.00
0.00
0.00
0.12
0.12
0.12
0.12
0.00
0.00
0.12
0.12
0.12
0.12
0.12
0.12
0.12
0.12
0.12
0.12
0.12
0.12
0.12
0.12
0.00
0.00
0.08
0.08
0.40
0.70
0.79
0.80
0.86
0.75
0.75
0.70
0.21
0.08
0.12
0.20
0.43
0.43
0.43
0.43
0.43
0.38
0.20
0.20
0.20
0.12
0.12
0.12
0.12
0.12
0.08
0.08
0.08
0.08
0.08
0.08
0.08
0.08
0.08
0.08
0.08
0.08
0.08
0.08
0.12
0.08
0.08
0.08
0.08
0.08
0.08
0.17
0.17
0.08
0.08
0.17
0.17
0.17
0.17
0.17
0.17
0.08
0.08
0.08
0.17
0.08
0.08
0.19
0.17
0.08
0.06
0.06
0.06
0.00
0.00
0.06
0.00
0.00
0.00
0.00
0.06
0.00
0.00
0.00
0.00
0.00
0.00
0.00
0.00
0.00
0.00
0.00
0.00
0.08
0.12
0.06
0.69
0.78
0.76
0.80
0.76
0.77
0.70
0.31
0.08
0.12
0.38
0.35
0.51
0.51
0.51
0.35
0.43
0.43
0.43
0.20
0.20
0.20
0.20
0.20
0.12
0.12
0.12
0.12
0.12
0.12
0.12
0.12
0.12
0.12
0.12
0.12
0.12
0.12
0.12
0.12
0.12
0.12
0.12
0.08
0.08
0.08
0.08
0.08
0.08
0.08
0.08
0.08
0.19
0.19
0.08
0.08
0.08
0.08
0.19
0.19
0.19
0.12
0.08
0.08
0.19
0.08
0.08
0.08
0.08
0.06
0.06
0.06
0.06
0.06
0.06
0.06
0.06
0.06
0.06
0.00
0.00
0.06
0.06
0.06
0.06
0.06
0.06
0.06
0.17
0.08
0.06
0.70
0.74
0.75
0.74
0.76
0.78
0.70
0.21
0.08
0.08
0.38
0.35
0.35
0.35
0.35
0.35
0.43
0.43
0.38
0.20
0.20
0.12
0.12
0.12
0.08
0.08
0.08
0.08
0.08
0.17
0.17
0.17
0.17
0.19
0.19
0.19
0.08
0.08
0.08
0.08
0.08
0.08
0.08
0.08
0.08
0.19
0.17
0.08
0.08
0.08
0.08
0.08
0.08
0.08
0.08
0.08
0.08
0.06
0.06
0.08
0.08
0.08
0.08
0.08
0.06
0.00
0.00
0.00
0.00
0.00
0.00
0.00
0.12
0.12
0.12
0.12
0.12
0.12
0.12
0.12
0.12
0.12
0.00
0.00
0.00
0.00
0.00
0.00
0.08
0.08
0.39
0.69
0.78
0.75
0.82
0.75
0.75
0.69
0.12
0.08
0.08
0.20
0.38
0.38
0.20
0.20
0.20
0.20
0.12
0.12
0.08
0.08
0.08
0.17
0.17
0.08
0.08
0.08
0.08
0.08
0.08
0.08
0.08
0.08
0.08
0.08
0.08
0.08
0.17
0.08
0.08
0.08
0.08
0.08
0.08
0.08
0.08
0.08
0.08
0.08
0.08
0.08
0.08
0.08
0.08
0.08
0.06
0.06
0.06
0.06
0.06
0.06
0.08
0.08
0.08
0.06
0.00
0.00
0.00
0.00
0.00
0.00
0.00
0.00
0.00
0.00
0.00
0.00
0.00
0.00
0.00
0.00
0.00
0.00
0.00
0.00
0.00
0.00
0.00
0.08
0.19
0.21
0.71
0.78
0.74
0.82
0.76
0.74
0.70
0.12
0.08
0.19
0.12
0.20
0.20
0.20
0.20
0.20
0.12
0.12
0.08
0.08
0.19
0.08
0.08
0.08
0.06
0.00
0.00
0.12
0.12
0.12
0.21
0.12
0.12
0.21
0.21
0.12
0.12
0.21
0.12
0.12
0.21
0.21
0.21
0.21
0.21
0.21
0.31
0.31
0.31
0.31
0.31
0.31
0.21
0.21
0.31
0.31
0.31
0.31
0.31
0.31
0.21
0.21
0.21
0.31
0.40
0.36
0.36
0.39
0.52
0.39
0.39
0.39
0.39
0.39
0.36
0.36
0.36
0.36
0.36
0.36
0.36
0.36
0.36
0.36
0.40
0.40
0.39
0.21
0.00
0.21
0.70
0.77
0.82
0.94
0.90
0.78
0.72
0.57
0.00
0.08
0.19
0.08
0.12
0.12
0.12
0.12
0.12
0.08
0.08
0.08
0.08
0.08
0.08
0.17
0.08
0.08
0.08
0.08
0.08
0.08
0.08
0.08
0.08
0.08
0.08
0.17
0.08
0.08
0.19
0.19
0.19
0.19
0.08
0.19
0.08
0.08
0.08
0.08
0.08
0.08
0.08
0.08
0.08
0.08
0.08
0.08
0.08
0.08
0.08
0.08
0.17
0.17
0.17
0.17
0.08
0.06
0.00
0.00
0.00
0.00
0.00
0.00
0.00
0.00
0.00
0.00
0.00
0.00
0.00
0.00
0.00
0.00
0.00
0.06
0.06
0.06
0.06
0.06
0.17
0.38
0.00
0.70
0.78
0.75
0.82
0.76
0.75
0.67
0.12
0.19
0.20
0.35
0.51
0.65
0.51
0.51
0.51
0.51
0.51
0.51
0.51
0.35
0.35
0.43
0.38
0.20
0.20
0.12
0.12
0.12
0.12
0.12
0.12
0.12
0.12
0.12
0.20
0.20
0.12
0.12
0.12
0.12
0.12
0.12
0.12
0.12
0.08
0.08
0.08
0.08
0.08
0.08
0.08
0.08
0.17
0.17
0.19
0.08
0.17
0.17
0.17
0.19
0.19
0.19
0.08
0.19
0.17
0.08
0.06
0.06
0.06
0.06
0.06
0.00
0.00
0.06
0.06
0.06
0.00
0.00
0.00
0.00
0.00
0.00
0.00
0.00
0.00
0.06
0.06
0.06
0.08
0.12
0.21
0.71
0.77
0.75
0.74
0.79
0.73
0.62
0.00
0.08
0.43
0.51
0.51
0.51
0.51
0.51
0.51
0.35
0.35
0.35
0.43
0.20
0.20
0.12
0.12
0.12
0.08
0.08
0.08
0.08
0.08
0.08
0.08
0.08
0.08
0.08
0.08
0.08
0.08
0.12
0.12
0.08
0.08
0.08
0.08
0.08
0.08
0.08
0.08
0.19
0.17
0.19
0.19
0.19
0.17
0.08
0.08
0.08
0.08
0.17
0.17
0.17
0.19
0.17
0.08
0.08
0.06
0.00
0.00
0.00
0.00
0.00
0.00
0.00
0.00
0.00
0.00
0.00
0.00
0.00
0.00
0.00
0.00
0.00
0.00
0.00
0.00
0.00
0.06
0.19
0.06
0.70
0.74
0.75
0.82
0.74
0.77
0.69
0.36
0.08
0.19
0.20
0.38
0.38
0.43
0.20
0.20
0.20
0.20
0.12
0.12
0.08
0.08
0.19
0.17
0.08
0.08
0.08
0.08
0.08
0.08
0.08
0.08
0.08
0.08
0.08
0.17
0.17
0.19
0.08
0.08
0.19
0.19
0.19
0.08
0.08
0.17
0.08
0.08
0.08
0.08
0.08
0.08
0.08
0.08
0.08
0.08
0.08
0.08
0.06
0.06
0.06
0.08
0.08
0.08
0.06
0.00
0.00
0.00
0.12
0.12
0.12
0.12
0.12
0.12
0.12
0.00
0.00
0.00
0.00
0.00
0.00
0.00
0.00
0.00
0.00
0.00
0.00
0.00
0.06
0.17
0.06
0.66
0.75
0.75
0.78
0.75
0.77
0.71
0.40
0.08
0.12
0.38
0.35
0.51
0.35
0.35
0.35
0.35
0.35
0.43
0.20
0.20
0.20
0.12
0.08
0.08
0.08
0.08
0.08
0.08
0.08
0.08
0.08
0.08
0.08
0.08
0.08
0.08
0.08
0.08
0.08
0.19
0.17
0.17
0.08
0.08
0.08
0.08
0.08
0.08
0.08
0.08
0.08
0.08
0.08
0.08
0.08
0.08
0.08
0.08
0.08
0.08
0.08
0.08
0.08
0.06
0.00
0.00
0.00
0.00
0.00
0.00
0.00
0.00
0.00
0.00
0.12
0.12
0.00
0.00
0.12
0.12
0.12
0.12
0.12
0.00
0.00
0.12
0.00
0.08
0.08
0.40
0.71
0.78
0.75
0.80
0.75
0.75
0.69
0.12
0.08
0.12
0.38
0.43
0.43
0.43
0.38
0.38
0.20
0.20
0.20
0.12
0.12
0.08
0.08
0.08
0.17
0.08
0.08
0.08
0.08
0.08
0.08
0.08
0.08
0.08
0.17
0.19
0.08
0.17
0.08
0.08
0.08
0.08
0.08
0.08
0.08
0.08
0.08
0.08
0.06
0.06
0.06
0.06
0.06
0.06
0.06
0.00
0.00
0.00
0.00
0.06
0.06
0.06
0.06
0.06
0.00
0.00
0.12
0.21
0.21
0.21
0.21
0.21
0.21
0.21
0.21
0.21
0.21
0.21
0.21
0.31
0.31
0.21
0.21
0.12
0.12
0.12
0.12
0.00
0.06
0.08
0.40
0.69
0.80
0.80
0.87
0.76
0.76
0.68
0.21
0.08
0.08
0.20
0.20
0.20
0.20
0.20
0.20
0.20
0.20
0.20
0.12
0.12
0.08
0.08
0.08
0.19
0.19
0.19
0.17
0.19
0.19
0.19
0.08
0.08
0.17
0.17
0.19
0.08
0.08
0.08
0.19
0.17
0.08
0.08
0.08
0.08
0.08
0.08
0.08
0.08
0.08
0.08
0.08
0.08
0.08
0.08
0.08
0.08
0.08
0.08
0.08
0.08
0.06
0.06
0.06
0.06
0.00
0.00
0.12
0.12
0.12
0.12
0.00
0.00
0.00
0.00
0.00
0.00
0.00
0.00
0.00
0.00
0.00
0.00
0.00
0.00
0.00
0.00
0.00
0.08
0.17
0.21
0.70
0.78
0.74
0.82
0.76
0.76
0.69
0.12
0.08
0.12
0.38
0.43
0.35
0.35
0.35
0.43
0.20
0.20
0.20
0.20
0.12
0.12
0.08
0.19
0.17
0.17
0.17
0.17
0.17
0.08
0.08
0.08
0.08
0.17
0.17
0.08
0.19
0.19
0.19
0.19
0.19
0.17
0.17
0.08
0.08
0.08
0.08
0.08
0.08
0.08
0.08
0.08
0.08
0.06
0.06
0.06
0.06
0.06
0.06
0.06
0.06
0.08
0.06
0.06
0.00
0.00
0.00
0.12
0.12
0.12
0.12
0.12
0.12
0.12
0.12
0.12
0.12
0.12
0.12
0.12
0.12
0.12
0.12
0.00
0.00
0.12
0.12
0.00
0.06
0.19
0.21
0.71
0.78
0.82
0.90
0.76
0.76
0.68
0.21
0.08
0.19
0.12
0.20
0.20
0.20
0.20
0.20
0.12
0.12
0.12
0.12
0.08
0.08
0.08
0.08
0.08
0.19
0.17
0.08
0.08
0.08
0.08
0.17
0.17
0.17
0.19
0.19
0.19
0.08
0.19
0.17
0.19
0.17
0.17
0.08
0.08
0.08
0.08
0.08
0.08
0.08
0.08
0.08
0.08
0.08
0.08
0.08
0.08
0.08
0.08
0.08
0.08
0.08
0.08
0.06
0.00
0.00
0.12
0.12
0.12
0.12
0.00
0.00
0.12
0.12
0.12
0.12
0.12
0.21
0.21
0.21
0.21
0.21
0.31
0.39
0.36
0.40
0.40
0.40
0.21
0.00
0.57
0.71
0.78
0.87
0.94
0.82
0.80
0.71
0.59
0.31
0.00
0.00
0.06
0.06
0.06
0.06
0.00
0.00
0.00
0.00
0.00
0.00
0.00
0.00
0.12
0.12
0.12
0.21
0.21
0.21
0.21
0.21
0.21
0.12
0.12
0.12
0.21
0.12
0.12
0.12
0.12
0.12
0.12
0.21
0.21
0.21
0.21
0.21
0.21
0.21
0.21
0.21
0.21
0.21
0.21
0.21
0.21
0.21
0.21
0.12
0.12
0.00
0.00
0.00
0.00
0.12
0.21
0.31
0.31
0.31
0.31
0.31
0.31
0.31
0.31
0.31
0.31
0.31
0.31
0.31
0.31
0.31
0.31
0.31
0.21
0.21
0.21
0.21
0.00
0.08
0.00
0.69
0.77
0.75
0.91
0.86
0.78
0.73
0.62
0.12
0.08
0.08
0.12
0.20
0.20
0.20
0.20
0.20
0.20
0.20
0.20
0.20
0.20
0.12
0.08
0.08
0.19
0.19
0.08
0.08
0.08
0.08
0.08
0.08
0.08
0.08
0.08
0.08
0.08
0.08
0.08
0.08
0.19
0.19
0.08
0.19
0.17
0.17
0.17
0.17
0.17
0.17
0.08
0.08
0.08
0.17
0.08
0.08
0.08
0.08
0.08
0.08
0.17
0.19
0.17
0.17
0.08
0.06
0.06
0.06
0.06
0.06
0.08
0.06
0.06
0.06
0.06
0.08
0.06
0.06
0.06
0.06
0.06
0.06
0.06
0.06
0.06
0.06
0.08
0.08
0.12
0.20
0.12
0.69
0.78
0.74
0.75
0.78
0.74
0.62
0.06
0.08
0.43
0.51
0.65
0.65
0.65
0.65
0.51
0.51
0.35
0.35
0.35
0.43
0.38
0.38
0.20
0.20
0.12
0.12
0.12
0.12
0.12
0.08
0.08
0.12
0.12
0.12
0.12
0.12
0.12
0.12
0.12
0.12
0.12
0.12
0.12
0.12
0.12
0.12
0.12
0.12
0.12
0.12
0.12
0.12
0.12
0.12
0.08
0.08
0.08
0.19
0.08
0.17
0.17
0.17
0.08
0.08
0.00
0.00
0.12
0.12
0.12
0.12
0.21
0.21
0.21
0.21
0.21
0.21
0.21
0.31
0.39
0.40
0.36
0.36
0.36
0.36
0.36
0.36
0.36
0.40
0.21
0.12
0.59
0.73
0.77
0.90
0.94
0.78
0.77
0.71
0.36
0.00
0.06
0.08
0.08
0.17
0.17
0.08
0.19
0.17
0.08
0.08
0.08
0.08
0.08
0.08
0.08
0.06
0.06
0.00
0.00
0.00
0.00
0.00
0.00
0.06
0.06
0.06
0.08
0.08
0.08
0.08
0.08
0.08
0.08
0.08
0.06
0.06
0.06
0.00
0.00
0.06
0.06
0.08
0.17
0.12
0.35
0.76
0.80
0.83
0.88
0.92
0.97
0.98
0.99
0.99
1.00
1.00
0.98
0.78
0.31
0.70
0.71
0.69
0.69
0.71
0.71
0.69
0.69
0.69
0.69
0.69
0.69
0.69
0.69
0.71
0.70
0.70
0.70
0.70
0.70
0.68
0.68
0.70
0.66
0.62
0.59
0.57
0.39
0.40
0.39
0.21
0.12
0.00
0.00
0.00
0.06
0.08
0.08
0.08
0.08
0.08
0.08
0.08
0.08
0.08
0.08
0.08
0.08
0.08
0.08
0.08
0.08
0.17
0.08
0.08
0.08
0.08
0.08
0.08
0.08
0.08
0.08
0.08
0.08
0.08
0.08
0.08
0.08
0.08
0.08
0.08
0.08
0.08
0.08
0.08
0.08
0.08
0.08
0.08
0.08
0.08
0.08
0.08
0.08
0.08
0.17
0.19
0.17
0.08
0.08
0.08
0.06
0.06
0.06
0.08
0.08
0.06
0.06
0.08
0.08
0.08
0.08
0.08
0.08
0.08
0.08
0.08
0.08
0.08
0.08
0.17
0.38
0.38
0.39
0.71
0.79
0.75
0.76
0.78
0.71
0.39
0.08
0.43
0.51
0.71
0.76
0.78
0.78
0.76
0.71
0.65
0.65
0.51
0.35
0.38
0.20
0.20
0.12
0.08
0.08
0.19
0.19
0.17
0.08
0.08
0.08
0.08
0.08
0.08
0.08
0.08
0.08
0.08
0.08
0.08
0.08
0.08
0.08
0.06
0.00
0.00
0.00
0.00
0.00
0.00
0.00
0.00
0.00
0.00
0.00
0.00
0.12
0.12
0.21
0.12
0.00
0.00
0.00
0.12
0.21
0.39
0.36
0.36
0.36
0.36
0.39
0.39
0.39
0.39
0.39
0.39
0.52
0.52
0.52
0.52
0.52
0.39
0.39
0.39
0.39
0.39
0.36
0.40
0.21
0.39
0.70
0.80
0.87
0.95
0.94
0.76
0.73
0.62
0.21
0.00
0.06
0.08
0.08
0.08
0.08
0.08
0.08
0.08
0.08
0.08
0.08
0.08
0.06
0.06
0.00
0.00
0.00
0.00
0.00
0.00
0.00
0.00
0.06
0.06
0.06
0.08
0.08
0.08
0.08
0.08
0.08
0.08
0.08
0.08
0.08
0.08
0.08
0.08
0.08
0.08
0.08
0.08
0.08
0.08
0.08
0.08
0.08
0.08
0.08
0.08
0.08
0.08
0.08
0.08
0.06
0.06
0.00
0.00
0.00
0.00
0.00
0.00
0.00
0.00
0.00
0.00
0.00
0.00
0.00
0.00
0.06
0.06
0.00
0.00
0.00
0.06
0.06
0.06
0.19
0.12
0.31
0.69
0.80
0.74
0.82
0.76
0.75
0.67
0.12
0.19
0.38
0.35
0.51
0.51
0.51
0.51
0.51
0.51
0.51
0.35
0.35
0.35
0.35
0.35
0.43
0.20
0.20
0.20
0.20
0.20
0.20
0.12
0.12
0.20
0.20
0.20
0.38
0.20
0.20
0.20
0.31
0.21
0.12
0.00
0.00
0.00
0.00
0.00
0.00
0.00
0.00
0.06
0.06
0.06
0.06
0.17
0.17
0.08
0.08
0.17
0.08
0.00
0.00
0.00
0.00
0.00
0.00
0.00
0.00
0.00
0.06
0.06
0.00
0.00
0.00
0.06
0.06
0.06
0.08
0.17
0.17
0.08
0.08
0.08
0.08
0.08
0.06
0.06
0.08
0.08
0.19
0.00
0.59
0.71
0.80
0.95
0.96
0.96
0.77
0.08
0.90
0.91
0.87
0.78
0.76
0.76
0.71
0.71
0.71
0.65
0.51
0.35
0.38
0.12
0.19
0.08
0.00
0.00
0.00
0.21
0.31
0.39
0.40
0.39
0.39
0.52
0.52
0.57
0.59
0.59
0.59
0.59
0.59
0.57
0.52
0.39
0.40
0.39
0.39
0.39
0.21
0.00
0.12
0.12
0.12
0.12
0.12
0.21
0.21
0.21
0.21
0.21
0.21
0.12
0.12
0.12
0.21
0.31
0.40
0.40
0.36
0.36
0.36
0.36
0.36
0.36
0.36
0.36
0.36
0.39
0.36
0.36
0.36
0.36
0.36
0.36
0.36
0.36
0.36
0.36
0.31
0.00
0.36
0.69
0.77
0.78
0.94
0.86
0.78
0.72
0.59
0.12
0.08
0.17
0.08
0.12
0.12
0.12
0.08
0.08
0.08
0.08
0.08
0.08
0.19
0.17
0.17
0.08
0.08
0.08
0.08
0.08
0.08
0.08
0.08
0.08
0.08
0.08
0.17
0.19
0.08
0.08
0.08
0.08
0.08
0.19
0.17
0.17
0.17
0.08
0.08
0.17
0.17
0.19
0.17
0.08
0.17
0.17
0.08
0.08
0.08
0.08
0.17
0.08
0.08
0.08
0.19
0.08
0.08
0.06
0.06
0.06
0.06
0.06
0.06
0.06
0.06
0.06
0.06
0.00
0.00
0.06
0.00
0.00
0.06
0.06
0.06
0.06
0.06
0.06
0.08
0.08
0.08
0.40
0.70
0.80
0.74
0.78
0.78
0.74
0.62
0.06
0.12
0.43
0.51
0.65
0.65
0.65
0.65
0.51
0.51
0.51
0.51
0.35
0.35
0.35
0.35
0.35
0.20
0.20
0.20
0.20
0.20
0.12
0.12
0.20
0.20
0.20
0.20
0.20
0.20
0.20
0.20
0.20
0.20
0.20
0.20
0.12
0.12
0.12
0.12
0.12
0.12
0.12
0.12
0.12
0.12
0.12
0.08
0.08
0.08
0.08
0.08
0.08
0.12
0.12
0.12
0.08
0.19
0.08
0.08
0.08
0.08
0.08
0.08
0.08
0.08
0.06
0.06
0.06
0.06
0.06
0.06
0.06
0.06
0.06
0.06
0.06
0.06
0.06
0.06
0.06
0.17
0.20
0.08
0.67
0.74
0.75
0.74
0.75
0.74
0.68
0.12
0.19
0.38
0.65
0.65
0.65
0.65
0.65
0.65
0.65
0.51
0.51
0.51
0.35
0.43
0.43
0.20
0.20
0.12
0.12
0.12
0.12
0.12
0.12
0.12
0.12
0.12
0.12
0.12
0.12
0.12
0.12
0.12
0.12
0.12
0.08
0.08
0.08
0.08
0.08
0.08
0.08
0.08
0.08
0.08
0.08
0.19
0.19
0.08
0.19
0.17
0.17
0.19
0.19
0.19
0.08
0.17
0.08
0.08
0.06
0.06
0.06
0.00
0.00
0.00
0.00
0.00
0.00
0.00
0.00
0.00
0.00
0.00
0.00
0.00
0.00
0.00
0.00
0.00
0.00
0.00
0.08
0.08
0.52
0.72
0.78
0.75
0.78
0.79
0.72
0.52
0.06
0.19
0.20
0.35
0.35
0.35
0.35
0.35
0.35
0.38
0.20
0.20
0.12
0.12
0.08
0.08
0.08
0.08
0.17
0.08
0.08
0.08
0.08
0.17
0.17
0.17
0.19
0.08
0.08
0.19
0.19
0.19
0.17
0.08
0.08
0.08
0.08
0.08
0.08
0.08
0.08
0.06
0.06
0.06
0.06
0.06
0.06
0.00
0.00
0.00
0.00
0.00
0.00
0.06
0.06
0.06
0.00
0.00
0.00
0.12
0.12
0.12
0.00
0.00
0.12
0.12
0.12
0.12
0.12
0.12
0.12
0.00
0.00
0.00
0.00
0.00
0.00
0.00
0.00
0.00
0.00
0.17
0.06
0.66
0.75
0.75
0.80
0.75
0.77
0.71
0.40
0.08
0.08
0.38
0.35
0.51
0.51
0.51
0.51
0.51
0.51
0.35
0.43
0.20
0.20
0.20
0.12
0.12
0.08
0.08
0.17
0.08
0.08
0.08
0.08
0.08
0.08
0.08
0.08
0.08
0.08
0.06
0.06
0.06
0.00
0.00
0.00
0.00
0.00
0.00
0.12
0.12
0.12
0.12
0.21
0.21
0.21
0.21
0.21
0.21
0.31
0.31
0.31
0.21
0.21
0.12
0.12
0.21
0.31
0.39
0.40
0.36
0.36
0.40
0.40
0.40
0.40
0.40
0.39
0.31
0.39
0.31
0.31
0.31
0.31
0.31
0.31
0.31
0.31
0.31
0.21
0.00
0.06
0.12
0.70
0.78
0.78
0.94
0.82
0.80
0.71
0.39
0.00
0.08
0.08
0.12
0.12
0.12
0.12
0.12
0.12
0.12
0.12
0.08
0.08
0.08
0.08
0.19
0.17
0.17
0.08
0.08
0.08
0.08
0.08
0.08
0.17
0.08
0.08
0.17
0.19
0.19
0.17
0.17
0.19
0.17
0.08
0.08
0.08
0.08
0.17
0.08
0.08
0.08
0.17
0.08
0.08
0.08
0.08
0.08
0.08
0.08
0.08
0.08
0.08
0.17
0.19
0.17
0.08
0.06
0.00
0.00
0.00
0.00
0.00
0.00
0.00
0.00
0.00
0.00
0.00
0.00
0.00
0.00
0.00
0.00
0.00
0.00
0.00
0.00
0.06
0.06
0.19
0.12
0.31
0.71
0.79
0.74
0.80
0.78
0.73
0.57
0.00
0.08
0.43
0.35
0.51
0.51
0.51
0.51
0.51
0.51
0.35
0.35
0.35
0.38
0.20
0.20
0.20
0.12
0.12
0.12
0.08
0.08
0.08
0.12
0.08
0.08
0.12
0.12
0.12
0.12
0.12
0.12
0.12
0.12
0.12
0.08
0.08
0.08
0.08
0.08
0.08
0.08
0.08
0.08
0.08
0.08
0.08
0.08
0.08
0.08
0.19
0.19
0.19
0.08
0.08
0.08
0.19
0.17
0.08
0.00
0.00
0.00
0.00
0.00
0.00
0.00
0.00
0.00
0.00
0.00
0.00
0.00
0.00
0.00
0.00
0.00
0.00
0.00
0.00
0.00
0.00
0.08
0.08
0.40
0.71
0.80
0.74
0.80
0.75
0.74
0.68
0.31
0.00
0.08
0.19
0.08
0.08
0.19
0.19
0.17
0.08
0.08
0.08
0.08
0.06
0.06
0.00
0.00
0.00
0.00
0.00
0.12
0.12
0.21
0.21
0.21
0.12
0.12
0.12
0.12
0.12
0.12
0.00
0.00
0.00
0.00
0.00
0.00
0.00
0.00
0.12
0.00
0.00
0.00
0.00
0.00
0.00
0.00
0.00
0.00
0.00
0.00
0.00
0.00
0.00
0.00
0.00
0.00
0.12
0.21
0.21
0.21
0.21
0.21
0.21
0.31
0.21
0.21
0.21
0.21
0.21
0.21
0.21
0.21
0.21
0.21
0.21
0.21
0.21
0.21
0.12
0.00
0.08
0.21
0.71
0.77
0.75
0.90
0.74
0.77
0.71
0.40
0.06
0.19
0.38
0.35
0.35
0.35
0.35
0.35
0.35
0.43
0.20
0.20
0.20
0.12
0.12
0.08
0.08
0.08
0.19
0.19
0.08
0.08
0.08
0.19
0.19
0.08
0.08
0.08
0.08
0.08
0.08
0.19
0.19
0.08
0.08
0.08
0.08
0.17
0.17
0.17
0.17
0.17
0.17
0.17
0.19
0.19
0.17
0.19
0.17
0.08
0.08
0.17
0.08
0.08
0.08
0.19
0.17
0.08
0.08
0.08
0.06
0.06
0.06
0.06
0.06
0.06
0.06
0.06
0.06
0.06
0.06
0.06
0.06
0.06
0.06
0.06
0.06
0.00
0.00
0.06
0.08
0.08
0.17
0.52
0.74
0.77
0.78
0.74
0.77
0.70
0.52
0.08
0.08
0.38
0.51
0.51
0.51
0.51
0.35
0.35
0.35
0.35
0.43
0.38
0.20
0.20
0.20
0.20
0.20
0.20
0.12
0.12
0.20
0.20
0.20
0.20
0.20
0.20
0.38
0.43
0.43
0.38
0.20
0.20
0.12
0.12
0.12
0.08
0.08
0.19
0.17
0.08
0.08
0.08
0.08
0.08
0.08
0.06
0.06
0.00
0.00
0.00
0.00
0.00
0.00
0.00
0.00
0.00
0.12
0.12
0.21
0.40
0.40
0.40
0.36
0.36
0.36
0.36
0.36
0.36
0.36
0.36
0.36
0.36
0.36
0.36
0.39
0.39
0.39
0.39
0.39
0.39
0.40
0.21
0.21
0.70
0.74
0.75
0.94
0.94
0.75
0.77
0.70
0.40
0.00
0.00
0.08
0.08
0.08
0.08
0.08
0.08
0.08
0.08
0.06
0.06
0.06
0.06
0.00
0.00
0.00
0.00
0.00
0.12
0.12
0.12
0.00
0.00
0.00
0.00
0.00
0.00
0.00
0.00
0.00
0.00
0.00
0.00
0.00
0.00
0.00
0.00
0.00
0.00
0.00
0.00
0.00
0.00
0.00
0.00
0.00
0.00
0.00
0.00
0.00
0.06
0.06
0.08
0.08
0.06
0.00
0.00
0.00
0.12
0.12
0.12
0.00
0.00
0.00
0.00
0.00
0.00
0.00
0.00
0.00
0.00
0.00
0.00
0.00
0.00
0.00
0.00
0.00
0.08
0.19
0.06
0.70
0.76
0.75
0.82
0.75
0.77
0.69
0.39
0.08
0.12
0.35
0.35
0.51
0.51
0.51
0.51
0.51
0.51
0.35
0.35
0.35
0.43
0.43
0.20
0.20
0.20
0.12
0.12
0.12
0.12
0.12
0.12
0.12
0.12
0.12
0.12
0.20
0.20
0.20
0.20
0.20
0.12
0.12
0.12
0.12
0.12
0.12
0.12
0.12
0.12
0.12
0.12
0.12
0.12
0.12
0.12
0.08
0.08
0.08
0.08
0.08
0.08
0.12
0.12
0.12
0.08
0.17
0.08
0.08
0.08
0.08
0.08
0.08
0.08
0.06
0.06
0.06
0.08
0.06
0.06
0.06
0.06
0.06
0.06
0.06
0.06
0.06
0.06
0.06
0.08
0.12
0.38
0.21
0.70
0.78
0.75
0.75
0.80
0.72
0.39
0.08
0.12
0.35
0.51
0.65
0.65
0.51
0.51
0.51
0.51
0.51
0.35
0.35
0.35
0.38
0.20
0.20
0.20
0.12
0.12
0.12
0.12
0.12
0.12
0.12
0.20
0.20
0.20
0.20
0.20
0.20
0.20
0.20
0.20
0.20
0.20
0.20
0.20
0.20
0.12
0.12
0.12
0.12
0.12
0.12
0.12
0.12
0.08
0.08
0.08
0.08
0.08
0.19
0.19
0.08
0.17
0.08
0.08
0.08
0.06
0.06
0.00
0.00
0.00
0.00
0.00
0.00
0.00
0.00
0.00
0.00
0.00
0.00
0.00
0.00
0.00
0.00
0.00
0.00
0.00
0.00
0.00
0.08
0.19
0.40
0.71
0.79
0.75
0.80
0.78
0.74
0.59
0.00
0.19
0.38
0.43
0.35
0.35
0.35
0.35
0.35
0.43
0.38
0.20
0.20
0.12
0.12
0.12
0.08
0.08
0.08
0.19
0.08
0.08
0.08
0.17
0.17
0.17
0.19
0.08
0.08
0.08
0.08
0.08
0.08
0.17
0.08
0.08
0.08
0.08
0.08
0.08
0.08
0.08
0.08
0.08
0.08
0.08
0.08
0.08
0.06
0.06
0.06
0.06
0.06
0.06
0.06
0.06
0.06
0.06
0.00
0.00
0.00
0.12
0.21
0.21
0.21
0.21
0.21
0.21
0.21
0.21
0.21
0.21
0.21
0.21
0.21
0.21
0.21
0.21
0.21
0.21
0.21
0.00
0.08
0.08
0.57
0.72
0.77
0.82
0.82
0.78
0.74
0.66
0.12
0.17
0.12
0.38
0.35
0.35
0.35
0.35
0.35
0.35
0.43
0.38
0.20
0.20
0.12
0.12
0.12
0.08
0.08
0.08
0.08
0.08
0.12
0.12
0.12
0.12
0.12
0.12
0.12
0.20
0.20
0.20
0.12
0.12
0.08
0.17
0.08
0.08
0.08
0.08
0.08
0.08
0.08
0.08
0.06
0.06
0.06
0.00
0.00
0.00
0.00
0.00
0.12
0.12
0.12
0.12
0.12
0.12
0.21
0.31
0.36
0.36
0.36
0.40
0.40
0.36
0.36
0.36
0.36
0.36
0.36
0.39
0.39
0.39
0.39
0.39
0.39
0.39
0.39
0.39
0.39
0.40
0.12
0.39
0.70
0.77
0.75
0.94
0.94
0.74
0.77
0.70
0.39
0.12
0.00
0.06
0.06
0.06
0.08
0.06
0.06
0.06
0.06
0.06
0.06
0.00
0.00
0.00
0.00
0.12
0.12
0.12
0.12
0.12
0.12
0.12
0.12
0.12
0.12
0.12
0.00
0.00
0.00
0.00
0.00
0.00
0.00
0.00
0.00
0.00
0.00
0.00
0.00
0.00
0.00
0.00
0.00
0.00
0.00
0.00
0.00
0.00
0.00
0.00
0.00
0.00
0.06
0.06
0.00
0.00
0.00
0.12
0.12
0.12
0.12
0.12
0.12
0.12
0.12
0.12
0.12
0.12
0.12
0.12
0.12
0.12
0.12
0.12
0.00
0.00
0.00
0.00
0.06
0.17
0.08
0.59
0.75
0.76
0.82
0.80
0.79
0.72
0.57
0.06
0.19
0.20
0.35
0.35
0.35
0.35
0.35
0.35
0.35
0.35
0.43
0.20
0.20
0.20
0.20
0.20
0.12
0.12
0.12
0.08
0.08
0.08
0.12
0.12
0.12
0.12
0.12
0.12
0.12
0.12
0.12
0.12
0.12
0.12
0.12
0.08
0.08
0.08
0.12
0.08
0.08
0.08
0.08
0.08
0.08
0.08
0.08
0.08
0.08
0.08
0.08
0.08
0.08
0.08
0.08
0.08
0.08
0.17
0.08
0.08
0.08
0.06
0.06
0.08
0.06
0.06
0.06
0.06
0.06
0.06
0.06
0.06
0.06
0.06
0.06
0.06
0.06
0.06
0.06
0.06
0.08
0.12
0.17
0.57
0.75
0.76
0.75
0.75
0.78
0.71
0.39
0.08
0.20
0.51
0.65
0.65
0.65
0.65
0.51
0.51
0.51
0.51
0.35
0.35
0.43
0.38
0.20
0.20
0.12
0.12
0.12
0.12
0.12
0.12
0.12
0.12
0.20
0.20
0.20
0.20
0.20
0.20
0.20
0.20
0.20
0.20
0.12
0.12
0.12
0.12
0.12
0.08
0.08
0.08
0.08
0.08
0.08
0.08
0.08
0.08
0.08
0.08
0.08
0.17
0.19
0.08
0.08
0.08
0.08
0.17
0.08
0.08
0.08
0.06
0.00
0.00
0.06
0.06
0.06
0.06
0.06
0.06
0.06
0.00
0.00
0.00
0.00
0.00
0.00
0.00
0.00
0.00
0.00
0.08
0.19
0.21
0.71
0.78
0.74
0.82
0.75
0.75
0.67
0.00
0.17
0.12
0.43
0.35
0.35
0.35
0.35
0.43
0.43
0.43
0.38
0.20
0.20
0.12
0.12
0.08
0.17
0.17
0.19
0.08
0.08
0.08
0.08
0.17
0.17
0.19
0.08
0.08
0.08
0.08
0.08
0.08
0.08
0.08
0.19
0.08
0.08
0.08
0.08
0.08
0.08
0.08
0.08
0.19
0.12
0.51
0.78
0.78
0.83
0.89
0.93
0.98
0.98
0.98
1.00
1.00
0.99
0.91
0.08
0.66
0.71
0.71
0.71
0.71
0.71
0.72
0.72
0.71
0.71
0.72
0.71
0.71
0.71
0.71
0.70
0.71
0.69
0.71
0.71
0.70
0.68
0.68
0.69
0.67
0.66
0.62
0.59
0.52
0.36
0.40
0.21
0.21
0.00
0.00
0.00
0.00
0.06
0.08
0.08
0.08
0.08
0.08
0.08
0.08
0.08
0.08
0.08
0.08
0.08
0.08
0.08
0.08
0.08
0.08
0.08
0.08
0.08
0.08
0.06
0.06
0.08
0.08
0.08
0.08
0.08
0.08
0.08
0.08
0.08
0.08
0.08
0.08
0.08
0.06
0.06
0.06
0.06
0.06
0.06
0.06
0.06
0.06
0.06
0.06
0.06
0.06
0.06
0.06
0.00
0.00
0.00
0.12
0.12
0.12
0.12
0.12
0.21
0.21
0.21
0.31
0.31
0.31
0.31
0.39
0.39
0.31
0.39
0.31
0.31
0.39
0.31
0.31
0.31
0.00
0.00
0.67
0.74
0.75
0.91
0.91
0.75
0.75
0.70
0.39
0.00
0.06
0.08
0.08
0.08
0.17
0.08
0.08
0.08
0.08
0.08
0.06
0.06
0.00
0.00
0.00
0.00
0.12
0.00
0.00
0.12
0.12
0.00
0.00
0.00
0.00
0.00
0.06
0.06
0.06
0.06
0.06
0.08
0.06
0.06
0.08
0.08
0.06
0.06
0.06
0.06
0.06
0.06
0.06
0.06
0.00
0.00
0.00
0.06
0.06
0.06
0.06
0.06
0.08
0.06
0.06
0.06
0.00
0.00
0.12
0.12
0.00
0.00
0.12
0.12
0.12
0.12
0.12
0.12
0.12
0.12
0.12
0.21
0.12
0.12
0.12
0.12
0.12
0.12
0.00
0.08
0.08
0.36
0.71
0.78
0.80
0.82
0.76
0.75
0.70
0.21
0.08
0.08
0.20
0.38
0.38
0.20
0.20
0.20
0.20
0.20
0.12
0.12
0.08
0.08
0.08
0.19
0.17
0.17
0.08
0.08
0.08
0.08
0.08
0.08
0.08
0.17
0.19
0.19
0.08
0.08
0.08
0.19
0.19
0.17
0.08
0.08
0.08
0.08
0.08
0.08
0.08
0.08
0.08
0.08
0.08
0.08
0.08
0.08
0.08
0.08
0.08
0.08
0.08
0.08
0.08
0.08
0.08
0.06
0.06
0.00
0.00
0.00
0.00
0.00
0.00
0.00
0.00
0.00
0.00
0.00
0.00
0.00
0.00
0.00
0.00
0.00
0.00
0.00
0.00
0.00
0.00
0.08
0.19
0.06
0.67
0.74
0.75
0.80
0.74
0.78
0.71
0.40
0.08
0.12
0.38
0.35
0.51
0.51
0.51
0.35
0.35
0.35
0.35
0.35
0.43
0.38
0.20
0.20
0.20
0.20
0.12
0.12
0.12
0.12
0.12
0.12
0.12
0.12
0.12
0.20
0.20
0.20
0.20
0.12
0.12
0.12
0.12
0.12
0.12
0.08
0.08
0.08
0.08
0.08
0.08
0.08
0.08
0.08
0.08
0.08
0.08
0.19
0.08
0.08
0.17
0.17
0.19
0.08
0.19
0.17
0.08
0.06
0.06
0.06
0.06
0.06
0.00
0.00
0.00
0.00
0.00
0.00
0.00
0.00
0.00
0.00
0.00
0.00
0.00
0.00
0.00
0.00
0.00
0.08
0.19
0.08
0.62
0.75
0.75
0.78
0.74
0.78
0.71
0.36
0.08
0.12
0.43
0.51
0.51
0.51
0.51
0.51
0.35
0.35
0.35
0.43
0.38
0.20
0.12
0.12
0.08
0.08
0.08
0.12
0.08
0.08
0.08
0.12
0.12
0.12
0.20
0.20
0.20
0.20
0.20
0.20
0.20
0.20
0.12
0.12
0.12
0.12
0.08
0.19
0.17
0.17
0.17
0.08
0.08
0.08
0.08
0.08
0.08
0.08
0.08
0.08
0.08
0.08
0.08
0.17
0.08
0.08
0.06
0.00
0.00
0.00
0.00
0.00
0.00
0.00
0.00
0.00
0.00
0.00
0.00
0.00
0.00
0.00
0.00
0.00
0.00
0.00
0.00
0.00
0.00
0.06
0.17
0.00
0.70
0.76
0.76
0.78
0.74
0.77
0.69
0.39
0.08
0.12
0.38
0.43
0.35
0.35
0.35
0.35
0.35
0.20
0.20
0.20
0.20
0.12
0.08
0.08
0.08
0.19
0.08
0.08
0.08
0.08
0.08
0.08
0.17
0.17
0.08
0.19
0.17
0.08
0.08
0.08
0.08
0.08
0.08
0.08
0.08
0.08
0.08
0.06
0.06
0.06
0.06
0.06
0.06
0.06
0.06
0.06
0.00
0.00
0.00
0.00
0.00
0.00
0.06
0.06
0.00
0.00
0.00
0.12
0.12
0.21
0.21
0.21
0.21
0.21
0.21
0.21
0.21
0.21
0.21
0.21
0.21
0.21
0.21
0.21
0.21
0.21
0.21
0.21
0.12
0.00
0.08
0.39
0.71
0.80
0.86
0.90
0.75
0.76
0.68
0.31
0.06
0.08
0.12
0.20
0.20
0.20
0.20
0.20
0.20
0.20
0.12
0.12
0.08
0.08
0.08
0.08
0.08
0.08
0.19
0.19
0.19
0.19
0.08
0.19
0.19
0.08
0.08
0.12
0.12
0.12
0.08
0.08
0.08
0.19
0.17
0.08
0.08
0.08
0.08
0.08
0.08
0.08
0.08
0.08
0.06
0.06
0.06
0.06
0.00
0.00
0.00
0.12
0.00
0.00
0.12
0.00
0.00
0.12
0.21
0.39
0.40
0.36
0.36
0.36
0.40
0.39
0.39
0.39
0.39
0.39
0.39
0.39
0.39
0.52
0.52
0.52
0.52
0.52
0.52
0.52
0.39
0.40
0.12
0.59
0.73
0.75
0.94
0.95
0.87
0.80
0.70
0.59
0.21
0.00
0.06
0.08
0.08
0.08
0.08
0.08
0.08
0.08
0.08
0.08
0.08
0.06
0.06
0.06
0.06
0.00
0.00
0.00
0.00
0.00
0.00
0.00
0.00
0.00
0.00
0.06
0.06
0.06
0.06
0.06
0.06
0.06
0.06
0.06
0.06
0.06
0.06
0.06
0.06
0.06
0.06
0.06
0.06
0.06
0.06
0.06
0.06
0.06
0.06
0.06
0.08
0.08
0.08
0.08
0.06
0.00
0.00
0.00
0.00
0.00
0.00
0.00
0.00
0.00
0.00
0.00
0.00
0.00
0.00
0.00
0.00
0.00
0.00
0.00
0.00
0.00
0.00
0.00
0.17
0.17
0.36
0.72
0.78
0.80
0.82
0.77
0.75
0.62
0.00
0.19
0.38
0.35
0.51
0.51
0.51
0.35
0.35
0.35
0.35
0.35
0.35
0.35
0.43
0.38
0.20
0.20
0.12
0.12
0.12
0.12
0.12
0.12
0.12
0.20
0.20
0.20
0.20
0.20
0.20
0.20
0.20
0.20
0.12
0.12
0.12
0.12
0.08
0.08
0.08
0.08
0.08
0.19
0.19
0.08
0.08
0.19
0.19
0.08
0.19
0.17
0.08
0.08
0.19
0.08
0.08
0.19
0.17
0.08
0.06
0.06
0.06
0.06
0.06
0.00
0.00
0.00
0.00
0.06
0.06
0.00
0.00
0.00
0.00
0.00
0.00
0.00
0.00
0.00
0.00
0.00
0.19
0.12
0.12
0.71
0.78
0.75
0.74
0.78
0.75
0.66
0.00
0.08
0.43
0.51
0.51
0.65
0.65
0.65
0.51
0.51
0.51
0.35
0.43
0.38
0.38
0.20
0.12
0.12
0.12
0.08
0.08
0.08
0.08
0.08
0.08
0.08
0.08
0.08
0.12
0.12
0.08
0.08
0.12
0.08
0.08
0.08
0.08
0.19
0.19
0.19
0.17
0.17
0.17
0.17
0.19
0.08
0.08
0.08
0.08
0.08
0.08
0.08
0.08
0.17
0.19
0.17
0.08
0.08
0.06
0.00
0.00
0.00
0.00
0.00
0.00
0.00
0.00
0.00
0.00
0.00
0.00
0.00
0.00
0.00
0.00
0.00
0.00
0.00
0.00
0.00
0.00
0.08
0.17
0.31
0.71
0.77
0.75
0.80
0.75
0.75
0.69
0.21
0.08
0.12
0.43
0.43
0.35
0.43
0.38
0.38
0.20
0.20
0.20
0.12
0.12
0.12
0.08
0.08
0.17
0.17
0.08
0.08
0.08
0.08
0.08
0.17
0.17
0.17
0.17
0.17
0.19
0.17
0.17
0.08
0.08
0.08
0.08
0.08
0.08
0.08
0.08
0.08
0.08
0.08
0.08
0.08
0.08
0.08
0.08
0.08
0.06
0.06
0.06
0.06
0.06
0.08
0.06
0.06
0.06
0.00
0.00
0.00
0.12
0.00
0.00
0.00
0.00
0.00
0.00
0.00
0.00
0.00
0.00
0.00
0.00
0.00
0.00
0.00
0.00
0.00
0.00
0.00
0.00
0.08
0.08
0.39
0.71
0.79
0.78
0.80
0.78
0.74
0.62
0.00
0.17
0.20
0.35
0.35
0.35
0.35
0.35
0.35
0.35
0.35
0.35
0.35
0.38
0.38
0.20
0.12
0.12
0.08
0.19
0.17
0.17
0.08
0.08
0.08
0.08
0.08
0.08
0.08
0.08
0.08
0.08
0.08
0.08
0.08
0.06
0.06
0.00
0.00
0.00
0.00
0.00
0.00
0.00
0.00
0.00
0.12
0.12
0.12
0.12
0.21
0.21
0.21
0.12
0.12
0.12
0.12
0.21
0.31
0.40
0.36
0.36
0.36
0.36
0.39
0.39
0.39
0.39
0.39
0.39
0.52
0.52
0.52
0.39
0.39
0.39
0.39
0.39
0.39
0.52
0.39
0.40
0.21
0.40
0.69
0.78
0.86
0.94
0.95
0.76
0.75
0.70
0.21
0.00
0.00
0.08
0.08
0.08
0.08
0.08
0.08
0.08
0.08
0.08
0.08
0.08
0.08
0.06
0.06
0.00
0.00
0.00
0.00
0.00
0.00
0.06
0.06
0.06
0.06
0.08
0.08
0.08
0.08
0.08
0.08
0.08
0.08
0.08
0.06
0.06
0.06
0.08
0.08
0.06
0.06
0.08
0.08
0.08
0.08
0.08
0.08
0.08
0.08
0.08
0.08
0.08
0.08
0.08
0.08
0.06
0.00
0.00
0.00
0.00
0.00
0.00
0.00
0.00
0.00
0.00
0.00
0.00
0.00
0.00
0.00
0.00
0.00
0.00
0.00
0.00
0.00
0.00
0.06
0.08
0.17
0.57
0.75
0.75
0.82
0.82
0.80
0.71
0.39
0.06
0.12
0.43
0.35
0.51
0.51
0.51
0.51
0.51
0.51
0.51
0.51
0.35
0.35
0.35
0.43
0.20
0.20
0.20
0.12
0.12
0.12
0.12
0.12
0.12
0.20
0.20
0.20
0.20
0.20
0.20
0.20
0.20
0.20
0.12
0.12
0.12
0.12
0.12
0.12
0.12
0.12
0.08
0.08
0.08
0.08
0.08
0.08
0.19
0.19
0.17
0.17
0.17
0.19
0.08
0.08
0.08
0.08
0.17
0.08
0.08
0.06
0.06
0.06
0.06
0.06
0.06
0.06
0.06
0.00
0.00
0.00
0.00
0.00
0.00
0.06
0.06
0.06
0.06
0.06
0.06
0.06
0.17
0.38
0.00
0.70
0.77
0.76
0.74
0.78
0.75
0.66
0.00
0.08
0.43
0.51
0.65
0.65
0.65
0.51
0.51
0.51
0.51
0.35
0.43
0.38
0.20
0.20
0.12
0.12
0.12
0.08
0.08
0.08
0.08
0.08
0.08
0.08
0.19
0.19
0.12
0.12
0.12
0.12
0.08
0.08
0.08
0.08
0.08
0.08
0.08
0.19
0.19
0.19
0.17
0.17
0.17
0.17
0.08
0.08
0.08
0.08
0.08
0.08
0.08
0.08
0.08
0.08
0.08
0.08
0.06
0.00
0.00
0.00
0.00
0.00
0.00
0.00
0.12
0.00
0.00
0.00
0.00
0.12
0.00
0.00
0.00
0.00
0.00
0.12
0.00
0.00
0.00
0.00
0.08
0.08
0.40
0.70
0.80
0.74
0.80
0.76
0.75
0.66
0.12
0.17
0.20
0.43
0.35
0.35
0.35
0.43
0.38
0.20
0.20
0.12
0.12
0.08
0.08
0.19
0.19
0.19
0.17
0.08
0.08
0.08
0.08
0.08
0.08
0.08
0.08
0.17
0.17
0.08
0.19
0.19
0.17
0.17
0.08
0.08
0.08
0.08
0.08
0.08
0.08
0.08
0.08
0.08
0.08
0.06
0.00
0.00
0.06
0.06
0.06
0.06
0.06
0.06
0.08
0.08
0.08
0.06
0.00
0.00
0.00
0.12
0.00
0.00
0.00
0.00
0.12
0.12
0.12
0.12
0.12
0.12
0.12
0.12
0.12
0.12
0.12
0.12
0.12
0.00
0.00
0.00
0.08
0.17
0.31
0.71
0.77
0.75
0.74
0.78
0.75
0.67
0.00
0.19
0.20
0.43
0.35
0.35
0.35
0.35
0.35
0.43
0.20
0.20
0.12
0.12
0.08
0.08
0.19
0.17
0.08
0.08
0.08
0.06
0.00
0.00
0.00
0.00
0.00
0.00
0.00
0.00
0.00
0.00
0.00
0.00
0.00
0.00
0.00
0.12
0.12
0.12
0.12
0.21
0.21
0.21
0.21
0.21
0.21
0.21
0.31
0.31
0.31
0.31
0.31
0.21
0.21
0.21
0.21
0.31
0.39
0.36
0.39
0.39
0.39
0.39
0.39
0.39
0.39
0.39
0.39
0.39
0.39
0.52
0.52
0.52
0.52
0.39
0.39
0.39
0.39
0.39
0.39
0.40
0.21
0.40
0.70
0.78
0.78
0.94
0.94
0.75
0.74
0.68
0.31
0.00
0.06
0.08
0.19
0.17
0.17
0.17
0.17
0.17
0.17
0.17
0.08
0.08
0.08
0.08
0.08
0.08
0.06
0.06
0.06
0.06
0.06
0.06
0.06
0.08
0.08
0.08
0.08
0.08
0.08
0.08
0.08
0.08
0.08
0.08
0.08
0.08
0.08
0.08
0.08
0.08
0.08
0.08
0.08
0.08
0.08
0.08
0.08
0.08
0.08
0.08
0.08
0.08
0.08
0.08
0.17
0.08
0.08
0.00
0.00
0.00
0.00
0.00
0.00
0.00
0.00
0.00
0.00
0.00
0.00
0.00
0.00
0.00
0.00
0.00
0.00
0.00
0.00
0.00
0.00
0.08
0.08
0.08
0.66
0.74
0.76
0.82
0.75
0.78
0.69
0.39
0.08
0.20
0.35
0.51
0.51
0.51
0.51
0.51
0.51
0.51
0.51
0.51
0.35
0.35
0.35
0.43
0.38
0.20
0.20
0.12
0.12
0.12
0.12
0.12
0.12
0.12
0.12
0.20
0.20
0.20
0.20
0.20
0.12
0.12
0.12
0.12
0.12
0.08
0.08
0.08
0.08
0.08
0.08
0.08
0.08
0.08
0.08
0.08
0.08
0.19
0.19
0.17
0.17
0.17
0.17
0.19
0.08
0.08
0.17
0.08
0.08
0.08
0.06
0.06
0.06
0.08
0.06
0.06
0.06
0.00
0.00
0.06
0.06
0.06
0.06
0.06
0.06
0.00
0.00
0.06
0.06
0.06
0.06
0.19
0.20
0.31
0.71
0.80
0.74
0.75
0.79
0.72
0.52
0.06
0.12
0.43
0.35
0.51
0.65
0.51
0.51
0.51
0.51
0.35
0.35
0.35
0.43
0.38
0.20
0.12
0.12
0.12
0.12
0.12
0.12
0.12
0.08
0.08
0.08
0.12
0.12
0.12
0.12
0.12
0.12
0.08
0.08
0.12
0.08
0.08
0.08
0.08
0.19
0.19
0.19
0.19
0.08
0.08
0.17
0.17
0.17
0.17
0.17
0.08
0.08
0.08
0.17
0.19
0.19
0.08
0.08
0.00
0.00
0.00
0.00
0.00
0.00
0.00
0.00
0.00
0.00
0.00
0.00
0.00
0.00
0.00
0.00
0.00
0.00
0.00
0.00
0.00
0.00
0.00
0.06
0.17
0.08
0.66
0.75
0.75
0.82
0.78
0.78
0.70
0.36
0.08
0.08
0.20
0.43
0.35
0.35
0.35
0.35
0.38
0.38
0.20
0.20
0.12
0.12
0.08
0.08
0.19
0.17
0.17
0.08
0.08
0.08
0.08
0.08
0.08
0.08
0.17
0.17
0.19
0.17
0.17
0.17
0.08
0.08
0.08
0.08
0.08
0.08
0.08
0.08
0.08
0.08
0.08
0.08
0.08
0.08
0.06
0.06
0.06
0.06
0.00
0.00
0.00
0.00
0.00
0.06
0.06
0.00
0.00
0.00
0.00
0.12
0.21
0.21
0.21
0.12
0.12
0.12
0.00
0.00
0.00
0.00
0.00
0.00
0.00
0.00
0.00
0.00
0.00
0.00
0.00
0.00
0.08
0.08
0.00
0.69
0.78
0.76
0.82
0.75
0.78
0.70
0.39
0.08
0.08
0.38
0.35
0.35
0.51
0.51
0.51
0.51
0.35
0.35
0.43
0.38
0.20
0.12
0.08
0.08
0.08
0.19
0.08
0.08
0.08
0.08
0.08
0.08
0.08
0.08
0.08
0.08
0.08
0.08
0.06
0.06
0.00
0.00
0.00
0.00
0.00
0.00
0.00
0.00
0.00
0.00
0.12
0.00
0.00
0.12
0.12
0.12
0.21
0.21
0.21
0.21
0.21
0.12
0.12
0.21
0.21
0.31
0.36
0.39
0.39
0.39
0.39
0.39
0.39
0.39
0.39
0.39
0.39
0.52
0.52
0.52
0.52
0.52
0.52
0.52
0.52
0.52
0.39
0.39
0.40
0.21
0.36
0.69
0.78
0.82
0.95
0.94
0.75
0.75
0.69
0.39
0.00
0.00
0.08
0.08
0.08
0.08
0.08
0.08
0.08
0.08
0.08
0.08
0.06
0.06
0.06
0.00
0.00
0.00
0.00
0.00
0.00
0.00
0.00
0.00
0.00
0.06
0.06
0.06
0.06
0.06
0.08
0.08
0.06
0.06
0.06
0.06
0.06
0.06
0.06
0.06
0.06
0.06
0.08
0.08
0.08
0.08
0.08
0.08
0.08
0.06
0.06
0.06
0.08
0.08
0.08
0.08
0.08
0.06
0.00
0.00
0.00
0.00
0.00
0.00
0.00
0.00
0.00
0.00
0.00
0.00
0.00
0.00
0.00
0.00
0.00
0.00
0.00
0.00
0.00
0.00
0.00
0.17
0.19
0.39
0.70
0.80
0.78
0.82
0.75
0.75
0.70
0.00
0.19
0.20
0.51
0.51
0.51
0.51
0.51
0.51
0.51
0.51
0.35
0.35
0.35
0.35
0.43
0.38
0.20
0.20
0.20
0.20
0.20
0.20
0.20
0.12
0.12
0.20
0.20
0.20
0.20
0.20
0.20
0.20
0.20
0.20
0.12
0.12
0.12
0.12
0.12
0.08
0.08
0.08
0.08
0.08
0.08
0.08
0.08
0.08
0.19
0.17
0.17
0.08
0.08
0.17
0.17
0.19
0.08
0.19
0.08
0.08
0.08
0.06
0.06
0.06
0.06
0.06
0.06
0.06
0.06
0.06
0.06
0.06
0.00
0.00
0.06
0.06
0.06
0.00
0.00
0.06
0.06
0.06
0.08
0.12
0.19
0.57
0.74
0.76
0.75
0.75
0.77
0.71
0.39
0.17
0.20
0.35
0.51
0.51
0.51
0.51
0.51
0.51
0.51
0.35
0.35
0.35
0.38
0.20
0.20
0.12
0.12
0.12
0.12
0.12
0.12
0.12
0.12
0.12
0.12
0.12
0.12
0.12
0.12
0.12
0.12
0.12
0.12
0.12
0.12
0.08
0.08
0.08
0.08
0.08
0.08
0.08
0.08
0.08
0.08
0.08
0.08
0.17
0.17
0.17
0.08
0.08
0.17
0.19
0.19
0.19
0.17
0.08
0.06
0.06
0.00
0.00
0.00
0.06
0.00
0.00
0.00
0.00
0.00
0.00
0.00
0.00
0.00
0.00
0.00
0.00
0.00
0.00
0.00
0.00
0.06
0.17
0.08
0.62
0.74
0.75
0.78
0.78
0.80
0.70
0.36
0.08
0.08
0.38
0.43
0.35
0.35
0.38
0.43
0.43
0.43
0.38
0.20
0.20
0.12
0.08
0.08
0.08
0.08
0.19
0.08
0.08
0.08
0.08
0.08
0.08
0.08
0.17
0.19
0.08
0.08
0.08
0.08
0.19
0.17
0.08
0.08
0.08
0.08
0.06
0.06
0.06
0.06
0.06
0.06
0.06
0.06
0.06
0.06
0.06
0.06
0.06
0.00
0.00
0.06
0.06
0.06
0.06
0.06
0.00
0.00
0.00
0.12
0.12
0.21
0.12
0.12
0.12
0.21
0.12
0.12
0.21
0.21
0.12
0.00
0.00
0.00
0.00
0.00
0.00
0.00
0.00
0.00
0.06
0.08
0.00
0.70
0.77
0.75
0.82
0.75
0.75
0.69
0.12
0.19
0.38
0.35
0.51
0.51
0.51
0.35
0.35
0.38
0.38
0.38
0.20
0.20
0.12
0.12
0.08
0.08
0.19
0.17
0.08
0.08
0.08
0.06
0.06
0.06
0.00
0.00
0.06
0.06
0.06
0.00
0.00
0.00
0.00
0.00
0.00
0.00
0.00
0.00
0.00
0.00
0.00
0.00
0.00
0.12
0.12
0.21
0.21
0.21
0.31
0.31
0.31
0.31
0.31
0.21
0.21
0.31
0.31
0.40
0.39
0.39
0.39
0.39
0.39
0.39
0.39
0.39
0.52
0.39
0.39
0.39
0.52
0.52
0.52
0.52
0.39
0.39
0.39
0.36
0.36
0.39
0.39
0.00
0.31
0.70
0.78
0.74
0.94
0.91
0.75
0.75
0.67
0.21
0.06
0.08
0.19
0.08
0.08
0.08
0.08
0.08
0.08
0.08
0.08
0.08
0.19
0.08
0.08
0.08
0.08
0.08
0.08
0.08
0.08
0.08
0.08
0.08
0.08
0.08
0.08
0.08
0.08
0.08
0.08
0.08
0.08
0.08
0.08
0.08
0.08
0.08
0.08
0.08
0.08
0.08
0.08
0.08
0.08
0.08
0.08
0.08
0.08
0.08
0.08
0.08
0.17
0.17
0.08
0.08
0.08
0.06
0.00
0.00
0.00
0.00
0.00
0.00
0.00
0.00
0.00
0.00
0.00
0.00
0.00
0.00
0.00
0.00
0.00
0.00
0.00
0.00
0.00
0.00
0.08
0.08
0.00
0.68
0.78
0.76
0.80
0.76
0.77
0.70
0.31
0.17
0.20
0.35
0.51
0.51
0.51
0.51
0.51
0.51
0.51
0.35
0.35
0.35
0.43
0.20
0.20
0.20
0.20
0.20
0.12
0.12
0.12
0.12
0.12
0.12
0.12
0.20
0.20
0.20
0.20
0.20
0.12
0.12
0.12
0.12
0.12
0.12
0.12
0.08
0.08
0.08
0.08
0.08
0.08
0.08
0.19
0.19
0.08
0.19
0.17
0.19
0.08
0.08
0.08
0.17
0.19
0.19
0.17
0.08
0.06
0.00
0.00
0.00
0.06
0.06
0.06
0.00
0.00
0.06
0.06
0.06
0.06
0.00
0.00
0.00
0.00
0.00
0.06
0.00
0.00
0.00
0.06
0.19
0.12
0.00
0.70
0.78
0.76
0.74
0.76
0.75
0.70
0.00
0.17
0.20
0.51
0.65
0.51
0.51
0.51
0.51
0.51
0.35
0.35
0.35
0.43
0.20
0.20
0.12
0.12
0.08
0.08
0.08
0.08
0.08
0.08
0.08
0.08
0.08
0.08
0.08
0.08
0.12
0.12
0.08
0.08
0.08
0.08
0.08
0.08
0.08
0.08
0.08
0.19
0.19
0.19
0.08
0.08
0.08
0.08
0.08
0.08
0.08
0.08
0.08
0.08
0.08
0.08
0.08
0.08
0.06
0.00
0.00
0.00
0.00
0.00
0.00
0.00
0.00
0.00
0.00
0.00
0.00
0.12
0.12
0.12
0.00
0.00
0.00
0.00
0.12
0.00
0.00
0.00
0.08
0.06
0.66
0.75
0.75
0.78
0.80
0.80
0.71
0.39
0.06
0.08
0.20
0.43
0.35
0.35
0.43
0.43
0.38
0.20
0.12
0.12
0.08
0.08
0.08
0.08
0.17
0.08
0.08
0.08
0.08
0.08
0.08
0.08
0.08
0.08
0.08
0.08
0.17
0.17
0.17
0.17
0.17
0.17
0.17
0.08
0.08
0.08
0.08
0.08
0.06
0.06
0.06
0.08
0.06
0.06
0.08
0.08
0.08
0.08
0.06
0.06
0.06
0.08
0.08
0.08
0.08
0.08
0.00
0.00
0.00
0.00
0.00
0.00
0.00
0.00
0.00
0.12
0.12
0.12
0.00
0.00
0.12
0.00
0.00
0.00
0.00
0.00
0.00
0.00
0.00
0.00
0.08
0.19
0.31
0.71
0.80
0.75
0.80
0.75
0.75
0.70
0.00
0.08
0.08
0.20
0.43
0.38
0.20
0.20
0.20
0.12
0.12
0.12
0.08
0.19
0.08
0.08
0.06
0.06
0.00
0.00
0.00
0.00
0.00
0.00
0.00
0.12
0.12
0.12
0.00
0.00
0.00
0.00
0.00
0.12
0.12
0.12
0.12
0.12
0.12
0.21
0.21
0.21
0.21
0.21
0.21
0.21
0.21
0.21
0.21
0.21
0.21
0.21
0.12
0.12
0.00
0.00
0.00
0.12
0.21
0.31
0.31
0.31
0.31
0.31
0.31
0.31
0.31
0.31
0.31
0.31
0.31
0.31
0.31
0.31
0.31
0.31
0.21
0.21
0.21
0.21
0.12
0.06
0.06
0.59
0.75
0.75
0.87
0.91
0.75
0.75
0.70
0.12
0.08
0.19
0.12
0.20
0.20
0.20
0.20
0.12
0.12
0.12
0.12
0.12
0.12
0.12
0.08
0.08
0.19
0.19
0.17
0.17
0.17
0.17
0.19
0.19
0.08
0.08
0.08
0.08
0.08
0.08
0.08
0.08
0.08
0.08
0.08
0.08
0.17
0.17
0.08
0.08
0.08
0.08
0.08
0.08
0.08
0.08
0.08
0.08
0.08
0.08
0.08
0.08
0.08
0.08
0.08
0.08
0.08
0.08
0.06
0.00
0.00
0.00
0.00
0.00
0.00
0.00
0.00
0.06
0.00
0.00
0.00
0.00
0.00
0.06
0.06
0.00
0.00
0.00
0.00
0.00
0.06
0.12
0.19
0.39
0.73
0.77
0.78
0.75
0.80
0.71
0.39
0.06
0.12
0.43
0.51
0.65
0.65
0.51
0.51
0.51
0.51
0.35
0.35
0.43
0.43
0.38
0.20
0.20
0.12
0.12
0.12
0.08
0.08
0.12
0.12
0.12
0.12
0.12
0.12
0.12
0.12
0.12
0.12
0.12
0.12
0.12
0.08
0.08
0.08
0.08
0.08
0.19
0.19
0.08
0.17
0.17
0.19
0.17
0.17
0.08
0.08
0.17
0.17
0.08
0.08
0.19
0.08
0.08
0.19
0.08
0.08
0.06
0.06
0.06
0.06
0.06
0.06
0.06
0.06
0.06
0.06
0.00
0.00
0.00
0.00
0.00
0.00
0.00
0.00
0.06
0.00
0.00
0.00
0.17
0.08
0.12
0.70
0.77
0.75
0.75
0.76
0.75
0.70
0.12
0.17
0.12
0.43
0.51
0.35
0.35
0.35
0.35
0.35
0.35
0.43
0.20
0.20
0.12
0.12
0.08
0.08
0.08
0.08
0.19
0.08
0.08
0.17
0.17
0.19
0.08
0.08
0.08
0.08
0.08
0.08
0.08
0.17
0.17
0.08
0.08
0.08
0.08
0.08
0.08
0.08
0.08
0.08
0.08
0.08
0.08
0.08
0.08
0.06
0.06
0.06
0.08
0.08
0.08
0.08
0.08
0.06
0.00
0.00
0.00
0.00
0.12
0.00
0.00
0.00
0.12
0.12
0.12
0.12
0.12
0.00
0.00
0.12
0.12
0.12
0.12
0.12
0.12
0.12
0.12
0.00
0.08
0.08
0.57
0.74
0.78
0.80
0.80
0.78
0.75
0.66
0.00
0.17
0.12
0.20
0.20
0.38
0.20
0.20
0.12
0.12
0.12
0.08
0.08
0.08
0.08
0.08
0.19
0.17
0.08
0.08
0.08
0.08
0.08
0.08
0.08
0.08
0.08
0.08
0.08
0.17
0.17
0.17
0.08
0.17
0.17
0.08
0.08
0.08
0.08
0.08
0.08
0.08
0.08
0.08
0.08
0.08
0.08
0.08
0.08
0.06
0.06
0.06
0.06
0.08
0.08
0.08
0.06
0.00
0.00
0.00
0.00
0.00
0.12
0.00
0.00
0.00
0.00
0.00
0.00
0.00
0.00
0.00
0.00
0.00
0.12
0.12
0.12
0.12
0.00
0.00
0.00
0.00
0.08
0.00
0.66
0.75
0.76
0.80
0.80
0.79
0.72
0.59
0.00
0.08
0.08
0.08
0.08
0.08
0.08
0.19
0.17
0.17
0.08
0.08
0.08
0.08
0.06
0.06
0.00
0.00
0.00
0.00
0.12
0.21
0.21
0.21
0.21
0.21
0.21
0.12
0.12
0.12
0.12
0.12
0.12
0.12
0.12
0.12
0.12
0.12
0.12
0.12
0.12
0.12
0.12
0.12
0.12
0.12
0.12
0.00
0.00
0.12
0.12
0.12
0.00
0.00
0.00
0.00
0.00
0.00
0.12
0.21
0.21
0.21
0.21
0.21
0.21
0.31
0.21
0.21
0.21
0.21
0.31
0.31
0.21
0.21
0.21
0.21
0.21
0.21
0.21
0.12
0.00
0.06
0.00
0.62
0.75
0.75
0.87
0.87
0.77
0.74
0.62
0.00
0.08
0.12
0.12
0.20
0.38
0.43
0.38
0.38
0.38
0.20
0.20
0.20
0.20
0.12
0.12
0.08
0.08
0.08
0.08
0.08
0.08
0.08
0.19
0.19
0.08
0.08
0.08
0.19
0.19
0.08
0.08
0.08
0.08
0.08
0.19
0.17
0.17
0.17
0.17
0.08
0.08
0.08
0.08
0.08
0.08
0.08
0.08
0.08
0.08
0.08
0.08
0.08
0.08
0.08
0.17
0.17
0.17
0.08
0.06
0.06
0.06
0.06
0.00
0.00
0.00
0.00
0.00
0.00
0.00
0.00
0.00
0.00
0.00
0.00
0.00
0.00
0.00
0.00
0.06
0.06
0.08
0.12
0.08
0.66
0.76
0.75
0.82
0.75
0.78
0.70
0.31
0.08
0.12
0.43
0.35
0.51
0.51
0.51
0.51
0.35
0.35
0.43
0.38
0.38
0.20
0.20
0.12
0.12
0.12
0.08
0.08
0.08
0.08
0.08
0.08
0.08
0.08
0.08
0.08
0.12
0.12
0.12
0.12
0.12
0.12
0.08
0.08
0.08
0.08
0.08
0.08
0.17
0.17
0.08
0.08
0.17
0.17
0.17
0.19
0.08
0.17
0.08
0.08
0.19
0.19
0.19
0.17
0.17
0.08
0.08
0.06
0.00
0.00
0.00
0.00
0.00
0.00
0.00
0.12
0.12
0.12
0.12
0.12
0.21
0.21
0.21
0.21
0.21
0.21
0.31
0.31
0.31
0.21
0.00
0.00
0.52
0.72
0.76
0.87
0.94
0.75
0.78
0.71
0.39
0.12
0.06
0.08
0.08
0.08
0.08
0.08
0.08
0.08
0.08
0.08
0.08
0.06
0.06
0.00
0.00
0.00
0.00
0.12
0.12
0.12
0.21
0.21
0.21
0.21
0.12
0.12
0.00
0.00
0.00
0.00
0.12
0.12
0.00
0.00
0.12
0.12
0.12
0.12
0.12
0.12
0.12
0.12
0.12
0.12
0.12
0.12
0.12
0.12
0.12
0.00
0.08
0.12
0.43
0.65
0.65
0.78
0.86
0.89
0.93
0.93
0.96
0.98
0.98
0.92
0.51
0.52
0.69
0.72
0.72
0.72
0.72
0.72
0.72
0.72
0.72
0.72
0.71
0.71
0.71
0.70
0.71
0.69
0.69
0.71
0.71
0.71
0.70
0.70
0.70
0.68
0.68
0.70
0.66
0.62
0.59
0.52
0.36
0.39
0.21
0.12
0.00
0.00
0.00
0.00
0.00
0.06
0.08
0.08
0.08
0.08
0.08
0.08
0.08
0.08
0.08
0.08
0.08
0.08
0.08
0.08
0.08
0.08
0.08
0.08
0.08
0.08
0.08
0.08
0.08
0.06
0.06
0.06
0.06
0.06
0.06
0.06
0.06
0.06
0.06
0.06
0.06
0.06
0.06
0.08
0.08
0.08
0.08
0.08
0.06
0.06
0.06
0.06
0.06
0.06
0.06
0.06
0.06
0.06
0.08
0.08
0.06
0.06
0.06
0.06
0.06
0.06
0.06
0.08
0.08
0.08
0.08
0.12
0.12
0.21
0.69
0.77
0.75
0.74
0.78
0.74
0.62
0.06
0.12
0.43
0.51
0.65
0.65
0.65
0.65
0.65
0.65
0.51
0.51
0.51
0.51
0.35
0.35
0.43
0.38
0.38
0.38
0.38
0.38
0.20
0.20
0.38
0.43
0.35
0.35
0.35
0.35
0.35
0.35
0.51
0.35
0.35
0.35
0.43
0.43
0.38
0.38
0.20
0.20
0.12
0.12
0.12
0.12
0.12
0.08
0.08
0.08
0.08
0.08
0.19
0.19
0.08
0.12
0.12
0.08
0.19
0.17
0.08
0.08
0.06
0.06
0.06
0.06
0.06
0.00
0.00
0.00
0.00
0.00
0.00
0.00
0.00
0.00
0.00
0.00
0.00
0.00
0.00
0.00
0.06
0.08
0.08
0.08
0.66
0.75
0.75
0.78
0.75
0.77
0.71
0.39
0.08
0.12
0.38
0.35
0.51
0.35
0.35
0.35
0.35
0.35
0.35
0.35
0.38
0.20
0.20
0.12
0.08
0.08
0.08
0.08
0.08
0.08
0.08
0.08
0.08
0.08
0.08
0.08
0.12
0.12
0.12
0.12
0.12
0.12
0.08
0.08
0.08
0.08
0.19
0.19
0.08
0.19
0.19
0.08
0.08
0.08
0.19
0.17
0.17
0.08
0.08
0.08
0.08
0.08
0.08
0.08
0.08
0.08
0.08
0.06
0.00
0.00
0.00
0.00
0.00
0.00
0.12
0.12
0.12
0.21
0.21
0.21
0.31
0.31
0.31
0.31
0.39
0.39
0.39
0.39
0.39
0.39
0.12
0.00
0.40
0.71
0.78
0.82
0.94
0.90
0.78
0.72
0.59
0.12
0.00
0.08
0.08
0.08
0.08
0.08
0.08
0.08
0.08
0.08
0.06
0.06
0.06
0.00
0.00
0.00
0.00
0.12
0.12
0.21
0.21
0.12
0.12
0.12
0.12
0.00
0.00
0.00
0.00
0.00
0.00
0.00
0.00
0.00
0.00
0.00
0.00
0.00
0.00
0.00
0.00
0.00
0.00
0.00
0.00
0.00
0.00
0.00
0.00
0.00
0.00
0.00
0.00
0.00
0.00
0.00
0.00
0.00
0.12
0.21
0.21
0.12
0.12
0.12
0.21
0.12
0.12
0.12
0.12
0.12
0.12
0.12
0.12
0.00
0.00
0.00
0.00
0.00
0.00
0.00
0.08
0.19
0.21
0.71
0.80
0.80
0.90
0.76
0.76
0.68
0.12
0.17
0.12
0.35
0.51
0.51
0.51
0.51
0.51
0.51
0.35
0.35
0.35
0.43
0.20
0.20
0.20
0.20
0.12
0.12
0.12
0.12
0.12
0.12
0.12
0.12
0.12
0.12
0.12
0.20
0.12
0.12
0.12
0.12
0.12
0.12
0.08
0.08
0.08
0.08
0.08
0.08
0.08
0.08
0.08
0.08
0.08
0.17
0.08
0.17
0.08
0.08
0.08
0.08
0.08
0.08
0.08
0.17
0.17
0.08
0.08
0.06
0.06
0.00
0.00
0.06
0.06
0.06
0.06
0.00
0.00
0.00
0.00
0.00
0.00
0.00
0.00
0.00
0.00
0.00
0.00
0.00
0.00
0.06
0.17
0.08
0.31
0.71
0.79
0.74
0.80
0.76
0.75
0.66
0.00
0.19
0.38
0.35
0.35
0.35
0.35
0.35
0.35
0.35
0.35
0.43
0.20
0.20
0.12
0.12
0.12
0.08
0.08
0.08
0.08
0.19
0.19
0.19
0.19
0.08
0.08
0.08
0.08
0.08
0.08
0.08
0.08
0.08
0.08
0.08
0.08
0.19
0.19
0.17
0.08
0.08
0.17
0.08
0.08
0.08
0.08
0.08
0.08
0.08
0.08
0.08
0.08
0.08
0.08
0.08
0.08
0.08
0.08
0.08
0.06
0.00
0.00
0.00
0.00
0.06
0.00
0.00
0.00
0.00
0.00
0.00
0.00
0.00
0.00
0.00
0.00
0.00
0.00
0.00
0.00
0.00
0.00
0.17
0.08
0.21
0.69
0.80
0.75
0.80
0.77
0.75
0.67
0.00
0.19
0.20
0.43
0.51
0.51
0.35
0.35
0.35
0.35
0.43
0.20
0.20
0.20
0.20
0.20
0.12
0.12
0.12
0.12
0.12
0.12
0.12
0.12
0.12
0.12
0.12
0.12
0.20
0.20
0.20
0.20
0.20
0.20
0.20
0.20
0.20
0.12
0.12
0.12
0.12
0.12
0.08
0.08
0.08
0.08
0.08
0.08
0.19
0.17
0.08
0.08
0.08
0.08
0.08
0.08
0.08
0.08
0.08
0.08
0.06
0.00
0.00
0.00
0.00
0.00
0.00
0.00
0.00
0.00
0.00
0.00
0.00
0.00
0.00
0.00
0.00
0.00
0.00
0.00
0.00
0.00
0.00
0.06
0.19
0.06
0.70
0.74
0.75
0.75
0.75
0.78
0.71
0.40
0.08
0.12
0.38
0.35
0.35
0.35
0.35
0.35
0.43
0.38
0.38
0.20
0.20
0.12
0.12
0.08
0.08
0.08
0.17
0.17
0.17
0.08
0.08
0.17
0.19
0.08
0.08
0.08
0.19
0.17
0.17
0.17
0.17
0.17
0.08
0.08
0.08
0.08
0.08
0.08
0.08
0.08
0.08
0.08
0.08
0.08
0.08
0.08
0.08
0.08
0.08
0.06
0.06
0.08
0.08
0.08
0.08
0.08
0.06
0.00
0.00
0.00
0.12
0.12
0.00
0.00
0.12
0.12
0.12
0.12
0.00
0.00
0.12
0.12
0.12
0.12
0.12
0.12
0.12
0.12
0.12
0.00
0.08
0.08
0.59
0.75
0.76
0.82
0.82
0.78
0.73
0.62
0.00
0.08
0.08
0.20
0.20
0.20
0.20
0.20
0.20
0.20
0.12
0.12
0.08
0.08
0.08
0.08
0.17
0.17
0.08
0.08
0.08
0.08
0.08
0.08
0.08
0.08
0.08
0.17
0.17
0.17
0.17
0.17
0.17
0.19
0.08
0.08
0.08
0.08
0.08
0.08
0.08
0.08
0.08
0.08
0.08
0.08
0.08
0.08
0.08
0.08
0.06
0.06
0.06
0.06
0.06
0.06
0.06
0.08
0.08
0.06
0.00
0.00
0.00
0.12
0.21
0.21
0.21
0.21
0.21
0.31
0.21
0.21
0.39
0.36
0.36
0.39
0.39
0.36
0.40
0.40
0.36
0.36
0.40
0.31
0.00
0.21
0.69
0.76
0.75
0.94
0.94
0.75
0.76
0.68
0.40
0.12
0.00
0.00
0.06
0.06
0.06
0.06
0.06
0.06
0.00
0.00
0.00
0.00
0.00
0.00
0.12
0.12
0.21
0.21
0.31
0.31
0.31
0.31
0.39
0.31
0.21
0.21
0.21
0.21
0.21
0.21
0.21
0.21
0.21
0.21
0.21
0.21
0.12
0.12
0.12
0.12
0.12
0.12
0.12
0.12
0.12
0.12
0.12
0.12
0.12
0.12
0.00
0.00
0.00
0.00
0.00
0.00
0.12
0.21
0.31
0.21
0.21
0.21
0.21
0.21
0.21
0.21
0.21
0.21
0.21
0.21
0.21
0.21
0.21
0.21
0.21
0.21
0.21
0.12
0.00
0.08
0.06
0.62
0.75
0.75
0.87
0.90
0.76
0.74
0.62
0.12
0.17
0.12
0.20
0.43
0.35
0.35
0.38
0.38
0.38
0.38
0.20
0.20
0.20
0.20
0.20
0.12
0.12
0.08
0.08
0.08
0.08
0.08
0.08
0.08
0.08
0.08
0.08
0.08
0.08
0.08
0.08
0.08
0.08
0.08
0.08
0.08
0.08
0.08
0.08
0.08
0.17
0.17
0.19
0.19
0.17
0.17
0.17
0.17
0.17
0.17
0.08
0.08
0.08
0.08
0.08
0.19
0.08
0.08
0.19
0.08
0.08
0.06
0.00
0.00
0.06
0.06
0.06
0.06
0.06
0.06
0.08
0.06
0.06
0.06
0.06
0.06
0.06
0.06
0.06
0.06
0.06
0.06
0.08
0.20
0.19
0.52
0.75
0.75
0.80
0.75
0.77
0.70
0.36
0.08
0.12
0.35
0.65
0.65
0.65
0.65
0.65
0.51
0.51
0.51
0.35
0.35
0.35
0.43
0.38
0.38
0.20
0.20
0.12
0.12
0.12
0.12
0.12
0.12
0.12
0.12
0.20
0.20
0.20
0.20
0.20
0.20
0.12
0.12
0.12
0.12
0.12
0.08
0.08
0.08
0.08
0.08
0.08
0.08
0.08
0.08
0.19
0.19
0.08
0.19
0.19
0.19
0.08
0.19
0.19
0.08
0.08
0.08
0.19
0.08
0.08
0.06
0.06
0.06
0.08
0.08
0.06
0.06
0.08
0.06
0.06
0.06
0.06
0.06
0.06
0.06
0.06
0.06
0.06
0.06
0.00
0.00
0.08
0.12
0.08
0.62
0.75
0.76
0.75
0.75
0.78
0.71
0.39
0.08
0.12
0.38
0.35
0.51
0.51
0.35
0.35
0.35
0.35
0.43
0.38
0.20
0.20
0.12
0.08
0.08
0.08
0.19
0.19
0.19
0.17
0.17
0.19
0.19
0.19
0.08
0.08
0.08
0.08
0.08
0.08
0.08
0.08
0.08
0.08
0.19
0.17
0.17
0.08
0.17
0.17
0.17
0.08
0.08
0.08
0.08
0.08
0.08
0.08
0.06
0.06
0.06
0.06
0.08
0.08
0.08
0.08
0.06
0.00
0.00
0.12
0.12
0.12
0.12
0.00
0.00
0.12
0.12
0.12
0.00
0.00
0.12
0.12
0.12
0.12
0.12
0.12
0.00
0.00
0.00
0.00
0.00
0.08
0.06
0.62
0.75
0.75
0.87
0.80
0.79
0.72
0.59
0.00
0.17
0.12
0.20
0.20
0.20
0.20
0.20
0.20
0.12
0.12
0.12
0.12
0.12
0.08
0.08
0.19
0.17
0.17
0.17
0.17
0.17
0.17
0.17
0.19
0.08
0.08
0.08
0.08
0.08
0.08
0.08
0.19
0.19
0.08
0.08
0.19
0.17
0.17
0.08
0.08
0.08
0.17
0.08
0.08
0.17
0.17
0.08
0.38
0.65
0.78
0.81
0.86
0.89
0.93
0.98
0.98
0.99
1.00
1.00
1.00
0.96
0.43
0.57
0.70
0.71
0.69
0.71
0.71
0.70
0.70
0.71
0.71
0.71
0.71
0.71
0.71
0.71
0.71
0.70
0.70
0.71
0.71
0.71
0.69
0.69
0.71
0.71
0.70
0.70
0.69
0.70
0.66
0.62
0.62
0.59
0.52
0.39
0.39
0.36
0.40
0.39
0.31
0.31
0.31
0.31
0.39
0.31
0.31
0.31
0.39
0.40
0.36
0.40
0.40
0.36
0.36
0.36
0.36
0.36
0.36
0.36
0.36
0.36
0.36
0.36
0.39
0.36
0.40
0.40
0.36
0.36
0.36
0.36
0.36
0.36
0.36
0.36
0.36
0.36
0.36
0.36
0.36
0.36
0.36
0.40
0.31
0.21
0.21
0.21
0.39
0.40
0.36
0.36
0.36
0.36
0.39
0.39
0.39
0.39
0.31
0.31
0.31
0.31
0.31
0.31
0.31
0.31
0.31
0.21
0.21
0.21
0.00
0.06
0.00
0.66
0.75
0.75
0.86
0.90
0.77
0.74
0.59
0.00
0.08
0.12
0.20
0.38
0.38
0.38
0.43
0.35
0.35
0.43
0.38
0.20
0.20
0.20
0.12
0.12
0.12
0.12
0.12
0.12
0.12
0.12
0.12
0.12
0.20
0.20
0.20
0.38
0.43
0.35
0.35
0.35
0.35
0.35
0.43
0.38
0.20
0.20
0.20
0.12
0.12
0.12
0.12
0.08
0.08
0.08
0.08
0.08
0.08
0.08
0.08
0.08
0.08
0.17
0.19
0.08
0.08
0.08
0.08
0.19
0.08
0.08
0.06
0.06
0.06
0.06
0.06
0.06
0.06
0.06
0.06
0.00
0.00
0.00
0.00
0.06
0.00
0.00
0.00
0.06
0.06
0.06
0.06
0.08
0.20
0.12
0.39
0.73
0.77
0.80
0.78
0.78
0.70
0.36
0.08
0.08
0.43
0.51
0.51
0.51
0.51
0.51
0.51
0.35
0.35
0.35
0.43
0.38
0.38
0.20
0.12
0.12
0.12
0.12
0.12
0.12
0.12
0.12
0.12
0.12
0.20
0.20
0.20
0.20
0.20
0.20
0.12
0.12
0.12
0.12
0.12
0.08
0.08
0.08
0.08
0.08
0.08
0.08
0.08
0.08
0.17
0.17
0.19
0.17
0.08
0.08
0.08
0.08
0.08
0.17
0.17
0.19
0.17
0.08
0.08
0.06
0.06
0.06
0.06
0.06
0.06
0.06
0.06
0.06
0.06
0.00
0.00
0.06
0.06
0.06
0.06
0.00
0.00
0.06
0.06
0.06
0.06
0.08
0.12
0.08
0.59
0.75
0.77
0.75
0.75
0.78
0.71
0.39
0.08
0.12
0.43
0.35
0.51
0.51
0.35
0.35
0.35
0.35
0.43
0.38
0.20
0.20
0.12
0.12
0.12
0.08
0.19
0.19
0.19
0.19
0.08
0.08
0.08
0.08
0.08
0.08
0.08
0.08
0.12
0.12
0.12
0.08
0.08
0.08
0.08
0.19
0.19
0.17
0.08
0.08
0.17
0.08
0.08
0.08
0.08
0.08
0.08
0.08
0.08
0.08
0.08
0.08
0.08
0.08
0.08
0.06
0.00
0.00
0.00
0.12
0.12
0.00
0.00
0.00
0.00
0.00
0.00
0.00
0.00
0.00
0.00
0.00
0.00
0.00
0.00
0.00
0.00
0.00
0.00
0.00
0.17
0.08
0.39
0.72
0.78
0.80
0.82
0.77
0.75
0.66
0.00
0.08
0.08
0.20
0.20
0.20
0.20
0.20
0.20
0.20
0.12
0.12
0.08
0.08
0.19
0.17
0.17
0.17
0.17
0.08
0.08
0.08
0.08
0.08
0.08
0.17
0.17
0.17
0.17
0.17
0.17
0.19
0.08
0.19
0.08
0.08
0.08
0.08
0.08
0.08
0.08
0.08
0.08
0.08
0.08
0.08
0.08
0.08
0.08
0.08
0.06
0.06
0.06
0.06
0.06
0.06
0.08
0.08
0.08
0.06
0.00
0.00
0.00
0.00
0.12
0.12
0.12
0.12
0.12
0.12
0.12
0.12
0.12
0.12
0.12
0.12
0.00
0.00
0.00
0.00
0.00
0.00
0.00
0.00
0.08
0.17
0.40
0.70
0.80
0.74
0.74
0.79
0.72
0.59
0.06
0.19
0.38
0.35
0.51
0.51
0.35
0.35
0.35
0.35
0.38
0.38
0.20
0.12
0.12
0.08
0.08
0.08
0.17
0.08
0.08
0.08
0.06
0.06
0.00
0.00
0.00
0.00
0.00
0.06
0.00
0.00
0.06
0.00
0.00
0.00
0.00
0.00
0.00
0.00
0.12
0.00
0.00
0.12
0.12
0.12
0.12
0.12
0.12
0.21
0.21
0.21
0.21
0.31
0.21
0.21
0.21
0.21
0.21
0.39
0.36
0.39
0.39
0.39
0.39
0.39
0.39
0.39
0.39
0.39
0.39
0.52
0.52
0.52
0.52
0.52
0.52
0.52
0.52
0.52
0.39
0.36
0.31
0.21
0.62
0.74
0.75
0.91
0.95
0.86
0.78
0.71
0.36
0.00
0.08
0.08
0.17
0.19
0.08
0.08
0.19
0.19
0.19
0.17
0.17
0.08
0.08
0.08
0.08
0.08
0.08
0.08
0.06
0.06
0.06
0.08
0.08
0.08
0.08
0.08
0.08
0.08
0.17
0.08
0.08
0.17
0.08
0.08
0.08
0.08
0.08
0.08
0.08
0.08
0.08
0.17
0.08
0.08
0.08
0.08
0.08
0.08
0.08
0.08
0.08
0.08
0.08
0.08
0.08
0.08
0.08
0.08
0.08
0.06
0.06
0.00
0.00
0.00
0.00
0.00
0.00
0.00
0.00
0.00
0.00
0.00
0.00
0.00
0.00
0.00
0.00
0.00
0.00
0.00
0.00
0.00
0.17
0.12
0.21
0.70
0.79
0.75
0.82
0.76
0.75
0.66
0.00
0.19
0.20
0.43
0.35
0.35
0.35
0.35
0.35
0.35
0.35
0.38
0.20
0.20
0.12
0.12
0.08
0.08
0.08
0.08
0.08
0.08
0.08
0.19
0.19
0.08
0.08
0.08
0.08
0.08
0.12
0.08
0.19
0.19
0.08
0.08
0.08
0.08
0.17
0.17
0.17
0.08
0.08
0.08
0.08
0.08
0.08
0.08
0.08
0.08
0.08
0.08
0.08
0.08
0.08
0.08
0.08
0.08
0.08
0.08
0.06
0.00
0.00
0.00
0.00
0.00
0.00
0.00
0.00
0.00
0.00
0.00
0.00
0.00
0.00
0.00
0.00
0.00
0.00
0.00
0.00
0.00
0.00
0.06
0.12
0.08
0.66
0.75
0.75
0.82
0.74
0.78
0.71
0.40
0.08
0.12
0.38
0.35
0.51
0.51
0.51
0.35
0.35
0.35
0.43
0.43
0.43
0.20
0.20
0.20
0.12
0.12
0.12
0.12
0.08
0.08
0.12
0.12
0.12
0.12
0.12
0.12
0.12
0.12
0.12
0.12
0.12
0.12
0.08
0.08
0.08
0.08
0.08
0.19
0.19
0.19
0.19
0.08
0.08
0.17
0.17
0.17
0.17
0.17
0.08
0.08
0.08
0.08
0.08
0.08
0.08
0.17
0.08
0.08
0.06
0.00
0.00
0.00
0.00
0.00
0.00
0.00
0.00
0.00
0.00
0.00
0.00
0.00
0.00
0.00
0.00
0.00
0.00
0.00
0.00
0.00
0.00
0.08
0.12
0.08
0.70
0.77
0.75
0.80
0.75
0.78
0.70
0.39
0.08
0.12
0.38
0.35
0.51
0.51
0.51
0.35
0.35
0.35
0.35
0.43
0.20
0.20
0.20
0.12
0.12
0.12
0.12
0.12
0.12
0.12
0.12
0.12
0.20
0.20
0.20
0.20
0.20
0.12
0.12
0.12
0.12
0.08
0.08
0.08
0.17
0.08
0.08
0.08
0.08
0.08
0.08
0.06
0.06
0.06
0.06
0.00
0.00
0.00
0.12
0.12
0.12
0.00
0.00
0.00
0.00
0.12
0.12
0.31
0.39
0.40
0.40
0.40
0.40
0.40
0.40
0.36
0.40
0.40
0.36
0.36
0.36
0.36
0.36
0.36
0.36
0.36
0.39
0.39
0.39
0.39
0.39
0.12
0.39
0.71
0.78
0.82
0.95
0.94
0.75
0.75
0.67
0.21
0.00
0.06
0.08
0.08
0.08
0.08
0.08
0.08
0.06
0.06
0.06
0.06
0.00
0.00
0.00
0.00
0.00
0.00
0.12
0.12
0.12
0.12
0.12
0.00
0.00
0.00
0.00
0.00
0.00
0.00
0.00
0.00
0.00
0.00
0.12
0.00
0.00
0.12
0.12
0.12
0.12
0.12
0.00
0.00
0.12
0.12
0.12
0.00
0.00
0.12
0.12
0.12
0.00
0.00
0.00
0.00
0.00
0.00
0.00
0.12
0.21
0.21
0.21
0.21
0.21
0.21
0.21
0.21
0.12
0.12
0.12
0.12
0.12
0.12
0.12
0.12
0.12
0.12
0.12
0.12
0.00
0.06
0.17
0.21
0.71
0.78
0.78
0.87
0.75
0.78
0.70
0.31
0.08
0.20
0.43
0.35
0.35
0.51
0.35
0.35
0.35
0.35
0.35
0.35
0.43
0.38
0.20
0.20
0.12
0.12
0.08
0.08
0.08
0.08
0.08
0.08
0.12
0.12
0.12
0.12
0.12
0.12
0.12
0.12
0.12
0.08
0.08
0.08
0.08
0.08
0.19
0.17
0.17
0.17
0.08
0.19
0.17
0.19
0.19
0.17
0.17
0.08
0.08
0.08
0.08
0.08
0.08
0.19
0.17
0.17
0.19
0.08
0.08
0.06
0.06
0.06
0.06
0.06
0.06
0.06
0.06
0.06
0.06
0.00
0.00
0.00
0.00
0.06
0.00
0.00
0.00
0.06
0.00
0.00
0.06
0.17
0.20
0.12
0.71
0.78
0.75
0.82
0.75
0.74
0.67
0.00
0.08
0.38
0.43
0.35
0.51
0.51
0.51
0.51
0.51
0.51
0.51
0.35
0.43
0.43
0.20
0.20
0.20
