0.40
0.34
0.53
0.49
0.56
0.49
0.53
0.34
0.29
0.22
0.22
0.34
0.38
0.39
0.37
0.38
0.35
0.09
0.02
0.14
0.20
0.20
0.34
0.40
0.27
0.23
0.16
0.14
0.16
0.20
0.15
0.10
0.15
0.30
0.20
0.15
0.05
0.14
0.03
0.03
0.05
0.15
0.14
0.03
0.03
0.03
0.03
0.00
0.00
0.03
0.05
0.03
0.03
0.03
0.14
0.05
0.03
0.02
0.00
0.02
0.00
0.00
0.03
0.03
0.03
0.14
0.03
0.00
0.02
0.03
0.03
0.03
0.03
0.00
0.00
0.03
0.10
0.03
0.03
0.05
0.03
0.00
0.03
0.02
0.03
0.02
0.00
0.02
0.03
0.05
0.14
0.05
0.03
0.03
0.03
0.20
0.23
0.20
0.10
0.03
0.02
0.00
0.00
0.02
0.03
0.02
0.00
0.00
0.02
0.03
0.03
0.15
0.30
0.27
0.37
0.53
0.58
0.50
0.58
0.77
0.80
0.83
0.84
0.85
0.97
0.84
0.71
0.09
0.38
0.34
0.22
0.17
0.22
0.27
0.33
0.29
0.29
0.27
0.18
0.18
0.27
0.22
0.22
0.22
0.27
0.27
0.17
0.17
0.22
0.22
0.17
0.17
0.17
0.17
0.17
0.22
0.27
0.30
0.27
0.34
0.45
0.34
0.35
0.34
0.34
0.40
0.56
0.40
0.55
0.55
0.55
0.56
0.40
0.34
0.30
0.30
0.22
0.34
0.38
0.31
0.09
0.00
0.00
0.03
0.14
0.15
0.16
0.16
0.16
0.19
0.23
0.30
0.37
0.37
0.20
0.15
0.10
0.16
0.20
0.16
0.16
0.15
0.15
0.15
0.14
0.05
0.05
0.03
0.10
0.10
0.10
0.05
0.14
0.14
0.05
0.05
0.03
0.03
0.05
0.03
0.03
0.03
0.00
0.03
0.10
0.16
0.14
0.03
0.03
0.03
0.03
0.02
0.02
0.02
0.03
0.10
0.03
0.02
0.03
0.03
0.03
0.10
0.14
0.03
0.00
0.00
0.00
0.00
0.02
0.03
0.05
0.05
0.03
0.02
0.00
0.00
0.03
0.02
0.00
0.00
0.03
0.03
0.05
0.16
0.15
0.03
0.00
0.15
0.23
0.23
0.20
0.09
0.00
0.00
0.00
0.00
0.00
0.00
0.05
0.20
0.34
0.43
0.50
0.50
0.49
0.57
0.72
0.80
0.84
0.84
0.84
0.85
0.82
0.67
0.09
0.38
0.24
0.24
0.22
0.27
0.22
0.31
0.22
0.31
0.22
0.31
0.17
0.17
0.24
0.18
0.18
0.18
0.22
0.22
0.18
0.22
0.22
0.27
0.30
0.18
0.27
0.22
0.22
0.27
0.27
0.30
0.29
0.31
0.30
0.29
0.33
0.45
0.45
0.56
0.53
0.34
0.34
0.45
0.35
0.31
0.27
0.31
0.27
0.34
0.36
0.36
0.38
0.15
0.02
0.03
0.14
0.15
0.19
0.23
0.23
0.27
0.40
0.34
0.19
0.16
0.19
0.23
0.23
0.20
0.19
0.16
0.16
0.16
0.16
0.16
0.16
0.16
0.16
0.19
0.14
0.03
0.03
0.15
0.05
0.05
0.14
0.14
0.05
0.05
0.03
0.03
0.05
0.05
0.05
0.05
0.03
0.02
0.05
0.16
0.03
0.05
0.14
0.05
0.03
0.03
0.02
0.02
0.03
0.03
0.03
0.03
0.02
0.00
0.00
0.00
0.02
0.02
0.00
0.00
0.03
0.00
0.00
0.02
0.03
0.00
0.02
0.00
0.00
0.02
0.00
0.00
0.00
0.00
0.02
0.03
0.10
0.14
0.03
0.02
0.00
0.00
0.00
0.00
0.00
0.00
0.00
0.00
0.00
0.09
0.00
0.15
0.40
0.40
0.34
0.48
0.60
0.60
0.60
0.77
0.81
0.83
0.85
0.88
0.95
0.84
0.78
0.15
0.35
0.38
0.27
0.27
0.22
0.17
0.18
0.22
0.27
0.22
0.17
0.22
0.17
0.17
0.22
0.22
0.18
0.22
0.34
0.27
0.18
0.17
0.17
0.22
0.18
0.18
0.18
0.18
0.22
0.22
0.27
0.31
0.27
0.22
0.30
0.33
0.45
0.59
0.63
0.59
0.55
0.56
0.53
0.33
0.31
0.27
0.18
0.24
0.36
0.36
0.40
0.35
0.31
0.00
0.03
0.16
0.16
0.19
0.20
0.41
0.41
0.41
0.45
0.45
0.45
0.45
0.43
0.27
0.10
0.15
0.16
0.14
0.14
0.15
0.05
0.03
0.10
0.10
0.05
0.03
0.03
0.10
0.10
0.16
0.16
0.03
0.00
0.02
0.03
0.03
0.03
0.03
0.03
0.03
0.03
0.03
0.03
0.02
0.03
0.02
0.03
0.03
0.02
0.02
0.03
0.02
0.03
0.02
0.03
0.05
0.03
0.03
0.02
0.02
0.00
0.00
0.00
0.02
0.02
0.03
0.03
0.03
0.02
0.03
0.03
0.02
0.00
0.00
0.02
0.03
0.03
0.05
0.14
0.16
0.27
0.27
0.05
0.02
0.00
0.00
0.03
0.02
0.00
0.00
0.00
0.00
0.00
0.00
0.00
0.23
0.43
0.46
0.53
0.62
0.64
0.60
0.68
0.80
0.81
0.83
0.82
0.95
0.85
0.81
0.58
0.15
0.38
0.34
0.36
0.24
0.24
0.24
0.22
0.22
0.27
0.22
0.17
0.27
0.27
0.27
0.24
0.38
0.34
0.34
0.24
0.27
0.24
0.22
0.22
0.27
0.22
0.27
0.27
0.36
0.34
0.22
0.18
0.18
0.17
0.30
0.29
0.33
0.40
0.45
0.45
0.56
0.63
0.63
0.59
0.53
0.34
0.31
0.27
0.17
0.27
0.38
0.39
0.39
0.23
0.15
0.00
0.03
0.15
0.15
0.16
0.20
0.23
0.40
0.30
0.19
0.20
0.16
0.20
0.16
0.16
0.16
0.20
0.15
0.14
0.15
0.14
0.10
0.10
0.10
0.05
0.05
0.14
0.14
0.10
0.05
0.05
0.10
0.02
0.02
0.05
0.03
0.02
0.02
0.03
0.00
0.00
0.00
0.00
0.00
0.00
0.00
0.02
0.02
0.00
0.00
0.00
0.00
0.03
0.02
0.09
0.00
0.02
0.00
0.15
0.00
0.00
0.00
0.09
0.00
0.00
0.09
0.00
0.00
0.00
0.00
0.00
0.00
0.00
0.00
0.00
0.02
0.02
0.03
0.02
0.02
0.10
0.16
0.05
0.00
0.00
0.20
0.20
0.00
0.00
0.00
0.31
0.20
0.00
0.00
0.20
0.15
0.10
0.40
0.41
0.49
0.60
0.60
0.58
0.70
0.80
0.81
0.84
0.82
0.91
0.83
0.80
0.40
0.39
0.27
0.17
0.30
0.30
0.17
0.17
0.27
0.30
0.29
0.29
0.31
0.17
0.17
0.17
0.17
0.27
0.31
0.29
0.27
0.22
0.31
0.29
0.22
0.17
0.17
0.33
0.34
0.35
0.34
0.33
0.35
0.40
0.49
0.55
0.59
0.72
0.75
0.80
0.82
0.82
0.80
0.82
0.80
0.68
0.59
0.53
0.33
0.31
0.22
0.22
0.38
0.37
0.37
0.20
0.00
0.00
0.02
0.05
0.05
0.10
0.15
0.16
0.20
0.16
0.16
0.15
0.15
0.05
0.05
0.05
0.05
0.02
0.02
0.03
0.05
0.10
0.03
0.03
0.03
0.02
0.00
0.02
0.00
0.00
0.15
0.15
0.09
0.00
0.00
0.00
0.02
0.00
0.00
0.00
0.02
0.15
0.20
0.15
0.00
0.00
0.15
0.15
0.09
0.09
0.00
0.15
0.09
0.15
0.20
0.15
0.15
0.20
0.09
0.09
0.15
0.09
0.00
0.00
0.00
0.00
0.15
0.35
0.35
0.15
0.00
0.09
0.20
0.20
0.20
0.20
0.15
0.09
0.00
0.03
0.10
0.03
0.05
0.00
0.20
0.20
0.15
0.15
0.20
0.37
0.20
0.23
0.20
0.20
0.20
0.00
0.14
0.20
0.19
0.41
0.49
0.53
0.49
0.67
0.80
0.79
0.82
0.84
0.84
0.85
0.80
0.40
0.39
0.22
0.27
0.29
0.29
0.29
0.30
0.27
0.33
0.45
0.34
0.29
0.31
0.22
0.17
0.30
0.31
0.17
0.29
0.31
0.30
0.30
0.30
0.34
0.38
0.27
0.22
0.22
0.18
0.30
0.29
0.27
0.17
0.30
0.35
0.33
0.40
0.59
0.63
0.63
0.63
0.63
0.59
0.55
0.45
0.40
0.40
0.29
0.22
0.27
0.34
0.38
0.38
0.35
0.09
0.00
0.02
0.05
0.16
0.19
0.23
0.19
0.16
0.19
0.23
0.19
0.16
0.15
0.15
0.16
0.15
0.14
0.15
0.16
0.10
0.10
0.14
0.05
0.03
0.03
0.10
0.15
0.14
0.14
0.15
0.15
0.10
0.05
0.05
0.10
0.10
0.03
0.03
0.03
0.02
0.05
0.10
0.05
0.05
0.03
0.03
0.03
0.05
0.10
0.15
0.10
0.03
0.03
0.05
0.10
0.10
0.15
0.15
0.03
0.03
0.03
0.03
0.05
0.14
0.15
0.10
0.15
0.14
0.05
0.05
0.10
0.14
0.10
0.14
0.14
0.10
0.14
0.14
0.14
0.19
0.27
0.30
0.40
0.23
0.10
0.10
0.02
0.14
0.15
0.05
0.03
0.02
0.02
0.02
0.03
0.03
0.03
0.41
0.49
0.50
0.66
0.70
0.64
0.60
0.72
0.80
0.84
0.85
0.85
0.97
0.84
0.79
0.41
0.31
0.38
0.22
0.27
0.24
0.17
0.17
0.17
0.17
0.17
0.18
0.22
0.18
0.17
0.18
0.24
0.27
0.24
0.22
0.18
0.22
0.36
0.24
0.27
0.27
0.27
0.24
0.24
0.18
0.17
0.17
0.17
0.30
0.30
0.27
0.33
0.49
0.55
0.40
0.35
0.34
0.35
0.35
0.29
0.29
0.29
0.27
0.24
0.34
0.40
0.39
0.37
0.15
0.02
0.05
0.05
0.10
0.23
0.41
0.34
0.40
0.34
0.40
0.41
0.40
0.41
0.34
0.40
0.34
0.43
0.34
0.27
0.30
0.20
0.16
0.20
0.16
0.05
0.03
0.05
0.05
0.14
0.14
0.03
0.03
0.03
0.03
0.03
0.03
0.03
0.03
0.00
0.00
0.00
0.00
0.00
0.03
0.02
0.00
0.00
0.00
0.03
0.03
0.03
0.00
0.00
0.00
0.02
0.03
0.03
0.03
0.02
0.00
0.00
0.02
0.03
0.00
0.00
0.02
0.03
0.03
0.03
0.03
0.02
0.03
0.05
0.03
0.00
0.00
0.00
0.03
0.03
0.05
0.05
0.14
0.19
0.19
0.10
0.00
0.00
0.00
0.03
0.03
0.02
0.00
0.00
0.00
0.09
0.00
0.00
0.10
0.41
0.45
0.46
0.60
0.67
0.60
0.64
0.78
0.80
0.82
0.83
0.86
0.98
0.83
0.75
0.10
0.38
0.38
0.38
0.27
0.18
0.18
0.24
0.24
0.18
0.17
0.22
0.24
0.18
0.17
0.17
0.17
0.18
0.24
0.27
0.27
0.24
0.22
0.24
0.22
0.22
0.22
0.22
0.18
0.17
0.18
0.24
0.22
0.27
0.30
0.31
0.29
0.35
0.55
0.59
0.59
0.59
0.59
0.59
0.55
0.45
0.35
0.31
0.18
0.34
0.38
0.35
0.23
0.15
0.02
0.05
0.16
0.14
0.10
0.16
0.20
0.20
0.27
0.23
0.23
0.27
0.23
0.16
0.15
0.05
0.15
0.23
0.14
0.10
0.03
0.03
0.05
0.03
0.03
0.05
0.05
0.05
0.10
0.03
0.03
0.05
0.03
0.03
0.02
0.02
0.03
0.02
0.00
0.00
0.00
0.00
0.02
0.03
0.02
0.00
0.00
0.00
0.00
0.03
0.03
0.03
0.02
0.00
0.00
0.00
0.00
0.00
0.03
0.03
0.00
0.09
0.15
0.09
0.00
0.00
0.00
0.03
0.00
0.00
0.00
0.00
0.00
0.00
0.02
0.03
0.02
0.00
0.00
0.03
0.10
0.16
0.16
0.14
0.03
0.00
0.15
0.15
0.00
0.00
0.00
0.00
0.00
0.09
0.09
0.31
0.09
0.16
0.46
0.34
0.48
0.60
0.60
0.56
0.68
0.80
0.81
0.84
0.84
0.93
0.83
0.79
0.40
0.37
0.34
0.27
0.18
0.18
0.18
0.17
0.22
0.18
0.18
0.17
0.18
0.34
0.34
0.17
0.22
0.18
0.18
0.18
0.18
0.17
0.18
0.27
0.27
0.18
0.22
0.22
0.18
0.31
0.17
0.27
0.31
0.30
0.45
0.40
0.34
0.59
0.59
0.59
0.68
0.63
0.68
0.75
0.68
0.63
0.55
0.35
0.18
0.27
0.34
0.40
0.39
0.38
0.23
0.02
0.02
0.00
0.05
0.15
0.16
0.27
0.27
0.27
0.23
0.19
0.14
0.14
0.15
0.03
0.03
0.05
0.02
0.00
0.00
0.02
0.02
0.02
0.03
0.00
0.00
0.00
0.03
0.00
0.00
0.00
0.00
0.09
0.00
0.09
0.09
0.09
0.00
0.00
0.02
0.02
0.00
0.00
0.15
0.20
0.15
0.09
0.09
0.20
0.23
0.15
0.00
0.00
0.00
0.00
0.00
0.00
0.00
0.00
0.00
0.00
0.00
0.00
0.00
0.03
0.00
0.00
0.00
0.00
0.00
0.00
0.00
0.00
0.02
0.00
0.00
0.00
0.00
0.00
0.00
0.00
0.03
0.03
0.00
0.20
0.23
0.00
0.02
0.00
0.00
0.09
0.00
0.00
0.00
0.15
0.00
0.10
0.30
0.19
0.27
0.49
0.53
0.48
0.56
0.75
0.80
0.82
0.83
0.84
0.94
0.83
0.60
0.15
0.34
0.22
0.22
0.31
0.22
0.18
0.22
0.33
0.33
0.30
0.27
0.31
0.22
0.18
0.18
0.17
0.18
0.18
0.22
0.22
0.18
0.18
0.22
0.22
0.17
0.17
0.17
0.22
0.31
0.17
0.22
0.22
0.17
0.34
0.49
0.40
0.35
0.35
0.53
0.56
0.59
0.59
0.53
0.49
0.45
0.33
0.29
0.22
0.22
0.38
0.38
0.23
0.15
0.00
0.02
0.03
0.14
0.19
0.20
0.23
0.34
0.43
0.46
0.41
0.30
0.23
0.23
0.30
0.40
0.27
0.23
0.19
0.16
0.16
0.16
0.19
0.23
0.16
0.14
0.05
0.05
0.10
0.15
0.16
0.16
0.16
0.19
0.15
0.15
0.14
0.15
0.16
0.16
0.14
0.05
0.10
0.10
0.10
0.05
0.05
0.05
0.03
0.02
0.02
0.02
0.02
0.03
0.02
0.05
0.05
0.10
0.03
0.03
0.00
0.00
0.00
0.00
0.00
0.03
0.00
0.00
0.00
0.00
0.03
0.05
0.03
0.00
0.02
0.02
0.03
0.00
0.03
0.10
0.15
0.15
0.16
0.10
0.03
0.02
0.00
0.00
0.00
0.00
0.00
0.00
0.00
0.00
0.09
0.09
0.15
0.40
0.34
0.40
0.58
0.60
0.58
0.64
0.80
0.79
0.82
0.84
0.96
1.00
0.83
0.58
0.00
0.38
0.36
0.22
0.22
0.22
0.24
0.24
0.17
0.31
0.29
0.30
0.18
0.24
0.22
0.22
0.24
0.22
0.17
0.18
0.27
0.27
0.17
0.18
0.24
0.22
0.30
0.17
0.18
0.17
0.18
0.24
0.17
0.34
0.40
0.40
0.56
0.49
0.55
0.59
0.63
0.63
0.59
0.55
0.49
0.31
0.22
0.17
0.17
0.18
0.27
0.39
0.31
0.09
0.00
0.02
0.05
0.15
0.20
0.34
0.41
0.41
0.34
0.23
0.23
0.23
0.19
0.20
0.19
0.19
0.15
0.10
0.14
0.15
0.14
0.10
0.05
0.00
0.00
0.03
0.03
0.03
0.02
0.03
0.03
0.03
0.00
0.00
0.03
0.00
0.00
0.00
0.00
0.00
0.00
0.00
0.03
0.02
0.00
0.00
0.00
0.00
0.00
0.03
0.03
0.00
0.00
0.00
0.00
0.00
0.00
0.00
0.15
0.09
0.00
0.00
0.09
0.00
0.00
0.00
0.00
0.00
0.00
0.00
0.00
0.15
0.15
0.00
0.09
0.03
0.00
0.02
0.05
0.05
0.10
0.14
0.03
0.00
0.15
0.09
0.09
0.00
0.09
0.20
0.20
0.20
0.09
0.00
0.00
0.03
0.19
0.20
0.41
0.58
0.60
0.58
0.66
0.80
0.81
0.83
0.83
0.86
0.88
0.80
0.41
0.23
0.38
0.22
0.22
0.18
0.17
0.18
0.31
0.30
0.30
0.27
0.22
0.24
0.22
0.18
0.22
0.18
0.17
0.18
0.17
0.27
0.31
0.27
0.18
0.22
0.22
0.17
0.30
0.27
0.22
0.22
0.17
0.27
0.35
0.45
0.56
0.53
0.49
0.59
0.59
0.49
0.55
0.53
0.34
0.34
0.59
0.29
0.29
0.34
0.27
0.24
0.39
0.37
0.31
0.15
0.05
0.14
0.03
0.14
0.37
0.41
0.37
0.27
0.40
0.41
0.40
0.41
0.40
0.20
0.10
0.15
0.16
0.05
0.10
0.15
0.19
0.16
0.16
0.15
0.15
0.14
0.03
0.14
0.10
0.03
0.03
0.05
0.15
0.03
0.03
0.03
0.05
0.00
0.00
0.03
0.05
0.03
0.03
0.05
0.03
0.00
0.00
0.00
0.00
0.00
0.00
0.00
0.02
0.00
0.00
0.00
0.00
0.00
0.00
0.02
0.00
0.15
0.00
0.00
0.03
0.00
0.00
0.00
0.09
0.00
0.05
0.00
0.20
0.15
0.00
0.03
0.02
0.02
0.02
0.00
0.00
0.03
0.15
0.03
0.35
0.23
0.15
0.00
0.00
0.00
0.09
0.09
0.09
0.00
0.00
0.00
0.05
0.20
0.20
0.37
0.53
0.58
0.58
0.62
0.77
0.80
0.81
0.83
0.86
0.88
0.82
0.67
0.15
0.38
0.22
0.18
0.18
0.27
0.22
0.22
0.18
0.17
0.33
0.29
0.30
0.31
0.27
0.18
0.18
0.34
0.22
0.17
0.27
0.22
0.18
0.27
0.30
0.27
0.22
0.18
0.17
0.27
0.22
0.22
0.30
0.33
0.35
0.29
0.40
0.56
0.55
0.63
0.63
0.59
0.45
0.59
0.49
0.29
0.34
0.33
0.22
0.17
0.24
0.38
0.37
0.23
0.20
0.00
0.02
0.05
0.15
0.16
0.20
0.23
0.23
0.19
0.20
0.23
0.19
0.19
0.19
0.14
0.14
0.15
0.15
0.10
0.05
0.05
0.10
0.15
0.15
0.14
0.10
0.10
0.03
0.00
0.00
0.03
0.03
0.03
0.00
0.03
0.05
0.05
0.00
0.00
0.03
0.03
0.03
0.03
0.03
0.03
0.00
0.00
0.02
0.03
0.03
0.05
0.05
0.03
0.02
0.02
0.00
0.00
0.00
0.00
0.00
0.00
0.02
0.03
0.03
0.03
0.03
0.05
0.05
0.14
0.14
0.05
0.00
0.00
0.00
0.03
0.03
0.05
0.03
0.00
0.03
0.14
0.16
0.16
0.16
0.16
0.10
0.00
0.00
0.03
0.03
0.03
0.03
0.00
0.00
0.00
0.00
0.02
0.03
0.14
0.34
0.40
0.43
0.57
0.53
0.49
0.62
0.79
0.81
0.83
0.82
0.86
0.85
0.81
0.56
0.20
0.38
0.24
0.27
0.27
0.18
0.17
0.24
0.24
0.17
0.27
0.18
0.18
0.22
0.22
0.22
0.24
0.27
0.38
0.36
0.27
0.27
0.27
0.24
0.27
0.24
0.24
0.24
0.22
0.17
0.22
0.17
0.17
0.22
0.17
0.22
0.33
0.40
0.53
0.45
0.45
0.49
0.35
0.29
0.33
0.27
0.18
0.22
0.22
0.38
0.37
0.31
0.09
0.00
0.02
0.10
0.14
0.19
0.41
0.46
0.45
0.48
0.49
0.45
0.45
0.46
0.43
0.34
0.23
0.20
0.19
0.16
0.16
0.16
0.15
0.14
0.10
0.14
0.15
0.10
0.05
0.10
0.16
0.15
0.14
0.03
0.02
0.00
0.03
0.05
0.05
0.03
0.03
0.05
0.05
0.02
0.02
0.05
0.05
0.03
0.03
0.02
0.02
0.00
0.03
0.02
0.00
0.03
0.02
0.00
0.00
0.02
0.03
0.03
0.03
0.02
0.00
0.00
0.00
0.00
0.00
0.02
0.00
0.00
0.00
0.03
0.03
0.03
0.03
0.05
0.03
0.09
0.09
0.02
0.02
0.05
0.05
0.15
0.16
0.05
0.00
0.09
0.15
0.00
0.00
0.00
0.00
0.00
0.00
0.03
0.02
0.00
0.05
0.37
0.34
0.41
0.58
0.60
0.58
0.60
0.78
0.80
0.82
0.83
0.85
0.91
0.83
0.71
0.03
0.37
0.38
0.27
0.22
0.17
0.17
0.17
0.17
0.17
0.22
0.22
0.27
0.30
0.27
0.17
0.18
0.18
0.22
0.22
0.18
0.17
0.22
0.22
0.18
0.17
0.22
0.17
0.17
0.18
0.22
0.31
0.33
0.35
0.34
0.34
0.53
0.55
0.53
0.59
0.63
0.63
0.72
0.72
0.59
0.55
0.29
0.33
0.31
0.24
0.34
0.40
0.31
0.23
0.00
0.00
0.03
0.10
0.16
0.23
0.40
0.41
0.40
0.19
0.15
0.16
0.16
0.16
0.19
0.15
0.14
0.14
0.10
0.10
0.03
0.03
0.05
0.03
0.03
0.03
0.05
0.05
0.03
0.00
0.00
0.03
0.02
0.03
0.03
0.03
0.03
0.02
0.00
0.00
0.02
0.03
0.05
0.02
0.00
0.00
0.00
0.00
0.00
0.00
0.00
0.00
0.00
0.02
0.03
0.00
0.15
0.09
0.00
0.03
0.03
0.00
0.15
0.09
0.00
0.00
0.00
0.09
0.09
0.00
0.00
0.00
0.00
0.00
0.00
0.00
0.03
0.14
0.16
0.14
0.00
0.09
0.09
0.15
0.09
0.09
0.09
0.09
0.00
0.09
0.15
0.00
0.09
0.05
0.40
0.30
0.41
0.58
0.66
0.60
0.64
0.78
0.80
0.82
0.83
0.87
0.88
0.82
0.67
0.02
0.39
0.36
0.22
0.17
0.22
0.18
0.18
0.17
0.30
0.31
0.27
0.18
0.27
0.27
0.22
0.17
0.17
0.17
0.17
0.17
0.22
0.18
0.22
0.24
0.17
0.17
0.22
0.27
0.22
0.17
0.22
0.31
0.29
0.27
0.29
0.34
0.53
0.59
0.68
0.72
0.75
0.68
0.53
0.33
0.29
0.33
0.30
0.17
0.24
0.38
0.39
0.31
0.15
0.02
0.05
0.05
0.05
0.15
0.27
0.43
0.41
0.43
0.40
0.34
0.19
0.20
0.15
0.19
0.20
0.20
0.19
0.19
0.15
0.15
0.10
0.03
0.03
0.10
0.05
0.03
0.02
0.00
0.02
0.03
0.05
0.05
0.05
0.03
0.00
0.00
0.00
0.02
0.00
0.03
0.02
0.00
0.00
0.00
0.09
0.09
0.02
0.02
0.00
0.00
0.00
0.00
0.02
0.03
0.00
0.00
0.00
0.00
0.00
0.00
0.03
0.00
0.00
0.00
0.00
0.00
0.00
0.00
0.00
0.00
0.00
0.02
0.03
0.02
0.02
0.00
0.00
0.00
0.02
0.03
0.10
0.16
0.15
0.05
0.03
0.09
0.15
0.09
0.00
0.00
0.09
0.00
0.00
0.09
0.15
0.23
0.09
0.23
0.27
0.40
0.58
0.66
0.60
0.60
0.75
0.80
0.84
0.84
0.84
0.94
0.84
0.78
0.16
0.38
0.18
0.17
0.18
0.17
0.22
0.17
0.22
0.31
0.22
0.27
0.31
0.30
0.30
0.31
0.22
0.18
0.27
0.27
0.31
0.27
0.30
0.31
0.33
0.27
0.27
0.17
0.31
0.33
0.35
0.29
0.35
0.34
0.55
0.59
0.63
0.56
0.68
0.75
0.68
0.56
0.59
0.63
0.59
0.45
0.34
0.40
0.35
0.27
0.24
0.27
0.34
0.37
0.09
0.00
0.00
0.03
0.10
0.14
0.16
0.16
0.23
0.19
0.14
0.14
0.10
0.10
0.15
0.05
0.10
0.05
0.03
0.00
0.03
0.05
0.03
0.05
0.05
0.02
0.00
0.00
0.02
0.02
0.00
0.00
0.03
0.03
0.02
0.00
0.02
0.00
0.00
0.00
0.00
0.00
0.02
0.02
0.03
0.03
0.03
0.09
0.02
0.00
0.03
0.03
0.09
0.00
0.00
0.00
0.03
0.03
0.02
0.02
0.02
0.00
0.03
0.03
0.00
0.00
0.00
0.00
0.02
0.02
0.00
0.00
0.02
0.03
0.05
0.05
0.05
0.03
0.03
0.02
0.03
0.03
0.15
0.16
0.15
0.03
0.00
0.02
0.00
0.02
0.00
0.03
0.03
0.00
0.03
0.02
0.00
0.02
0.34
0.43
0.34
0.46
0.60
0.64
0.56
0.66
0.80
0.81
0.84
0.83
0.94
0.84
0.79
0.57
0.35
0.34
0.22
0.22
0.18
0.24
0.22
0.22
0.17
0.22
0.18
0.22
0.22
0.34
0.18
0.27
0.22
0.27
0.27
0.34
0.18
0.22
0.18
0.22
0.24
0.36
0.24
0.17
0.24
0.22
0.18
0.17
0.22
0.17
0.17
0.31
0.33
0.35
0.29
0.33
0.34
0.33
0.33
0.34
0.29
0.22
0.17
0.18
0.24
0.38
0.37
0.38
0.35
0.09
0.02
0.05
0.16
0.19
0.27
0.37
0.45
0.45
0.45
0.45
0.46
0.46
0.45
0.43
0.34
0.27
0.19
0.16
0.16
0.19
0.23
0.27
0.19
0.27
0.16
0.10
0.05
0.05
0.10
0.05
0.03
0.03
0.05
0.03
0.02
0.03
0.05
0.05
0.03
0.02
0.00
0.02
0.03
0.00
0.03
0.03
0.02
0.02
0.02
0.03
0.02
0.00
0.00
0.00
0.00
0.00
0.00
0.00
0.00
0.02
0.02
0.02
0.00
0.15
0.00
0.00
0.03
0.00
0.20
0.09
0.00
0.00
0.09
0.00
0.02
0.00
0.09
0.00
0.00
0.02
0.15
0.23
0.15
0.03
0.00
0.20
0.15
0.15
0.15
0.00
0.20
0.20
0.15
0.00
0.00
0.00
0.15
0.03
0.27
0.40
0.43
0.57
0.60
0.57
0.68
0.80
0.81
0.84
0.83
0.87
0.83
0.81
0.41
0.35
0.34
0.24
0.22
0.22
0.27
0.27
0.27
0.27
0.30
0.30
0.27
0.27
0.24
0.24
0.17
0.30
0.30
0.22
0.17
0.17
0.17
0.22
0.18
0.18
0.22
0.17
0.22
0.18
0.18
0.27
0.33
0.29
0.29
0.29
0.45
0.53
0.49
0.56
0.56
0.45
0.45
0.49
0.53
0.33
0.31
0.30
0.17
0.22
0.34
0.40
0.39
0.31
0.15
0.09
0.00
0.05
0.16
0.20
0.27
0.30
0.23
0.27
0.37
0.43
0.40
0.19
0.16
0.16
0.20
0.19
0.19
0.20
0.20
0.20
0.16
0.14
0.20
0.20
0.19
0.16
0.15
0.14
0.14
0.03
0.02
0.03
0.03
0.03
0.02
0.00
0.00
0.00
0.02
0.02
0.03
0.02
0.02
0.02
0.00
0.00
0.00
0.02
0.03
0.02
0.00
0.00
0.00
0.02
0.03
0.02
0.00
0.03
0.00
0.09
0.00
0.00
0.00
0.00
0.00
0.00
0.00
0.02
0.00
0.00
0.02
0.02
0.00
0.00
0.00
0.00
0.00
0.00
0.02
0.03
0.10
0.16
0.20
0.14
0.00
0.00
0.09
0.15
0.09
0.20
0.20
0.20
0.23
0.20
0.20
0.15
0.00
0.19
0.41
0.40
0.56
0.60
0.60
0.50
0.68
0.80
0.81
0.85
0.84
0.88
0.88
0.81
0.41
0.20
0.38
0.22
0.17
0.17
0.17
0.17
0.22
0.17
0.17
0.17
0.17
0.17
0.22
0.22
0.18
0.24
0.27
0.27
0.17
0.22
0.27
0.18
0.18
0.18
0.22
0.22
0.18
0.22
0.18
0.18
0.30
0.30
0.30
0.27
0.35
0.45
0.56
0.56
0.40
0.55
0.59
0.53
0.40
0.35
0.29
0.27
0.24
0.38
0.38
0.38
0.23
0.09
0.00
0.00
0.05
0.15
0.16
0.19
0.34
0.41
0.43
0.45
0.41
0.45
0.43
0.37
0.20
0.20
0.20
0.14
0.10
0.15
0.10
0.10
0.03
0.03
0.05
0.15
0.05
0.02
0.03
0.10
0.14
0.05
0.05
0.10
0.03
0.02
0.00
0.00
0.00
0.00
0.02
0.02
0.03
0.03
0.02
0.03
0.03
0.03
0.03
0.00
0.00
0.00
0.00
0.03
0.02
0.09
0.00
0.02
0.02
0.02
0.03
0.00
0.00
0.02
0.00
0.00
0.00
0.00
0.02
0.00
0.15
0.00
0.03
0.03
0.00
0.00
0.00
0.00
0.09
0.09
0.00
0.03
0.14
0.14
0.10
0.05
0.03
0.00
0.00
0.09
0.00
0.00
0.09
0.23
0.15
0.20
0.20
0.23
0.15
0.03
0.27
0.40
0.30
0.53
0.58
0.56
0.56
0.74
0.79
0.83
0.84
0.84
0.96
0.81
0.70
0.03
0.40
0.22
0.22
0.18
0.24
0.17
0.31
0.27
0.22
0.22
0.22
0.22
0.27
0.22
0.18
0.17
0.27
0.22
0.17
0.22
0.27
0.17
0.17
0.17
0.17
0.22
0.18
0.17
0.17
0.17
0.35
0.35
0.34
0.34
0.34
0.56
0.59
0.55
0.63
0.56
0.55
0.55
0.56
0.45
0.49
0.40
0.29
0.30
0.17
0.34
0.38
0.37
0.23
0.00
0.00
0.02
0.05
0.15
0.16
0.16
0.19
0.19
0.19
0.19
0.15
0.10
0.14
0.20
0.19
0.15
0.14
0.05
0.05
0.05
0.10
0.10
0.10
0.14
0.10
0.10
0.14
0.03
0.03
0.03
0.03
0.03
0.05
0.03
0.02
0.00
0.00
0.00
0.02
0.03
0.05
0.03
0.02
0.00
0.00
0.00
0.00
0.02
0.02
0.00
0.00
0.02
0.02
0.00
0.00
0.00
0.00
0.09
0.00
0.00
0.09
0.00
0.03
0.00
0.00
0.02
0.00
0.00
0.15
0.09
0.09
0.00
0.00
0.00
0.00
0.02
0.03
0.00
0.00
0.02
0.02
0.03
0.05
0.05
0.14
0.10
0.02
0.00
0.00
0.00
0.00
0.00
0.00
0.00
0.02
0.05
0.05
0.15
0.00
0.16
0.45
0.46
0.50
0.57
0.56
0.50
0.72
0.80
0.83
0.85
0.88
0.96
0.83
0.80
0.23
0.37
0.36
0.24
0.17
0.27
0.22
0.18
0.18
0.22
0.27
0.24
0.18
0.18
0.22
0.22
0.17
0.17
0.18
0.17
0.18
0.18
0.18
0.22
0.24
0.24
0.24
0.27
0.18
0.22
0.34
0.27
0.29
0.29
0.29
0.35
0.34
0.40
0.29
0.33
0.35
0.35
0.29
0.34
0.40
0.29
0.30
0.22
0.36
0.40
0.38
0.39
0.37
0.23
0.00
0.03
0.10
0.15
0.19
0.27
0.37
0.41
0.40
0.34
0.41
0.41
0.37
0.43
0.40
0.27
0.40
0.27
0.30
0.34
0.40
0.16
0.14
0.15
0.14
0.03
0.03
0.10
0.14
0.05
0.03
0.03
0.03
0.03
0.05
0.03
0.03
0.05
0.02
0.00
0.02
0.03
0.02
0.03
0.03
0.03
0.03
0.03
0.03
0.03
0.03
0.03
0.02
0.00
0.00
0.03
0.03
0.00
0.00
0.03
0.00
0.00
0.00
0.00
0.03
0.03
0.02
0.02
0.03
0.03
0.00
0.03
0.02
0.03
0.03
0.02
0.00
0.00
0.03
0.02
0.03
0.10
0.15
0.16
0.19
0.14
0.02
0.00
0.00
0.00
0.00
0.02
0.00
0.09
0.00
0.02
0.02
0.00
0.03
0.30
0.45
0.50
0.62
0.67
0.60
0.62
0.79
0.79
0.82
0.83
0.93
1.00
0.83
0.67
0.03
0.38
0.36
0.24
0.27
0.22
0.18
0.17
0.24
0.36
0.27
0.22
0.18
0.17
0.17
0.18
0.24
0.27
0.24
0.17
0.18
0.22
0.24
0.24
0.22
0.27
0.27
0.22
0.22
0.22
0.17
0.22
0.22
0.22
0.29
0.34
0.34
0.35
0.35
0.53
0.59
0.63
0.63
0.59
0.55
0.56
0.49
0.35
0.30
0.24
0.40
0.37
0.23
0.09
0.00
0.03
0.10
0.16
0.20
0.16
0.16
0.20
0.27
0.27
0.15
0.10
0.15
0.16
0.10
0.10
0.20
0.16
0.10
0.05
0.05
0.05
0.05
0.05
0.05
0.10
0.05
0.05
0.05
0.10
0.03
0.03
0.10
0.03
0.03
0.02
0.00
0.03
0.03
0.03
0.05
0.03
0.03
0.02
0.00
0.00
0.03
0.02
0.03
0.05
0.03
0.00
0.00
0.00
0.02
0.03
0.02
0.00
0.00
0.00
0.02
0.03
0.02
0.03
0.00
0.00
0.00
0.00
0.00
0.00
0.00
0.00
0.00
0.00
0.00
0.02
0.00
0.00
0.00
0.02
0.00
0.03
0.10
0.15
0.19
0.15
0.03
0.03
0.00
0.00
0.00
0.00
0.00
0.00
0.09
0.09
0.02
0.00
0.00
0.10
0.34
0.41
0.56
0.66
0.67
0.58
0.70
0.79
0.83
0.84
0.86
0.94
0.98
0.81
0.34
0.15
0.38
0.27
0.22
0.18
0.17
0.17
0.24
0.27
0.22
0.17
0.22
0.17
0.22
0.27
0.24
0.22
0.22
0.22
0.22
0.22
0.17
0.18
0.22
0.24
0.22
0.18
0.27
0.27
0.22
0.17
0.22
0.29
0.33
0.30
0.34
0.49
0.55
0.59
0.63
0.63
0.63
0.63
0.63
0.49
0.40
0.34
0.30
0.18
0.24
0.27
0.34
0.37
0.09
0.00
0.03
0.10
0.14
0.19
0.20
0.23
0.27
0.27
0.30
0.20
0.19
0.19
0.19
0.19
0.19
0.19
0.14
0.14
0.16
0.15
0.10
0.10
0.10
0.16
0.15
0.03
0.14
0.15
0.10
0.03
0.05
0.03
0.03
0.03
0.03
0.03
0.03
0.05
0.05
0.03
0.03
0.03
0.03
0.03
0.03
0.03
0.03
0.03
0.00
0.00
0.02
0.03
0.03
0.02
0.02
0.02
0.03
0.00
0.00
0.00
0.00
0.00
0.00
0.00
0.15
0.09
0.00
0.00
0.00
0.00
0.09
0.15
0.00
0.00
0.09
0.20
0.20
0.15
0.15
0.00
0.00
0.02
0.03
0.03
0.03
0.00
0.20
0.20
0.20
0.23
0.23
0.20
0.20
0.20
0.20
0.23
0.20
0.09
0.03
0.23
0.23
0.40
0.57
0.53
0.49
0.64
0.80
0.79
0.82
0.82
0.84
0.91
0.80
0.34
0.39
0.24
0.22
0.18
0.31
0.29
0.29
0.29
0.33
0.29
0.27
0.22
0.30
0.30
0.22
0.17
0.22
0.22
0.18
0.22
0.31
0.27
0.17
0.17
0.17
0.27
0.22
0.17
0.22
0.29
0.29
0.29
0.29
0.34
0.49
0.49
0.55
0.72
0.68
0.68
0.75
0.75
0.75
0.68
0.59
0.59
0.34
0.30
0.22
0.17
0.38
0.38
0.38
0.37
0.20
0.15
0.02
0.10
0.15
0.10
0.15
0.20
0.27
0.20
0.16
0.16
0.16
0.16
0.16
0.15
0.10
0.03
0.10
0.15
0.14
0.05
0.10
0.05
0.03
0.03
0.10
0.03
0.03
0.05
0.05
0.05
0.05
0.00
0.03
0.03
0.03
0.00
0.00
0.05
0.03
0.02
0.02
0.03
0.05
0.10
0.05
0.03
0.02
0.00
0.00
0.00
0.00
0.02
0.03
0.00
0.00
0.00
0.00
0.00
0.00
0.00
0.00
0.00
0.00
0.00
0.00
0.00
0.02
0.00
0.00
0.00
0.00
0.00
0.00
0.03
0.03
0.00
0.15
0.00
0.02
0.00
0.00
0.03
0.05
0.05
0.05
0.02
0.00
0.09
0.09
0.02
0.00
0.15
0.20
0.15
0.00
0.00
0.00
0.00
0.10
0.23
0.27
0.45
0.64
0.66
0.58
0.67
0.79
0.81
0.83
0.83
0.93
0.96
0.81
0.34
0.15
0.38
0.27
0.27
0.31
0.17
0.17
0.22
0.24
0.18
0.17
0.17
0.17
0.22
0.18
0.22
0.24
0.22
0.18
0.22
0.36
0.36
0.22
0.18
0.17
0.27
0.17
0.17
0.17
0.30
0.29
0.33
0.22
0.29
0.34
0.34
0.55
0.63
0.63
0.59
0.40
0.59
0.59
0.59
0.55
0.34
0.22
0.24
0.38
0.34
0.27
0.38
0.31
0.00
0.00
0.00
0.03
0.10
0.19
0.20
0.27
0.40
0.37
0.20
0.19
0.19
0.20
0.23
0.23
0.19
0.15
0.15
0.16
0.10
0.05
0.15
0.14
0.14
0.19
0.19
0.05
0.05
0.10
0.15
0.05
0.05
0.05
0.10
0.05
0.05
0.03
0.14
0.03
0.03
0.05
0.02
0.00
0.00
0.00
0.00
0.00
0.00
0.00
0.00
0.00
0.02
0.02
0.00
0.00
0.00
0.03
0.03
0.00
0.09
0.15
0.00
0.00
0.00
0.00
0.00
0.00
0.00
0.00
0.00
0.00
0.00
0.00
0.03
0.09
0.00
0.02
0.02
0.10
0.14
0.00
0.00
0.00
0.15
0.20
0.15
0.15
0.09
0.00
0.00
0.00
0.00
0.00
0.03
0.20
0.40
0.46
0.56
0.58
0.56
0.58
0.75
0.80
0.83
0.84
0.86
0.87
0.84
0.78
0.14
0.39
0.18
0.22
0.29
0.31
0.22
0.18
0.17
0.17
0.17
0.17
0.18
0.24
0.30
0.29
0.29
0.22
0.22
0.17
0.18
0.18
0.18
0.17
0.17
0.27
0.22
0.22
0.30
0.27
0.22
0.27
0.29
0.29
0.33
0.40
0.55
0.56
0.59
0.56
0.45
0.35
0.34
0.55
0.53
0.35
0.29
0.31
0.18
0.22
0.38
0.39
0.39
0.37
0.00
0.03
0.05
0.16
0.27
0.23
0.40
0.30
0.30
0.40
0.40
0.30
0.27
0.37
0.30
0.19
0.15
0.15
0.16
0.20
0.19
0.16
0.16
0.16
0.16
0.15
0.05
0.05
0.10
0.14
0.15
0.03
0.10
0.05
0.05
0.10
0.05
0.05
0.14
0.03
0.00
0.00
0.00
0.00
0.00
0.03
0.00
0.00
0.00
0.00
0.00
0.03
0.00
0.00
0.00
0.00
0.00
0.00
0.00
0.00
0.02
0.00
0.00
0.00
0.00
0.00
0.00
0.00
0.00
0.00
0.00
0.00
0.00
0.00
0.00
0.00
0.00
0.02
0.00
0.00
0.00
0.03
0.05
0.05
0.03
0.00
0.20
0.23
0.20
0.00
0.00
0.00
0.09
0.23
0.20
0.00
0.00
0.03
0.19
0.34
0.37
0.48
0.58
0.57
0.58
0.74
0.80
0.83
0.84
0.84
0.88
0.84
0.74
0.02
0.36
0.18
0.22
0.22
0.29
0.31
0.30
0.29
0.34
0.31
0.30
0.31
0.29
0.29
0.27
0.33
0.29
0.30
0.22
0.31
0.29
0.30
0.22
0.27
0.33
0.33
0.29
0.29
0.33
0.31
0.31
0.33
0.33
0.31
0.29
0.45
0.59
0.59
0.56
0.53
0.55
0.75
0.68
0.63
0.59
0.55
0.33
0.22
0.27
0.34
0.38
0.39
0.38
0.00
0.00
0.00
0.10
0.15
0.14
0.14
0.20
0.23
0.23
0.23
0.23
0.20
0.16
0.16
0.14
0.05
0.10
0.15
0.14
0.05
0.03
0.03
0.03
0.05
0.14
0.05
0.03
0.02
0.02
0.03
0.03
0.03
0.02
0.02
0.03
0.03
0.00
0.00
0.00
0.00
0.00
0.05
0.00
0.09
0.00
0.00
0.02
0.02
0.00
0.00
0.09
0.02
0.00
0.00
0.00
0.00
0.00
0.00
0.09
0.00
0.00
0.00
0.00
0.00
0.09
0.20
0.20
0.20
0.15
0.00
0.00
0.20
0.15
0.00
0.09
0.00
0.00
0.00
0.00
0.03
0.03
0.03
0.05
0.05
0.03
0.15
0.23
0.20
0.15
0.00
0.00
0.02
0.20
0.23
0.00
0.15
0.09
0.20
0.40
0.41
0.49
0.58
0.57
0.58
0.70
0.80
0.82
0.84
0.83
0.88
0.83
0.79
0.34
0.38
0.24
0.22
0.17
0.18
0.17
0.29
0.33
0.29
0.31
0.27
0.27
0.30
0.27
0.22
0.22
0.22
0.27
0.27
0.27
0.27
0.22
0.22
0.18
0.22
0.34
0.36
0.24
0.24
0.24
0.24
0.22
0.30
0.29
0.29
0.35
0.45
0.45
0.35
0.34
0.59
0.59
0.49
0.34
0.49
0.56
0.35
0.27
0.22
0.24
0.34
0.39
0.15
0.15
0.09
0.02
0.05
0.10
0.16
0.16
0.15
0.37
0.34
0.23
0.30
0.23
0.30
0.23
0.20
0.15
0.15
0.14
0.16
0.16
0.16
0.15
0.14
0.15
0.15
0.10
0.14
0.19
0.15
0.10
0.10
0.14
0.10
0.05
0.05
0.05
0.14
0.14
0.15
0.10
0.14
0.10
0.03
0.14
0.10
0.05
0.03
0.14
0.15
0.16
0.15
0.15
0.14
0.05
0.15
0.14
0.10
0.14
0.05
0.05
0.14
0.14
0.14
0.14
0.14
0.16
0.20
0.16
0.05
0.05
0.14
0.14
0.10
0.10
0.10
0.15
0.10
0.15
0.20
0.15
0.15
0.15
0.19
0.37
0.41
0.02
0.03
0.05
0.05
0.03
0.10
0.15
0.05
0.00
0.00
0.03
0.10
0.03
0.34
0.49
0.40
0.49
0.60
0.58
0.58
0.71
0.79
0.82
0.84
0.84
0.96
0.84
0.79
0.58
0.15
0.39
0.36
0.18
0.22
0.22
0.24
0.34
0.27
0.22
0.24
0.24
0.18
0.27
0.27
0.17
0.18
0.18
0.24
0.22
0.24
0.18
0.38
0.27
0.22
0.24
0.17
0.31
0.27
0.22
0.18
0.22
0.22
0.30
0.33
0.35
0.35
0.45
0.59
0.75
0.68
0.55
0.59
0.53
0.33
0.27
0.22
0.17
0.22
0.36
0.39
0.39
0.38
0.00
0.03
0.14
0.14
0.19
0.19
0.23
0.19
0.34
0.45
0.45
0.41
0.30
0.16
0.16
0.19
0.27
0.40
0.27
0.20
0.20
0.19
0.19
0.10
0.03
0.10
0.10
0.10
0.10
0.10
0.03
0.03
0.03
0.03
0.00
0.00
0.03
0.03
0.03
0.15
0.15
0.02
0.00
0.09
0.00
0.00
0.00
0.00
0.00
0.03
0.03
0.03
0.15
0.15
0.02
0.03
0.00
0.00
0.09
0.05
0.00
0.20
0.31
0.09
0.00
0.02
0.03
0.02
0.23
0.20
0.00
0.00
0.09
0.09
0.02
0.03
0.09
0.20
0.15
0.00
0.15
0.00
0.03
0.14
0.10
0.00
0.09
0.09
0.31
0.37
0.31
0.23
0.20
0.15
0.31
0.31
0.00
0.15
0.00
0.19
0.40
0.46
0.49
0.57
0.57
0.66
0.78
0.80
0.82
0.82
0.93
0.84
0.81
0.57
0.23
0.38
0.17
0.33
0.35
0.30
0.22
0.29
0.30
0.17
0.22
0.22
0.31
0.27
0.33
0.29
0.31
0.22
0.17
0.18
0.18
0.34
0.18
0.22
0.17
0.24
0.30
0.33
0.29
0.30
0.17
0.27
0.34
0.40
0.33
0.29
0.30
0.40
0.63
0.68
0.63
0.56
0.56
0.59
0.53
0.35
0.29
0.30
0.18
0.34
0.39
0.39
0.37
0.35
0.15
0.00
0.02
0.15
0.16
0.20
0.40
0.40
0.23
0.23
0.20
0.20
0.16
0.16
0.15
0.23
0.19
0.19
0.16
0.15
0.05
0.02
0.00
0.00
0.05
0.15
0.14
0.15
0.10
0.03
0.03
0.05
0.05
0.02
0.00
0.00
0.02
0.03
0.10
0.14
0.03
0.00
0.09
0.02
0.16
0.10
0.00
0.00
0.05
0.03
0.02
0.02
0.02
0.03
0.03
0.00
0.00
0.03
0.05
0.14
0.10
0.02
0.02
0.05
0.03
0.09
0.00
0.02
0.02
0.00
0.02
0.03
0.10
0.03
0.00
0.00
0.00
0.05
0.05
0.03
0.14
0.19
0.14
0.05
0.03
0.03
0.00
0.00
0.03
0.00
0.00
0.23
0.15
0.02
0.02
0.02
0.14
0.16
0.30
0.45
0.53
0.56
0.50
0.60
0.72
0.79
0.83
0.84
0.83
0.97
0.83
0.74
0.03
0.40
0.24
0.27
0.29
0.29
0.29
0.29
0.34
0.45
0.35
0.29
0.29
0.29
0.30
0.17
0.17
0.29
0.40
0.45
0.30
0.31
0.22
0.24
0.24
0.17
0.27
0.56
0.40
0.40
0.35
0.29
0.33
0.30
0.27
0.34
0.27
0.56
0.59
0.63
0.75
0.63
0.59
0.53
0.53
0.34
0.31
0.17
0.24
0.18
0.17
0.24
0.40
0.37
0.20
0.00
0.03
0.10
0.10
0.15
0.05
0.05
0.16
0.30
0.41
0.16
0.05
0.05
0.14
0.05
0.03
0.16
0.15
0.14
0.03
0.03
0.03
0.03
0.03
0.03
0.34
0.14
0.09
0.00
0.02
0.10
0.03
0.00
0.00
0.03
0.19
0.19
0.03
0.09
0.15
0.02
0.02
0.03
0.05
0.05
0.03
0.00
0.00
0.03
0.00
0.02
0.09
0.09
0.00
0.02
0.15
0.15
0.03
0.03
0.02
0.09
0.00
0.09
0.02
0.00
0.00
0.02
0.10
0.10
0.05
0.05
0.00
0.23
0.20
0.00
0.03
0.02
0.03
0.05
0.02
0.03
0.19
0.20
0.10
0.00
0.15
0.09
0.03
0.00
0.02
0.05
0.03
0.00
0.00
0.15
0.09
0.05
0.46
0.46
0.48
0.56
0.58
0.50
0.60
0.79
0.80
0.83
0.84
0.84
0.95
0.82
0.68
0.03
0.39
0.38
0.27
0.17
0.31
0.33
0.31
0.17
0.17
0.18
0.27
0.38
0.24
0.29
0.33
0.22
0.34
0.17
0.17
0.27
0.22
0.17
0.18
0.34
0.24
0.24
0.34
0.36
0.33
0.29
0.17
0.36
0.24
0.24
0.33
0.30
0.22
0.31
0.29
0.29
0.45
0.59
0.45
0.35
0.29
0.33
0.30
0.24
0.38
0.39
0.35
0.15
0.00
0.00
0.02
0.03
0.10
0.20
0.34
0.40
0.41
0.46
0.40
0.16
0.20
0.41
0.34
0.30
0.19
0.10
0.10
0.02
0.14
0.34
0.20
0.05
0.02
0.02
0.14
0.20
0.16
0.10
0.03
0.00
0.02
0.05
0.15
0.16
0.15
0.05
0.03
0.14
0.15
0.03
0.00
0.00
0.05
0.15
0.15
0.05
0.10
0.16
0.15
0.03
0.03
0.14
0.16
0.09
0.20
0.00
0.10
0.15
0.15
0.15
0.10
0.00
0.02
0.00
0.03
0.14
0.19
0.14
0.03
0.10
0.00
0.09
0.00
0.00
0.00
0.03
0.20
0.27
0.15
0.20
0.19
0.03
0.00
0.00
0.09
0.20
0.03
0.10
0.02
0.31
0.20
0.15
0.00
0.03
0.02
0.03
0.23
0.40
0.37
0.60
0.60
0.58
0.50
0.70
0.80
0.83
0.85
0.85
0.98
0.83
0.80
0.37
0.23
0.39
0.27
0.18
0.18
0.17
0.18
0.27
0.36
0.34
0.18
0.31
0.33
0.17
0.22
0.17
0.27
0.24
0.38
0.38
0.38
0.24
0.17
0.22
0.31
0.22
0.34
0.30
0.35
0.31
0.17
0.18
0.38
0.45
0.59
0.63
0.40
0.40
0.29
0.29
0.63
0.68
0.49
0.55
0.45
0.22
0.18
0.22
0.27
0.38
0.23
0.15
0.23
0.09
0.03
0.03
0.10
0.10
0.14
0.23
0.30
0.37
0.45
0.40
0.41
0.41
0.30
0.19
0.03
0.03
0.23
0.40
0.10
0.10
0.10
0.14
0.15
0.16
0.00
0.03
0.16
0.05
0.02
0.00
0.00
0.09
0.15
0.00
0.03
0.15
0.15
0.03
0.00
0.09
0.20
0.00
0.00
0.00
0.00
0.00
0.05
0.10
0.03
0.15
0.03
0.23
0.15
0.00
0.09
0.15
0.15
0.00
0.00
0.00
0.03
0.00
0.02
0.05
0.03
0.00
0.00
0.15
0.20
0.00
0.00
0.03
0.03
0.00
0.00
0.03
0.05
0.14
0.10
0.10
0.03
0.00
0.00
0.00
0.00
0.03
0.10
0.00
0.15
0.09
0.09
0.23
0.15
0.00
0.05
0.16
0.27
0.37
0.53
0.60
0.58
0.58
0.75
0.80
0.83
0.85
0.85
1.00
0.91
0.80
0.16
0.35
0.35
0.31
0.40
0.18
0.22
0.18
0.38
0.37
0.38
0.24
0.27
0.18
0.39
0.35
0.34
0.30
0.27
0.27
0.24
0.27
0.18
0.34
0.39
0.37
0.38
0.39
0.38
0.38
0.34
0.27
0.27
0.27
0.29
0.29
0.31
0.17
0.22
0.35
0.34
0.29
0.35
0.35
0.17
0.34
0.53
0.31
0.22
0.22
0.38
0.37
0.20
0.09
0.10
0.15
0.16
0.20
0.30
0.30
0.15
0.19
0.37
0.19
0.05
0.27
0.41
0.45
0.37
0.03
0.00
0.03
0.19
0.20
0.05
0.05
0.16
0.14
0.00
0.03
0.15
0.05
0.00
0.19
0.15
0.15
0.20
0.20
0.00
0.15
0.31
0.09
0.03
0.16
0.10
0.05
0.14
0.10
0.15
0.05
0.15
0.15
0.03
0.15
0.10
0.02
0.00
0.00
0.05
0.15
0.02
0.02
0.05
0.02
0.23
0.20
0.00
0.14
0.19
0.03
0.10
0.03
0.23
0.37
0.00
0.00
0.02
0.10
0.40
0.05
0.37
0.00
0.10
0.10
0.10
0.05
0.10
0.03
0.02
0.09
0.00
0.03
0.02
0.15
0.35
0.31
0.09
0.00
0.09
0.03
0.16
0.23
0.40
0.43
0.49
0.49
0.41
0.62
0.80
0.80
0.82
0.83
0.98
0.98
0.82
0.71
0.05
0.23
0.40
0.40
0.27
0.35
0.17
0.35
0.34
0.17
0.22
0.24
0.27
0.38
0.38
0.38
0.27
0.27
0.33
0.30
0.17
0.22
0.31
0.18
0.38
0.40
0.37
0.39
0.22
0.35
0.31
0.27
0.39
0.17
0.59
0.68
0.59
0.45
0.31
0.22
0.22
0.22
0.72
0.83
0.75
0.59
0.35
0.22
0.27
0.38
0.38
0.20
0.31
0.38
0.35
0.03
0.40
0.37
0.16
0.03
0.03
0.16
0.27
0.20
0.15
0.16
0.34
0.34
0.10
0.03
0.15
0.23
0.27
0.37
0.10
0.00
0.00
0.00
0.03
0.00
0.03
0.03
0.15
0.16
0.19
0.34
0.00
0.15
0.00
0.05
0.10
0.15
0.02
0.00
0.00
0.09
0.05
0.03
0.00
0.00
0.03
0.03
0.10
0.10
0.19
0.15
0.20
0.31
0.09
0.00
0.02
0.00
0.00
0.02
0.05
0.03
0.15
0.02
0.19
0.15
0.10
0.09
0.03
0.09
0.38
0.20
0.03
0.03
0.00
0.14
0.00
0.38
0.09
0.02
0.10
0.19
0.16
0.00
0.23
0.15
0.00
0.03
0.10
0.14
0.03
0.03
0.05
0.09
0.37
0.37
0.02
0.19
0.40
0.53
0.57
0.46
0.53
0.60
0.77
0.80
0.83
0.83
0.91
0.98
0.82
0.62
0.23
0.23
0.37
0.40
0.22
0.22
0.18
0.24
0.22
0.34
0.29
0.22
0.22
0.36
0.39
0.40
0.18
0.22
0.36
0.36
0.27
0.22
0.29
0.45
0.31
0.27
0.24
0.22
0.22
0.40
0.38
0.30
0.63
0.56
0.34
0.35
0.35
0.45
0.56
0.59
0.34
0.55
0.68
0.63
0.68
0.33
0.80
0.84
0.40
0.24
0.18
0.38
0.39
0.20
0.37
0.38
0.35
0.09
0.00
0.02
0.03
0.02
0.10
0.16
0.16
0.19
0.16
0.20
0.40
0.16
0.37
0.39
0.35
0.23
0.00
0.05
0.03
0.00
0.00
0.02
0.00
0.31
0.39
0.38
0.09
0.00
0.05
0.41
0.20
0.34
0.37
0.38
0.31
0.00
0.09
0.02
0.00
0.23
0.00
0.23
0.39
0.38
0.38
0.39
0.20
0.00
0.31
0.23
0.20
0.23
0.23
0.00
0.02
0.09
0.23
0.37
0.40
0.38
0.00
0.10
0.02
0.31
0.02
0.02
0.39
0.38
0.35
0.09
0.37
0.31
0.20
0.03
0.19
0.37
0.00
0.00
0.03
0.15
0.37
0.03
0.03
0.31
0.38
0.20
0.00
0.31
0.39
0.20
0.02
0.15
0.40
0.45
0.30
0.19
0.41
0.50
0.56
0.68
0.80
0.82
0.84
0.94
0.96
0.84
0.79
0.03
0.38
0.27
0.17
0.17
0.22
0.45
0.30
0.35
0.17
0.22
0.68
0.59
0.22
0.22
0.31
0.22
0.31
0.35
0.30
0.30
0.31
0.22
0.22
0.17
0.45
0.59
0.40
0.30
0.18
0.40
0.38
0.24
0.22
0.56
0.68
0.56
0.49
0.40
0.35
0.29
0.35
0.83
0.85
0.84
0.35
0.22
0.34
0.27
0.33
0.38
0.15
0.39
0.38
0.27
0.35
0.00
0.03
0.00
0.03
0.40
0.46
0.41
0.16
0.00
0.15
0.03
0.10
0.03
0.03
0.16
0.40
0.40
0.40
0.23
0.37
0.34
0.38
0.03
0.14
0.03
0.03
0.14
0.10
0.05
0.00
0.15
0.09
0.00
0.03
0.03
0.23
0.31
0.09
0.09
0.23
0.20
0.03
0.20
0.03
0.05
0.20
0.23
0.09
0.03
0.03
0.20
0.39
0.35
0.14
0.00
0.20
0.37
0.38
0.38
0.23
0.00
0.15
0.15
0.03
0.10
0.02
0.02
0.23
0.39
0.23
0.00
0.09
0.20
0.37
0.31
0.03
0.19
0.43
0.16
0.23
0.37
0.03
0.35
0.40
0.40
0.23
0.37
0.38
0.15
0.02
0.15
0.34
0.34
0.20
0.14
0.49
0.57
0.49
0.40
0.62
0.79
0.80
0.83
0.83
0.86
0.83
0.81
0.60
0.31
0.22
0.29
0.45
0.31
0.27
0.38
0.22
0.40
0.59
0.68
0.55
0.31
0.39
0.38
0.22
0.38
0.37
0.27
0.35
0.55
0.27
0.17
0.38
0.38
0.38
0.22
0.27
0.18
0.22
0.18
0.38
0.22
0.59
0.83
0.68
0.35
0.18
0.22
0.17
0.35
0.72
0.83
0.84
0.84
0.56
0.35
0.35
0.17
0.27
0.37
0.00
0.31
0.31
0.38
0.36
0.39
0.00
0.30
0.30
0.27
0.16
0.41
0.46
0.20
0.02
0.14
0.16
0.05
0.05
0.34
0.23
0.00
0.20
0.03
0.00
0.02
0.03
0.00
0.03
0.10
0.14
0.03
0.23
0.37
0.09
0.14
0.10
0.02
0.09
0.02
0.10
0.15
0.37
0.15
0.35
0.39
0.20
0.10
0.05
0.14
0.03
0.05
0.05
0.00
0.40
0.34
0.23
0.05
0.03
0.09
0.00
0.00
0.09
0.23
0.00
0.09
0.39
0.39
0.02
0.14
0.31
0.38
0.37
0.35
0.03
0.40
0.40
0.02
0.20
0.02
0.14
0.05
0.31
0.31
0.35
0.00
0.23
0.38
0.38
0.38
0.35
0.05
0.27
0.19
0.15
0.23
0.57
0.53
0.53
0.72
0.79
0.80
0.83
0.83
0.84
0.99
0.82
0.67
0.03
0.38
0.38
0.22
0.22
0.22
0.27
0.24
0.27
0.31
0.33
0.27
0.17
0.27
0.30
0.17
0.34
0.39
0.31
0.38
0.40
0.35
0.34
0.39
0.30
0.35
0.18
0.27
0.22
0.38
0.38
0.27
0.34
0.59
0.34
0.27
0.18
0.27
0.30
0.29
0.33
0.40
0.59
0.68
0.49
0.34
0.33
0.18
0.18
0.22
0.38
0.39
0.31
0.00
0.15
0.20
0.03
0.00
0.03
0.14
0.15
0.23
0.30
0.27
0.27
0.34
0.30
0.23
0.14
0.14
0.43
0.14
0.03
0.31
0.23
0.14
0.41
0.40
0.20
0.10
0.00
0.03
0.16
0.41
0.15
0.23
0.23
0.03
0.19
0.14
0.14
0.19
0.15
0.14
0.05
0.03
0.03
0.03
0.00
0.03
0.14
0.15
0.27
0.19
0.05
0.10
0.03
0.19
0.20
0.00
0.09
0.20
0.15
0.05
0.20
0.20
0.20
0.10
0.14
0.30
0.34
0.03
0.02
0.02
0.10
0.05
0.03
0.03
0.14
0.16
0.19
0.19
0.05
0.10
0.20
0.41
0.40
0.15
0.02
0.03
0.10
0.10
0.15
0.15
0.16
0.14
0.00
0.09
0.00
0.03
0.20
0.50
0.58
0.49
0.57
0.57
0.56
0.60
0.78
0.79
0.84
0.85
0.86
0.96
0.83
0.67
0.10
0.23
0.40
0.34
0.18
0.22
0.18
0.22
0.18
0.22
0.18
0.27
0.40
0.37
0.40
0.24
0.34
0.34
0.22
0.34
0.38
0.38
0.36
0.40
0.37
0.27
0.22
0.39
0.39
0.22
0.27
0.18
0.38
0.37
0.36
0.31
0.33
0.29
0.45
0.35
0.29
0.34
0.40
0.35
0.30
0.38
0.34
0.27
0.27
0.34
0.38
0.37
0.23
0.00
0.03
0.03
0.00
0.02
0.14
0.41
0.49
0.46
0.41
0.40
0.40
0.41
0.27
0.15
0.20
0.27
0.19
0.19
0.16
0.16
0.16
0.20
0.30
0.41
0.23
0.20
0.19
0.15
0.05
0.03
0.10
0.20
0.34
0.49
0.40
0.15
0.03
0.03
0.15
0.40
0.37
0.16
0.15
0.14
0.10
0.05
0.03
0.03
0.05
0.16
0.30
0.27
0.16
0.16
0.19
0.16
0.15
0.27
0.34
0.02
0.03
0.03
0.30
0.41
0.14
0.03
0.03
0.19
0.20
0.03
0.03
0.20
0.41
0.37
0.14
0.10
0.00
0.19
0.43
0.48
0.40
0.20
0.05
0.02
0.03
0.05
0.10
0.14
0.19
0.16
0.03
0.00
0.02
0.00
0.00
0.05
0.40
0.57
0.58
0.58
0.56
0.56
0.67
0.78
0.80
0.82
0.84
0.88
1.00
0.83
0.75
0.05
0.38
0.27
0.24
0.34
0.34
0.36
0.40
0.40
0.38
0.38
0.27
0.27
0.34
0.36
0.27
0.36
0.38
0.34
0.38
0.38
0.38
0.36
0.22
0.24
0.38
0.37
0.37
0.37
0.38
0.17
0.30
0.18
0.18
0.17
0.22
0.40
0.34
0.35
0.33
0.17
0.22
0.31
0.29
0.29
0.35
0.34
0.22
0.27
0.38
0.37
0.15
0.09
0.00
0.02
0.15
0.37
0.27
0.14
0.14
0.16
0.30
0.34
0.37
0.41
0.37
0.34
0.41
0.41
0.20
0.15
0.19
0.20
0.30
0.23
0.20
0.20
0.40
0.16
0.14
0.16
0.16
0.16
0.15
0.15
0.15
0.16
0.19
0.20
0.19
0.19
0.10
0.05
0.10
0.05
0.05
0.15
0.14
0.15
0.20
0.19
0.14
0.15
0.16
0.19
0.20
0.15
0.14
0.16
0.19
0.15
0.15
0.14
0.03
0.05
0.10
0.15
0.20
0.34
0.19
0.16
0.16
0.19
0.16
0.00
0.00
0.05
0.19
0.16
0.19
0.19
0.23
0.40
0.14
0.00
0.00
0.02
0.03
0.05
0.05
0.03
0.03
0.02
0.00
0.09
0.03
0.19
0.40
0.48
0.46
0.50
0.58
0.58
0.58
0.75
0.79
0.82
0.84
0.95
0.91
0.84
0.80
0.53
0.09
0.38
0.34
0.38
0.27
0.27
0.24
0.34
0.34
0.31
0.24
0.36
0.36
0.24
0.27
0.22
0.24
0.27
0.34
0.27
0.18
0.30
0.17
0.22
0.35
0.33
0.27
0.18
0.22
0.17
0.22
0.22
0.27
0.31
0.31
0.34
0.34
0.49
0.56
0.53
0.59
0.59
0.49
0.59
0.45
0.35
0.17
0.22
0.27
0.38
0.37
0.40
0.38
0.38
0.23
0.00
0.05
0.16
0.15
0.05
0.05
0.16
0.19
0.20
0.19
0.14
0.03
0.03
0.14
0.16
0.15
0.03
0.00
0.02
0.03
0.03
0.03
0.03
0.05
0.02
0.02
0.05
0.15
0.20
0.14
0.15
0.03
0.00
0.09
0.00
0.03
0.05
0.10
0.15
0.02
0.10
0.03
0.00
0.00
0.03
0.14
0.14
0.10
0.10
0.03
0.10
0.16
0.19
0.19
0.10
0.02
0.03
0.10
0.03
0.02
0.02
0.03
0.05
0.05
0.10
0.10
0.14
0.14
0.14
0.10
0.05
0.05
0.03
0.03
0.05
0.10
0.15
0.16
0.40
0.43
0.40
0.23
0.16
0.16
0.16
0.03
0.02
0.10
0.14
0.05
0.05
0.05
0.03
0.03
0.05
0.27
0.41
0.45
0.56
0.60
0.62
0.60
0.67
0.80
0.80
0.81
0.83
0.98
0.99
0.84
0.78
0.23
0.23
0.40
0.34
0.36
0.34
0.38
0.38
0.34
0.39
0.37
0.39
0.38
0.37
0.39
0.39
0.37
0.39
0.37
0.39
0.38
0.39
0.37
0.37
0.39
0.37
0.39
0.38
0.38
0.37
0.38
0.39
0.38
0.38
0.34
0.24
0.24
0.18
0.17
0.22
0.22
0.27
0.22
0.17
0.17
0.17
0.18
0.27
0.36
0.37
0.37
0.23
0.00
0.03
0.05
0.05
0.14
0.20
0.23
0.37
0.41
0.43
0.45
0.45
0.41
0.34
0.30
0.41
0.41
0.34
0.27
0.23
0.23
0.23
0.23
0.23
0.23
0.23
0.27
0.30
0.19
0.14
0.15
0.16
0.15
0.14
0.14
0.16
0.16
0.23
0.23
0.16
0.14
0.15
0.15
0.15
0.15
0.15
0.15
0.15
0.05
0.05
0.05
0.15
0.16
0.10
0.10
0.03
0.03
0.03
0.02
0.03
0.05
0.05
0.03
0.03
0.05
0.10
0.05
0.05
0.03
0.03
0.05
0.03
0.02
0.03
0.05
0.05
0.10
0.10
0.14
0.10
0.05
0.05
0.16
0.16
0.16
0.16
0.16
0.05
0.05
0.03
0.03
0.03
0.05
0.05
0.03
0.03
0.05
0.03
0.03
0.14
0.40
0.48
0.48
0.58
0.67
0.64
0.64
0.77
0.80
0.83
0.83
0.91
0.97
0.82
0.80
0.41
0.15
0.38
0.34
0.38
0.34
0.38
0.34
0.38
0.38
0.38
0.24
0.24
0.24
0.38
0.38
0.34
0.38
0.40
0.34
0.24
0.27
0.38
0.38
0.38
0.34
0.38
0.34
0.27
0.38
0.34
0.24
0.18
0.24
0.24
0.22
0.29
0.31
0.31
0.35
0.34
0.35
0.34
0.35
0.33
0.34
0.33
0.30
0.22
0.34
0.38
0.37
0.38
0.37
0.20
0.00
0.02
0.03
0.14
0.19
0.23
0.23
0.23
0.23
0.23
0.23
0.27
0.20
0.16
0.16
0.19
0.20
0.15
0.14
0.10
0.05
0.05
0.05
0.10
0.14
0.14
0.10
0.03
0.02
0.00
0.00
0.00
0.00
0.00
0.02
0.03
0.03
0.03
0.03
0.05
0.03
0.00
0.09
0.00
0.00
0.00
0.00
0.00
0.02
0.02
0.09
0.00
0.02
0.00
0.00
0.00
0.00
0.00
0.00
0.00
0.09
0.00
0.00
0.00
0.00
0.00
0.00
0.00
0.00
0.00
0.09
0.20
0.20
0.15
0.09
0.09
0.09
0.03
0.03
0.03
0.05
0.10
0.14
0.00
0.31
0.31
0.23
0.23
0.20
0.15
0.15
0.20
0.20
0.20
0.20
0.31
0.02
0.19
0.30
0.46
0.58
0.56
0.48
0.60
0.78
0.80
0.81
0.83
0.86
0.84
0.81
0.57
0.35
0.38
0.24
0.17
0.27
0.27
0.27
0.22
0.22
0.31
0.22
0.27
0.22
0.17
0.22
0.30
0.27
0.17
0.18
0.18
0.17
0.17
0.17
0.22
0.17
0.17
0.17
0.17
0.18
0.18
0.22
0.30
0.29
0.29
0.33
0.34
0.40
0.45
0.49
0.55
0.59
0.75
0.68
0.56
0.40
0.35
0.31
0.27
0.22
0.17
0.34
0.38
0.37
0.31
0.31
0.00
0.03
0.14
0.15
0.19
0.16
0.16
0.16
0.15
0.15
0.16
0.16
0.16
0.10
0.10
0.14
0.15
0.14
0.14
0.03
0.05
0.14
0.05
0.05
0.05
0.05
0.05
0.03
0.03
0.03
0.03
0.03
0.03
0.03
0.00
0.03
0.03
0.03
0.02
0.05
0.00
0.00
0.00
0.00
0.02
0.02
0.03
0.00
0.00
0.03
0.03
0.00
0.00
0.02
0.03
0.00
0.00
0.00
0.00
0.00
0.03
0.05
0.02
0.09
0.00
0.00
0.00
0.00
0.03
0.03
0.02
0.00
0.00
0.00
0.02
0.03
0.03
0.00
0.03
0.03
0.03
0.05
0.16
0.16
0.05
0.09
0.09
0.00
0.00
0.00
0.00
0.00
0.00
0.00
0.09
0.00
0.00
0.03
0.40
0.41
0.43
0.58
0.64
0.58
0.60
0.76
0.81
0.83
0.84
0.85
0.95
0.84
0.78
0.16
0.37
0.38
0.22
0.17
0.18
0.24
0.24
0.17
0.27
0.17
0.18
0.24
0.24
0.24
0.24
0.27
0.27
0.18
0.18
0.24
0.18
0.24
0.34
0.18
0.18
0.18
0.27
0.22
0.18
0.17
0.17
0.18
0.17
0.30
0.33
0.34
0.40
0.40
0.55
0.56
0.55
0.49
0.49
0.59
0.53
0.31
0.30
0.22
0.36
0.38
0.37
0.39
0.38
0.23
0.00
0.10
0.15
0.15
0.20
0.16
0.30
0.27
0.27
0.27
0.27
0.30
0.19
0.19
0.19
0.16
0.16
0.15
0.10
0.10
0.15
0.16
0.19
0.10
0.10
0.14
0.10
0.03
0.03
0.03
0.10
0.10
0.05
0.03
0.03
0.05
0.05
0.14
0.14
0.03
0.03
0.03
0.03
0.03
0.03
0.03
0.05
0.03
0.02
0.05
0.05
0.03
0.03
0.05
0.03
0.05
0.14
0.15
0.02
0.00
0.00
0.02
0.03
0.03
0.02
0.03
0.05
0.03
0.02
0.03
0.03
0.03
0.03
0.03
0.10
0.03
0.03
0.03
0.03
0.16
0.19
0.15
0.03
0.00
0.00
0.00
0.00
0.00
0.00
0.00
0.00
0.15
0.15
0.00
0.09
0.02
0.37
0.48
0.43
0.53
0.58
0.56
0.64
0.78
0.80
0.81
0.83
0.87
0.97
0.81
0.68
0.03
0.40
0.27
0.24
0.18
0.18
0.22
0.17
0.22
0.22
0.17
0.22
0.17
0.22
0.22
0.18
0.22
0.24
0.27
0.17
0.18
0.22
0.18
0.22
0.22
0.27
0.18
0.22
0.22
0.18
0.22
0.27
0.30
0.27
0.31
0.35
0.45
0.40
0.53
0.59
0.63
0.63
0.63
0.63
0.63
0.53
0.33
0.29
0.30
0.17
0.27
0.38
0.37
0.23
0.15
0.02
0.03
0.03
0.03
0.03
0.16
0.23
0.20
0.16
0.15
0.16
0.16
0.16
0.19
0.10
0.05
0.05
0.15
0.05
0.05
0.05
0.14
0.05
0.05
0.05
0.03
0.03
0.03
0.03
0.05
0.05
0.05
0.03
0.00
0.03
0.05
0.03
0.02
0.00
0.02
0.03
0.03
0.03
0.10
0.05
0.03
0.03
0.03
0.02
0.02
0.03
0.05
0.03
0.00
0.03
0.03
0.05
0.05
0.03
0.03
0.05
0.03
0.00
0.02
0.10
0.14
0.10
0.03
0.00
0.02
0.03
0.10
0.05
0.03
0.02
0.03
0.05
0.05
0.05
0.05
0.15
0.23
0.20
0.16
0.05
0.03
0.02
0.03
0.02
0.00
0.00
0.02
0.00
0.00
0.00
0.03
0.05
0.23
0.43
0.48
0.56
0.60
0.60
0.60
0.75
0.80
0.83
0.84
0.87
0.98
0.83
0.81
0.49
0.00
0.39
0.27
0.17
0.17
0.22
0.27
0.34
0.27
0.22
0.24
0.22
0.34
0.38
0.38
0.36
0.24
0.24
0.34
0.38
0.34
0.34
0.22
0.17
0.18
0.27
0.27
0.22
0.24
0.24
0.24
0.17
0.22
0.22
0.27
0.31
0.34
0.40
0.40
0.45
0.40
0.40
0.40
0.34
0.34
0.34
0.29
0.17
0.24
0.36
0.38
0.38
0.35
0.31
0.00
0.02
0.05
0.15
0.16
0.23
0.30
0.40
0.27
0.20
0.30
0.23
0.16
0.16
0.16
0.16
0.14
0.16
0.16
0.10
0.05
0.05
0.15
0.10
0.03
0.03
0.05
0.05
0.05
0.03
0.10
0.03
0.02
0.02
0.03
0.03
0.03
0.03
0.03
0.03
0.05
0.03
0.03
0.02
0.00
0.00
0.02
0.03
0.03
0.14
0.03
0.02
0.03
0.03
0.02
0.02
0.02
0.05
0.05
0.02
0.00
0.00
0.02
0.03
0.03
0.03
0.03
0.02
0.03
0.03
0.00
0.03
0.03
0.03
0.00
0.02
0.03
0.14
0.16
0.20
0.20
0.15
0.03
0.00
0.00
0.00
0.00
0.00
0.00
0.15
0.09
0.00
0.00
0.00
0.14
0.43
0.50
0.53
0.67
0.68
0.58
0.58
0.77
0.80
0.81
0.83
0.86
0.99
0.84
0.78
0.19
0.37
0.39
0.38
0.22
0.22
0.27
0.24
0.27
0.24
0.18
0.22
0.24
0.24
0.27
0.27
0.34
0.38
0.36
0.36
0.36
0.38
0.18
0.24
0.27
0.22
0.18
0.24
0.24
0.24
0.22
0.27
0.22
0.17
0.17
0.22
0.31
0.29
0.45
0.45
0.40
0.53
0.49
0.40
0.35
0.35
0.29
0.27
0.22
0.24
0.38
0.39
0.35
0.15
0.00
0.03
0.10
0.15
0.19
0.23
0.23
0.27
0.34
0.40
0.37
0.23
0.27
0.23
0.15
0.14
0.16
0.19
0.14
0.10
0.14
0.15
0.15
0.14
0.14
0.14
0.14
0.14
0.14
0.14
0.05
0.10
0.15
0.10
0.05
0.03
0.05
0.10
0.05
0.10
0.10
0.03
0.02
0.02
0.03
0.03
0.03
0.02
0.03
0.05
0.10
0.14
0.03
0.03
0.05
0.05
0.03
0.03
0.00
0.05
0.10
0.05
0.05
0.20
0.03
0.00
0.00
0.00
0.00
0.03
0.02
0.03
0.03
0.05
0.05
0.03
0.03
0.03
0.03
0.05
0.15
0.19
0.19
0.15
0.05
0.03
0.03
0.03
0.00
0.00
0.00
0.00
0.00
0.00
0.00
0.00
0.03
0.16
0.30
0.41
0.53
0.67
0.66
0.58
0.70
0.80
0.81
0.84
0.93
0.97
1.00
0.79
0.48
0.15
0.39
0.34
0.27
0.27
0.22
0.17
0.18
0.24
0.18
0.22
0.17
0.17
0.22
0.24
0.24
0.34
0.34
0.24
0.22
0.17
0.22
0.24
0.22
0.22
0.22
0.24
0.34
0.22
0.24
0.17
0.17
0.22
0.27
0.27
0.27
0.35
0.35
0.45
0.59
0.59
0.55
0.55
0.40
0.40
0.29
0.29
0.29
0.27
0.18
0.38
0.39
0.35
0.09
0.03
0.05
0.05
0.10
0.16
0.23
0.23
0.23
0.23
0.20
0.27
0.27
0.23
0.19
0.16
0.15
0.10
0.14
0.20
0.16
0.15
0.03
0.03
0.05
0.05
0.10
0.10
0.10
0.05
0.05
0.10
0.03
0.03
0.03
0.03
0.03
0.02
0.02
0.03
0.03
0.02
0.00
0.00
0.02
0.02
0.00
0.00
0.00
0.03
0.03
0.00
0.00
0.02
0.00
0.00
0.02
0.03
0.00
0.00
0.00
0.00
0.09
0.00
0.00
0.00
0.09
0.00
0.00
0.20
0.09
0.15
0.15
0.00
0.09
0.09
0.02
0.15
0.09
0.00
0.03
0.05
0.05
0.14
0.10
0.00
0.20
0.20
0.20
0.31
0.20
0.09
0.15
0.23
0.20
0.23
0.23
0.20
0.03
0.19
0.20
0.40
0.56
0.49
0.48
0.67
0.79
0.81
0.84
0.84
0.93
0.84
0.79
0.14
0.38
0.27
0.22
0.27
0.31
0.29
0.29
0.29
0.30
0.31
0.29
0.29
0.30
0.30
0.22
0.17
0.30
0.30
0.27
0.27
0.30
0.31
0.27
0.17
0.17
0.27
0.29
0.29
0.29
0.29
0.29
0.29
0.35
0.49
0.49
0.59
0.68
0.68
0.75
0.82
0.80
0.80
0.80
0.80
0.68
0.59
0.34
0.45
0.34
0.17
0.27
0.36
0.40
0.38
0.31
0.23
0.09
0.02
0.03
0.03
0.05
0.10
0.15
0.16
0.16
0.10
0.03
0.03
0.05
0.05
0.05
0.14
0.10
0.00
0.02
0.03
0.02
0.03
0.02
0.02
0.03
0.02
0.00
0.02
0.03
0.03
0.00
0.00
0.03
0.03
0.03
0.05
0.10
0.02
0.00
0.03
0.05
0.05
0.03
0.10
0.14
0.03
0.00
0.03
0.03
0.03
0.05
0.10
0.05
0.05
0.03
0.03
0.03
0.03
0.05
0.05
0.03
0.03
0.02
0.02
0.05
0.05
0.14
0.05
0.03
0.03
0.05
0.10
0.10
0.05
0.05
0.05
0.03
0.14
0.15
0.19
0.23
0.20
0.05
0.00
0.09
0.00
0.03
0.02
0.02
0.00
0.15
0.09
0.00
0.00
0.15
0.41
0.48
0.49
0.60
0.62
0.58
0.66
0.79
0.79
0.82
0.83
0.94
0.98
0.84
0.70
0.09
0.39
0.38
0.27
0.24
0.22
0.18
0.17
0.22
0.17
0.17
0.34
0.17
0.31
0.22
0.17
0.18
0.17
0.17
0.22
0.22
0.17
0.22
0.17
0.17
0.17
0.22
0.22
0.27
0.31
0.30
0.30
0.30
0.30
0.30
0.29
0.29
0.35
0.59
0.72
0.72
0.72
0.63
0.59
0.45
0.40
0.40
0.29
0.22
0.22
0.34
0.38
0.38
0.37
0.15
0.15
0.02
0.10
0.14
0.05
0.14
0.19
0.27
0.19
0.10
0.10
0.10
0.05
0.14
0.15
0.14
0.14
0.05
0.03
0.05
0.10
0.15
0.14
0.03
0.02
0.02
0.03
0.03
0.03
0.02
0.03
0.02
0.02
0.03
0.02
0.03
0.03
0.03
0.00
0.00
0.00
0.00
0.00
0.00
0.00
0.03
0.02
0.00
0.02
0.00
0.02
0.03
0.02
0.00
0.00
0.03
0.03
0.02
0.09
0.00
0.02
0.00
0.00
0.00
0.03
0.03
0.03
0.02
0.15
0.00
0.00
0.00
0.02
0.02
0.03
0.03
0.02
0.02
0.14
0.19
0.16
0.15
0.10
0.05
0.00
0.00
0.00
0.00
0.00
0.00
0.00
0.00
0.00
0.00
0.02
0.10
0.27
0.40
0.46
0.60
0.62
0.57
0.60
0.76
0.81
0.82
0.83
0.96
0.97
0.83
0.79
0.14
0.38
0.36
0.34
0.24
0.27
0.27
0.36
0.18
0.17
0.17
0.17
0.17
0.18
0.22
0.22
0.24
0.36
0.24
0.18
0.17
0.22
0.22
0.24
0.34
0.27
0.22
0.18
0.22
0.22
0.22
0.17
0.17
0.17
0.27
0.33
0.34
0.45
0.55
0.53
0.56
0.53
0.49
0.45
0.34
0.34
0.31
0.27
0.17
0.17
0.22
0.39
0.31
0.23
0.15
0.00
0.10
0.14
0.15
0.19
0.19
0.19
0.20
0.16
0.19
0.19
0.20
0.27
0.27
0.19
0.16
0.19
0.14
0.03
0.05
0.05
0.05
0.10
0.14
0.14
0.14
0.05
0.02
0.00
0.00
0.00
0.03
0.03
0.00
0.00
0.00
0.02
0.02
0.03
0.02
0.00
0.02
0.00
0.00
0.03
0.03
0.03
0.00
0.00
0.00
0.02
0.00
0.00
0.02
0.02
0.00
0.00
0.00
0.00
0.02
0.00
0.09
0.02
0.03
0.00
0.02
0.03
0.00
0.00
0.00
0.00
0.00
0.00
0.00
0.00
0.02
0.03
0.14
0.14
0.19
0.19
0.10
0.02
0.09
0.00
0.00
0.03
0.00
0.02
0.09
0.00
0.00
0.15
0.15
0.02
0.16
0.23
0.40
0.60
0.68
0.64
0.62
0.77
0.80
0.82
0.83
0.94
0.98
0.84
0.78
0.14
0.37
0.34
0.18
0.17
0.17
0.17
0.18
0.22
0.22
0.18
0.18
0.17
0.17
0.17
0.24
0.22
0.27
0.27
0.22
0.22
0.24
0.24
0.18
0.24
0.22
0.22
0.17
0.18
0.18
0.18
0.17
0.30
0.29
0.29
0.29
0.35
0.40
0.49
0.55
0.59
0.53
0.45
0.56
0.55
0.49
0.35
0.35
0.35
0.27
0.27
0.38
0.37
0.23
0.09
0.00
0.03
0.05
0.14
0.16
0.16
0.15
0.15
0.15
0.19
0.23
0.20
0.15
0.05
0.05
0.10
0.14
0.14
0.10
0.14
0.10
0.03
0.03
0.05
0.10
0.03
0.02
0.02
0.00
0.00
0.00
0.00
0.00
0.00
0.02
0.00
0.00
0.00
0.00
0.00
0.02
0.02
0.00
0.03
0.00
0.00
0.00
0.00
0.00
0.09
0.00
0.02
0.00
0.09
0.09
0.00
0.00
0.00
0.00
0.09
0.00
0.00
0.00
0.00
0.02
0.00
0.00
0.09
0.20
0.15
0.09
0.00
0.09
0.09
0.09
0.00
0.00
0.00
0.02
0.05
0.15
0.02
0.00
0.00
0.20
0.23
0.23
0.15
0.15
0.15
0.20
0.31
0.23
0.20
0.00
0.19
0.19
0.40
0.57
0.58
0.49
0.60
0.78
0.80
0.83
0.84
0.86
0.86
0.83
0.64
0.00
0.38
0.24
0.22
0.27
0.29
0.29
0.29
0.29
0.29
0.31
0.27
0.31
0.27
0.27
0.30
0.31
0.27
0.27
0.31
0.30
0.17
0.18
0.18
0.22
0.27
0.27
0.31
0.29
0.29
0.29
0.29
0.29
0.29
0.33
0.49
0.59
0.63
0.63
0.63
0.63
0.68
0.75
0.82
0.75
0.59
0.40
0.40
0.40
0.27
0.22
0.38
0.39
0.39
0.31
0.09
0.00
0.03
0.03
0.03
0.05
0.14
0.15
0.15
0.16
0.23
0.15
0.15
0.10
0.10
0.14
0.14
0.14
0.10
0.15
0.16
0.15
0.15
0.14
0.03
0.02
0.03
0.05
0.03
0.03
0.05
0.05
0.10
0.05
0.05
0.05
0.05
0.03
0.05
0.03
0.02
0.03
0.05
0.03
0.03
0.05
0.05
0.05
0.03
0.03
0.03
0.03
0.05
0.05
0.03
0.03
0.03
0.03
0.05
0.05
0.05
0.03
0.00
0.02
0.03
0.03
0.03
0.03
0.03
0.03
0.03
0.05
0.14
0.03
0.00
0.00
0.02
0.02
0.03
0.15
0.19
0.16
0.27
0.34
0.05
0.00
0.00
0.00
0.03
0.03
0.00
0.00
0.00
0.00
0.00
0.00
0.00
0.20
0.41
0.45
0.60
0.67
0.62
0.60
0.75
0.80
0.83
0.84
0.94
0.99
0.82
0.80
0.40
0.35
0.38
0.24
0.27
0.27
0.27
0.27
0.18
0.22
0.18
0.18
0.22
0.22
0.18
0.18
0.18
0.27
0.24
0.38
0.18
0.18
0.17
0.18
0.18
0.24
0.24
0.18
0.17
0.18
0.18
0.22
0.22
0.17
0.17
0.30
0.29
0.34
0.56
0.59
0.53
0.56
0.68
0.63
0.63
0.59
0.45
0.31
0.27
0.18
0.24
0.36
0.40
0.35
0.20
0.15
0.09
0.00
0.10
0.10
0.10
0.19
0.27
0.23
0.20
0.20
0.15
0.15
0.10
0.15
0.10
0.15
0.10
0.03
0.03
0.03
0.03
0.03
0.03
0.03
0.05
0.02
0.00
0.00
0.00
0.00
0.00
0.00
0.02
0.00
0.00
0.09
0.09
0.00
0.00
0.00
0.00
0.00
0.00
0.00
0.00
0.00
0.00
0.00
0.09
0.09
0.00
0.00
0.00
0.09
0.00
0.02
0.00
0.00
0.00
0.00
0.00
0.00
0.00
0.00
0.00
0.00
0.00
0.00
0.02
0.02
0.00
0.00
0.00
0.00
0.02
0.00
0.00
0.03
0.14
0.16
0.16
0.05
0.02
0.00
0.09
0.15
0.09
0.00
0.00
0.00
0.09
0.09
0.00
0.09
0.15
0.23
0.30
0.40
0.58
0.66
0.60
0.58
0.72
0.80
0.83
0.84
0.86
0.97
0.84
0.78
0.16
0.38
0.34
0.22
0.18
0.18
0.17
0.17
0.18
0.18
0.17
0.22
0.27
0.22
0.17
0.18
0.18
0.18
0.22
0.27
0.22
0.18
0.18
0.17
0.18
0.18
0.17
0.22
0.22
0.22
0.22
0.22
0.27
0.34
0.29
0.33
0.34
0.45
0.59
0.53
0.59
0.63
0.68
0.63
0.55
0.40
0.33
0.33
0.29
0.17
0.24
0.38
0.38
0.35
0.20
0.15
0.00
0.03
0.05
0.15
0.15
0.19
0.16
0.20
0.27
0.23
0.20
0.20
0.20
0.16
0.16
0.05
0.05
0.05
0.05
0.05
0.03
0.03
0.05
0.05
0.05
0.05
0.03
0.03
0.03
0.05
0.05
0.03
0.03
0.05
0.10
0.03
0.00
0.00
0.02
0.00
0.00
0.03
0.03
0.00
0.02
0.03
0.02
0.02
0.02
0.00
0.03
0.03
0.00
0.02
0.05
0.00
0.00
0.00
0.02
0.02
0.03
0.03
0.03
0.03
0.03
0.03
0.00
0.00
0.02
0.00
0.00
0.00
0.00
0.02
0.02
0.03
0.14
0.20
0.20
0.16
0.05
0.00
0.09
0.09
0.00
0.02
0.00
0.15
0.20
0.20
0.15
0.00
0.00
0.05
0.30
0.41
0.50
0.67
0.67
0.56
0.60
0.80
0.80
0.83
0.83
0.87
0.98
0.83
0.60
0.00
0.39
0.24
0.17
0.17
0.18
0.18
0.17
0.17
0.17
0.27
0.31
0.22
0.18
0.18
0.18
0.22
0.22
0.27
0.27
0.24
0.18
0.22
0.27
0.18
0.18
0.18
0.18
0.17
0.18
0.17
0.22
0.30
0.31
0.29
0.34
0.40
0.40
0.56
0.59
0.59
0.59
0.63
0.59
0.63
0.55
0.34
0.33
0.30
0.18
0.24
0.34
0.38
0.38
0.31
0.15
0.00
0.02
0.03
0.14
0.16
0.19
0.16
0.15
0.15
0.10
0.05
0.14
0.14
0.05
0.03
0.00
0.00
0.02
0.03
0.05
0.02
0.00
0.03
0.03
0.02
0.00
0.03
0.02
0.03
0.00
0.00
0.00
0.00
0.00
0.00
0.02
0.02
0.09
0.09
0.00
0.00
0.00
0.00
0.09
0.15
0.09
0.09
0.15
0.15
0.15
0.15
0.09
0.09
0.20
0.15
0.09
0.09
0.15
0.15
0.00
0.09
0.15
0.09
0.00
0.00
0.00
0.23
0.20
0.20
0.15
0.15
0.09
0.09
0.15
0.20
0.20
0.15
0.15
0.09
0.00
0.02
0.05
0.03
0.00
0.20
0.20
0.23
0.20
0.15
0.15
0.23
0.37
0.37
0.35
0.35
0.23
0.03
0.20
0.19
0.34
0.57
0.58
0.45
0.62
0.79
0.81
0.83
0.83
0.86
0.86
0.81
0.40
0.38
0.34
0.22
0.17
0.30
0.29
0.27
0.27
0.30
0.22
0.22
0.17
0.17
0.22
0.17
0.17
0.17
0.17
0.17
0.22
0.17
0.18
0.17
0.17
0.27
0.31
0.22
0.17
0.27
0.27
0.22
0.22
0.29
0.33
0.29
0.35
0.34
0.45
0.59
0.59
0.63
0.63
0.59
0.59
0.59
0.40
0.35
0.27
0.18
0.18
0.34
0.38
0.38
0.35
0.15
0.03
0.10
0.14
0.14
0.16
0.19
0.27
0.40
0.41
0.30
0.30
0.37
0.23
0.19
0.19
0.19
0.19
0.16
0.15
0.14
0.05
0.05
0.05
0.10
0.05
0.10
0.10
0.10
0.03
0.03
0.03
0.02
0.03
0.05
0.03
0.03
0.05
0.03
0.03
0.05
0.03
0.00
0.00
0.02
0.03
0.05
0.03
0.02
0.02
0.03
0.03
0.00
0.02
0.03
0.03
0.03
0.00
0.00
0.00
0.03
0.03
0.03
0.03
0.02
0.00
0.02
0.02
0.02
0.00
0.00
0.02
0.00
0.00
0.00
0.02
0.03
0.03
0.00
0.02
0.05
0.15
0.20
0.14
0.02
0.00
0.00
0.00
0.00
0.00
0.00
0.00
0.00
0.00
0.00
0.00
0.00
0.14
0.34
0.37
0.48
0.60
0.64
0.58
0.66
0.80
0.80
0.84
0.84
0.88
0.98
0.81
0.49
0.09
0.39
0.36
0.27
0.24
0.22
0.17
0.17
0.18
0.18
0.17
0.22
0.22
0.18
0.17
0.22
0.18
0.22
0.24
0.22
0.22
0.22
0.22
0.22
0.18
0.22
0.24
0.22
0.18
0.27
0.18
0.30
0.30
0.35
0.35
0.29
0.40
0.49
0.63
0.59
0.49
0.63
0.68
0.59
0.55
0.49
0.33
0.22
0.31
0.22
0.36
0.38
0.39
0.38
0.20
0.02
0.10
0.14
0.10
0.10
0.16
0.20
0.20
0.19
0.19
0.16
0.16
0.15
0.14
0.15
0.15
0.05
0.10
0.16
0.10
0.02
0.03
0.03
0.03
0.03
0.03
0.03
0.03
0.05
0.05
0.03
0.03
0.00
0.03
0.05
0.03
0.00
0.00
0.00
0.00
0.02
0.03
0.02
0.03
0.02
0.00
0.00
0.00
0.00
0.02
0.00
0.00
0.00
0.02
0.00
0.09
0.00
0.00
0.00
0.00
0.00
0.00
0.00
0.00
0.00
0.00
0.00
0.00
0.02
0.03
0.00
0.00
0.00
0.00
0.00
0.00
0.03
0.05
0.15
0.16
0.16
0.03
0.09
0.15
0.00
0.02
0.00
0.15
0.20
0.15
0.09
0.09
0.20
0.09
0.10
0.27
0.37
0.53
0.64
0.64
0.57
0.66
0.79
0.81
0.84
0.83
0.85
0.88
0.80
0.43
0.35
0.38
0.27
0.17
0.22
0.24
0.27
0.30
0.22
0.22
0.31
0.30
0.30
0.30
0.31
0.22
0.17
0.17
0.17
0.17
0.17
0.17
0.17
0.18
0.18
0.17
0.22
0.17
0.17
0.27
0.29
0.29
0.29
0.31
0.30
0.35
0.49
0.55
0.59
0.68
0.75
0.68
0.72
0.68
0.59
0.59
0.45
0.29
0.29
0.17
0.34
0.40
0.38
0.37
0.15
0.00
0.00
0.03
0.10
0.14
0.10
0.16
0.19
0.16
0.15
0.16
0.16
0.16
0.14
0.05
0.05
0.14
0.14
0.15
0.10
0.14
0.05
0.03
0.03
0.02
0.03
0.02
0.02
0.03
0.00
0.00
0.00
0.02
0.03
0.00
0.00
0.03
0.02
0.02
0.00
0.00
0.02
0.00
0.03
0.00
0.00
0.00
0.00
0.00
0.00
0.00
0.00
0.00
0.00
0.00
0.00
0.00
0.00
0.00
0.00
0.00
0.00
0.00
0.00
0.00
0.09
0.00
0.09
0.00
0.00
0.00
0.00
0.03
0.03
0.00
0.00
0.00
0.03
0.03
0.14
0.16
0.14
0.02
0.00
0.00
0.00
0.00
0.09
0.00
0.09
0.20
0.09
0.09
0.15
0.00
0.14
0.40
0.45
0.58
0.67
0.64
0.58
0.70
0.80
0.82
0.85
0.85
0.96
0.86
0.80
0.40
0.23
0.38
0.34
0.34
0.22
0.22
0.27
0.27
0.27
0.27
0.17
0.18
0.18
0.18
0.18
0.22
0.17
0.17
0.17
0.17
0.17
0.18
0.18
0.18
0.17
0.22
0.27
0.27
0.30
0.29
0.29
0.29
0.29
0.33
0.40
0.40
0.45
0.49
0.68
0.68
0.80
0.80
0.75
0.75
0.75
0.53
0.40
0.53
0.33
0.17
0.18
0.22
0.38
0.39
0.31
0.00
0.00
0.05
0.10
0.05
0.05
0.14
0.15
0.15
0.10
0.10
0.05
0.03
0.03
0.03
0.02
0.00
0.02
0.03
0.03
0.00
0.00
0.00
0.09
0.09
0.00
0.00
0.00
0.09
0.09
0.09
0.15
0.00
0.00
0.09
0.20
0.15
0.15
0.09
0.09
0.15
0.09
0.00
0.00
0.09
0.15
0.20
0.15
0.15
0.09
0.09
0.09
0.00
0.00
0.09
0.15
0.15
0.20
0.15
0.09
0.20
0.20
0.09
0.15
0.23
0.20
0.20
0.20
0.20
0.20
0.20
0.09
0.15
0.15
0.15
0.00
0.00
0.00
0.15
0.00
0.03
0.03
0.03
0.00
0.15
0.23
0.31
0.15
0.15
0.20
0.09
0.20
0.23
0.31
0.23
0.20
0.03
0.23
0.27
0.41
0.56
0.57
0.53
0.64
0.80
0.79
0.83
0.83
0.86
0.84
0.81
0.57
0.20
0.38
0.27
0.24
0.24
0.24
0.22
0.22
0.22
0.22
0.22
0.22
0.17
0.22
0.18
0.17
0.22
0.22
0.27
0.27
0.24
0.34
0.27
0.22
0.18
0.22
0.22
0.24
0.24
0.18
0.22
0.22
0.22
0.27
0.30
0.29
0.33
0.34
0.45
0.55
0.49
0.59
0.59
0.59
0.45
0.34
0.34
0.33
0.22
0.24
0.27
0.34
0.39
0.37
0.09
0.00
0.03
0.10
0.14
0.19
0.20
0.23
0.23
0.23
0.30
0.34
0.27
0.20
0.16
0.16
0.19
0.16
0.14
0.05
0.05
0.14
0.14
0.05
0.05
0.03
0.03
0.03
0.03
0.03
0.02
0.05
0.03
0.02
0.02
0.03
0.00
0.02
0.00
0.00
0.02
0.03
0.03
0.03
0.03
0.00
0.00
0.02
0.02
0.00
0.00
0.00
0.03
0.03
0.00
0.00
0.00
0.00
0.02
0.02
0.02
0.02
0.00
0.00
0.00
0.00
0.09
0.15
0.09
0.00
0.00
0.00
0.00
0.00
0.00
0.00
0.00
0.00
0.00
0.03
0.14
0.19
0.16
0.03
0.00
0.23
0.00
0.00
0.15
0.00
0.09
0.15
0.20
0.15
0.09
0.00
0.03
0.19
0.30
0.45
0.64
0.67
0.60
0.60
0.78
0.80
0.82
0.83
0.86
0.88
0.82
0.70
0.00
0.38
0.34
0.27
0.22
0.18
0.22
0.18
0.22
0.22
0.22
0.22
0.17
0.18
0.24
0.24
0.18
0.17
0.17
0.17
0.17
0.18
0.18
0.18
0.24
0.24
0.18
0.17
0.17
0.17
0.17
0.18
0.18
0.27
0.33
0.34
0.34
0.45
0.49
0.55
0.59
0.59
0.59
0.55
0.49
0.49
0.40
0.34
0.31
0.17
0.34
0.40
0.39
0.31
0.20
0.00
0.00
0.05
0.05
0.10
0.15
0.19
0.23
0.27
0.27
0.16
0.15
0.15
0.16
0.19
0.16
0.10
0.05
0.10
0.15
0.10
0.05
0.05
0.05
0.03
0.03
0.03
0.02
0.00
0.02
0.03
0.05
0.05
0.05
0.05
0.03
0.02
0.00
0.00
0.00
0.02
0.02
0.00
0.00
0.02
0.03
0.02
0.00
0.02
0.00
0.00
0.00
0.00
0.00
0.00
0.00
0.00
0.00
0.00
0.00
0.00
0.00
0.00
0.02
0.00
0.00
0.00
0.00
0.00
0.00
0.02
0.00
0.00
0.00
0.00
0.00
0.00
0.05
0.15
0.14
0.10
0.14
0.02
0.00
0.09
0.20
0.15
0.09
0.15
0.20
0.20
0.20
0.20
0.20
0.09
0.19
0.40
0.41
0.60
0.67
0.64
0.58
0.72
0.80
0.82
0.84
0.83
0.94
0.84
0.79
0.20
0.37
0.38
0.22
0.17
0.17
0.18
0.18
0.17
0.18
0.24
0.18
0.17
0.22
0.22
0.17
0.17
0.17
0.22
0.17
0.18
0.27
0.27
0.18
0.18
0.18
0.22
0.22
0.18
0.17
0.18
0.22
0.31
0.30
0.31
0.29
0.35
0.34
0.40
0.53
0.59
0.59
0.59
0.59
0.56
0.49
0.40
0.34
0.29
0.22
0.18
0.27
0.38
0.35
0.15
0.00
0.02
0.03
0.15
0.15
0.16
0.23
0.20
0.20
0.19
0.20
0.19
0.19
0.16
0.15
0.15
0.15
0.10
0.14
0.14
0.10
0.10
0.05
0.10
0.10
0.10
0.10
0.05
0.03
0.03
0.02
0.03
0.03
0.03
0.03
0.05
0.03
0.03
0.03
0.00
0.02
0.00
0.00
0.00
0.00
0.00
0.00
0.00
0.00
0.00
0.02
0.00
0.00
0.00
0.00
0.00
0.00
0.00
0.00
0.00
0.00
0.00
0.00
0.00
0.02
0.00
0.00
0.00
0.00
0.00
0.00
0.00
0.00
0.00
0.02
0.00
0.00
0.00
0.00
0.03
0.05
0.15
0.15
0.10
0.00
0.00
0.20
0.09
0.00
0.00
0.15
0.09
0.15
0.15
0.15
0.09
0.00
0.37
0.40
0.46
0.66
0.67
0.56
0.58
0.75
0.80
0.83
0.84
0.84
0.93
0.83
0.76
0.05
0.38
0.27
0.18
0.17
0.22
0.22
0.17
0.22
0.22
0.27
0.30
0.30
0.31
0.27
0.22
0.17
0.22
0.18
0.17
0.17
0.17
0.17
0.17
0.27
0.27
0.17
0.22
0.27
0.33
0.29
0.29
0.35
0.34
0.29
0.35
0.55
0.59
0.59
0.68
0.68
0.68
0.72
0.75
0.75
0.68
0.59
0.45
0.33
0.31
0.22
0.24
0.34
0.39
0.37
0.23
0.00
0.00
0.03
0.05
0.05
0.05
0.05
0.10
0.05
0.14
0.14
0.10
0.05
0.03
0.02
0.00
0.03
0.02
0.00
0.00
0.00
0.00
0.00
0.00
0.03
0.02
0.00
0.00
0.09
0.15
0.09
0.09
0.09
0.00
0.00
0.00
0.00
0.00
0.00
0.09
0.15
0.09
0.00
0.00
0.15
0.09
0.09
0.20
0.15
0.00
0.20
0.15
0.15
0.20
0.20
0.15
0.00
0.00
0.09
0.09
0.09
0.00
0.00
0.00
0.00
0.00
0.00
0.09
0.00
0.09
0.09
0.00
0.00
0.09
0.00
0.00
0.00
0.02
0.03
0.05
0.10
0.03
0.00
0.00
0.00
0.00
0.00
0.00
0.00
0.00
0.00
0.00
0.00
0.00
0.16
0.41
0.41
0.50
0.67
0.67
0.60
0.76
0.80
0.83
0.85
0.84
0.98
0.87
0.80
0.53
0.00
0.37
0.39
0.38
0.40
0.38
0.36
0.34
0.34
0.34
0.36
0.36
0.38
0.34
0.38
0.40
0.38
0.38
0.34
0.38
0.38
0.38
0.38
0.38
0.38
0.40
0.38
0.38
0.36
0.34
0.38
0.34
0.27
0.22
0.24
0.17
0.22
0.31
0.34
0.35
0.34
0.49
0.49
0.40
0.33
0.30
0.17
0.27
0.34
0.38
0.38
0.37
0.23
0.00
0.03
0.03
0.14
0.15
0.19
0.27
0.37
0.41
0.27
0.27
0.34
0.41
0.34
0.30
0.23
0.20
0.20
0.23
0.23
0.23
0.15
0.16
0.15
0.16
0.16
0.15
0.05
0.15
0.10
0.14
0.05
0.10
0.05
0.05
0.05
0.05
0.03
0.03
0.05
0.03
0.03
0.03
0.03
0.03
0.05
0.03
0.02
0.03
0.03
0.00
0.00
0.05
0.03
0.02
0.00
0.00
0.03
0.02
0.02
0.02
0.03
0.03
0.03
0.02
0.00
0.02
0.02
0.03
0.03
0.00
0.00
0.00
0.03
0.00
0.00
0.02
0.05
0.14
0.15
0.19
0.19
0.03
0.00
0.00
0.00
0.02
0.00
0.00
0.00
0.00
0.00
0.00
0.09
0.00
0.14
0.34
0.43
0.57
0.68
0.66
0.58
0.68
0.79
0.81
0.85
0.84
0.91
0.87
0.79
0.34
0.20
0.38
0.27
0.22
0.18
0.18
0.24
0.22
0.17
0.17
0.17
0.22
0.17
0.22
0.22
0.17
0.17
0.18
0.18
0.17
0.17
0.18
0.18
0.18
0.18
0.18
0.18
0.18
0.18
0.18
0.17
0.17
0.22
0.30
0.29
0.29
0.35
0.53
0.56
0.49
0.40
0.56
0.63
0.59
0.49
0.35
0.29
0.27
0.18
0.24
0.27
0.38
0.37
0.20
0.00
0.02
0.05
0.10
0.14
0.16
0.16
0.20
0.20
0.20
0.19
0.27
0.20
0.16
0.15
0.15
0.15
0.15
0.14
0.05
0.10
0.05
0.10
0.10
0.10
0.03
0.03
0.03
0.03
0.03
0.05
0.03
0.03
0.00
0.03
0.00
0.03
0.03
0.03
0.03
0.02
0.03
0.03
0.03
0.00
0.00
0.00
0.00
0.00
0.00
0.02
0.00
0.00
0.00
0.00
0.02
0.02
0.02
0.02
0.00
0.02
0.03
0.00
0.09
0.00
0.00
0.00
0.00
0.00
0.00
0.00
0.00
0.00
0.00
0.00
0.00
0.05
0.05
0.14
0.16
0.14
0.03
0.00
0.00
0.00
0.00
0.09
0.00
0.00
0.00
0.09
0.20
0.15
0.15
0.03
0.37
0.45
0.45
0.60
0.67
0.60
0.60
0.78
0.80
0.82
0.83
0.86
0.95
0.82
0.64
0.00
0.37
0.34
0.36
0.18
0.17
0.17
0.24
0.22
0.17
0.22
0.17
0.18
0.18
0.17
0.18
0.24
0.27
0.27
0.24
0.22
0.22
0.27
0.34
0.27
0.24
0.22
0.22
0.17
0.22
0.17
0.18
0.18
0.30
0.29
0.29
0.33
0.29
0.49
0.59
0.49
0.49
0.59
0.49
0.53
0.49
0.35
0.29
0.27
0.24
0.27
0.38
0.37
0.35
0.20
0.00
0.02
0.05
0.16
0.20
0.19
0.16
0.16
0.19
0.19
0.16
0.16
0.16
0.15
0.15
0.15
0.10
0.05
0.05
0.14
0.14
0.05
0.05
0.05
0.05
0.05
0.05
0.05
0.10
0.05
0.05
0.05
0.10
0.05
0.03
0.03
0.02
0.02
0.03
0.03
0.03
0.02
0.00
0.02
0.03
0.03
0.00
0.02
0.02
0.00
0.00
0.03
0.03
0.00
0.00
0.02
0.02
0.00
0.03
0.03
0.02
0.00
0.02
0.03
0.00
0.02
0.02
0.00
0.00
0.00
0.00
0.00
0.00
0.00
0.00
0.02
0.03
0.10
0.14
0.15
0.05
0.00
0.15
0.20
0.20
0.15
0.15
0.15
0.20
0.23
0.20
0.23
0.31
0.00
0.16
0.27
0.40
0.50
0.57
0.50
0.58
0.77
0.81
0.84
0.84
0.83
0.83
0.83
0.62
0.31
0.36
0.18
0.22
0.35
0.35
0.35
0.27
0.35
0.34
0.34
0.34
0.35
0.34
0.31
0.33
0.27
0.30
0.29
0.29
0.27
0.30
0.33
0.35
0.34
0.33
0.29
0.29
0.29
0.33
0.34
0.35
0.34
0.45
0.55
0.59
0.68
0.63
0.80
0.84
0.83
0.82
0.80
0.80
0.75
0.68
0.63
0.59
0.33
0.30
0.30
0.22
0.38
0.38
0.37
0.23
0.23
0.00
0.00
0.02
0.05
0.10
0.03
0.02
0.03
0.03
0.02
0.02
0.03
0.02
0.02
0.00
0.00
0.00
0.00
0.00
0.00
0.00
0.09
0.09
0.00
0.00
0.15
0.15
0.00
0.00
0.00
0.09
0.20
0.00
0.00
0.09
0.09
0.15
0.00
0.00
0.00
0.00
0.00
0.00
0.00
0.00
0.15
0.15
0.09
0.09
0.15
0.15
0.15
0.09
0.00
0.00
0.00
0.00
0.09
0.20
0.09
0.00
0.15
0.09
0.00
0.00
0.00
0.00
0.00
0.00
0.00
0.02
0.03
0.10
0.16
0.19
0.00
0.15
0.15
0.15
0.09
0.09
0.03
0.00
0.09
0.00
0.00
0.00
0.02
0.20
0.41
0.41
0.50
0.64
0.62
0.60
0.70
0.79
0.82
0.84
0.85
0.95
0.82
0.80
0.49
0.23
0.38
0.38
0.34
0.27
0.22
0.22
0.22
0.18
0.24
0.24
0.27
0.27
0.34
0.38
0.36
0.27
0.24
0.36
0.34
0.27
0.27
0.27
0.24
0.24
0.36
0.38
0.34
0.22
0.24
0.24
0.22
0.17
0.17
0.27
0.29
0.33
0.35
0.35
0.34
0.53
0.59
0.59
0.55
0.45
0.33
0.31
0.27
0.18
0.36
0.39
0.37
0.31
0.15
0.00
0.00
0.02
0.14
0.16
0.16
0.23
0.19
0.23
0.27
0.27
0.27
0.27
0.23
0.16
0.16
0.19
0.23
0.19
0.10
0.05
0.05
0.05
0.05
0.05
0.03
0.03
0.02
0.03
0.03
0.03
0.03
0.03
0.03
0.03
0.03
0.03
0.03
0.03
0.02
0.02
0.03
0.00
0.00
0.00
0.00
0.05
0.05
0.03
0.00
0.00
0.03
0.00
0.00
0.03
0.02
0.02
0.00
0.00
0.03
0.02
0.00
0.00
0.00
0.00
0.00
0.00
0.00
0.00
0.00
0.00
0.00
0.03
0.03
0.02
0.02
0.03
0.03
0.14
0.16
0.15
0.03
0.00
0.00
0.00
0.00
0.00
0.00
0.00
0.15
0.15
0.15
0.15
0.00
0.10
0.40
0.41
0.50
0.66
0.67
0.58
0.67
0.80
0.79
0.82
0.82
0.88
0.86
0.81
0.58
0.00
0.38
0.27
0.18
0.17
0.17
0.17
0.18
0.18
0.17
0.17
0.17
0.17
0.18
0.18
0.18
0.18
0.22
0.24
0.27
0.24
0.27
0.22
0.17
0.17
0.18
0.18
0.18
0.22
0.22
0.18
0.22
0.17
0.30
0.29
0.29
0.29
0.34
0.55
0.63
0.63
0.63
0.63
0.53
0.45
0.45
0.35
0.29
0.22
0.22
0.34
0.38
0.37
0.20
0.00
0.00
0.00
0.02
0.10
0.16
0.30
0.20
0.23
0.20
0.23
0.20
0.19
0.19
0.19
0.16
0.16
0.16
0.16
0.15
0.10
0.05
0.05
0.10
0.05
0.05
0.10
0.14
0.10
0.05
0.05
0.03
0.03
0.03
0.03
0.03
0.02
0.00
0.02
0.03
0.00
0.00
0.03
0.03
0.03
0.05
0.03
0.03
0.03
0.03
0.03
0.03
0.03
0.02
0.02
0.02
0.00
0.00
0.03
0.00
0.00
0.02
0.00
0.00
0.00
0.00
0.02
0.00
0.00
0.00
0.00
0.00
0.00
0.00
0.00
0.00
0.03
0.10
0.14
0.16
0.15
0.03
0.00
0.00
0.00
0.00
0.09
0.09
0.15
0.23
0.31
0.31
0.37
0.20
0.14
0.27
0.27
0.53
0.67
0.64
0.58
0.70
0.80
0.81
0.84
0.84
0.88
0.83
0.80
0.20
0.40
0.27
0.22
0.17
0.30
0.22
0.18
0.22
0.29
0.34
0.33
0.29
0.33
0.29
0.31
0.30
0.29
0.31
0.27
0.27
0.27
0.22
0.29
0.40
0.34
0.33
0.29
0.34
0.35
0.35
0.30
0.31
0.35
0.53
0.56
0.75
0.82
0.82
0.83
0.84
0.84
0.84
0.84
0.80
0.59
0.45
0.40
0.40
0.33
0.22
0.34
0.38
0.38
0.39
0.31
0.09
0.02
0.05
0.05
0.14
0.15
0.14
0.14
0.16
0.16
0.16
0.19
0.05
0.05
0.05
0.03
0.03
0.03
0.03
0.03
0.03
0.00
0.03
0.02
0.00
0.03
0.03
0.09
0.00
0.15
0.09
0.15
0.09
0.09
0.00
0.09
0.20
0.09
0.00
0.00
0.20
0.31
0.20
0.15
0.20
0.15
0.09
0.09
0.15
0.23
0.23
0.35
0.09
0.00
0.09
0.37
0.37
0.20
0.31
0.31
0.31
0.20
0.31
0.31
0.00
0.20
0.37
0.31
0.31
0.23
0.23
0.37
0.35
0.23
0.09
0.02
0.03
0.03
0.00
0.15
0.31
0.37
0.37
0.23
0.31
0.37
0.37
0.35
0.37
0.39
0.39
0.31
0.03
0.20
0.20
0.37
0.56
0.56
0.46
0.60
0.79
0.79
0.82
0.84
0.82
0.85
0.81
0.37
0.38
0.22
0.40
0.49
0.53
0.49
0.53
0.45
0.34
0.34
0.40
0.40
0.34
0.33
0.30
0.31
0.29
0.31
0.30
0.31
0.27
0.22
0.22
0.22
0.30
0.31
0.33
0.29
0.29
0.31
0.30
0.29
0.29
0.34
0.49
0.59
0.55
0.59
0.63
0.80
0.83
0.80
0.80
0.68
0.68
0.63
0.53
0.40
0.33
0.30
0.18
0.36
0.38
0.37
0.31
0.09
0.00
0.03
0.05
0.14
0.15
0.15
0.10
0.15
0.16
0.15
0.14
0.10
0.10
0.10
0.10
0.05
0.03
0.05
0.03
0.03
0.05
0.05
0.03
0.03
0.02
0.02
0.02
0.03
0.05
0.00
0.00
0.02
0.03
0.05
0.03
0.00
0.00
0.02
0.03
0.03
0.03
0.05
0.03
0.00
0.03
0.05
0.02
0.09
0.00
0.02
0.02
0.02
0.00
0.00
0.03
0.05
0.10
0.10
0.00
0.00
0.03
0.03
0.03
0.02
0.02
0.14
0.10
0.05
0.03
0.03
0.02
0.03
0.10
0.14
0.14
0.15
0.40
0.43
0.37
0.19
0.14
0.10
0.05
0.05
0.10
0.15
0.16
0.10
0.03
0.10
0.10
0.14
0.40
0.56
0.56
0.58
0.68
0.68
0.67
0.77
0.81
0.83
0.83
0.97
0.98
0.98
0.80
0.53
0.00
0.39
0.39
0.27
0.27
0.38
0.38
0.34
0.27
0.24
0.34
0.38
0.38
0.38
0.38
0.38
0.38
0.39
0.39
0.39
0.40
0.38
0.38
0.39
0.37
0.38
0.39
0.38
0.38
0.39
0.38
0.38
0.38
0.36
0.27
0.27
0.17
0.17
0.17
0.30
0.31
0.27
0.22
0.22
0.22
0.31
0.24
0.27
0.38
0.39
0.31
0.20
0.15
0.02
0.10
0.19
0.23
0.40
0.46
0.49
0.49
0.49
0.50
0.49
0.49
0.48
0.46
0.45
0.48
0.46
0.41
0.41
0.41
0.45
0.41
0.27
0.34
0.37
0.20
0.20
0.23
0.23
0.20
0.16
0.16
0.16
0.10
0.10
0.10
0.10
0.14
0.14
0.15
0.14
0.10
0.14
0.15
0.15
0.03
0.03
0.03
0.10
0.10
0.10
0.14
0.14
0.10
0.05
0.05
0.05
0.05
0.05
0.10
0.15
0.10
0.05
0.10
0.05
0.05
0.05
0.05
0.03
0.02
0.02
0.05
0.05
0.10
0.03
0.10
0.15
0.19
0.23
0.27
0.20
0.10
0.03
0.03
0.03
0.05
0.03
0.03
0.02
0.02
0.00
0.00
0.00
0.03
0.23
0.41
0.46
0.58
0.67
0.67
0.64
0.72
0.79
0.82
0.84
0.85
0.97
0.96
0.83
0.57
0.09
0.38
0.38
0.36
0.27
0.24
0.36
0.38
0.22
0.24
0.36
0.34
0.27
0.38
0.34
0.27
0.27
0.22
0.27
0.34
0.38
0.36
0.27
0.27
0.34
0.38
0.34
0.36
0.34
0.22
0.18
0.22
0.17
0.27
0.31
0.31
0.35
0.34
0.45
0.40
0.49
0.59
0.56
0.53
0.40
0.34
0.31
0.27
0.18
0.34
0.39
0.39
0.37
0.31
0.00
0.03
0.10
0.10
0.15
0.19
0.23
0.27
0.30
0.40
0.34
0.34
0.23
0.19
0.19
0.19
0.15
0.15
0.16
0.15
0.14
0.14
0.16
0.10
0.03
0.05
0.10
0.03
0.05
0.05
0.03
0.03
0.05
0.03
0.03
0.02
0.00
0.00
0.02
0.03
0.03
0.03
0.03
0.03
0.05
0.03
0.02
0.03
0.00
0.00
0.02
0.03
0.00
0.00
0.03
0.02
0.00
0.03
0.03
0.00
0.00
0.02
0.02
0.02
0.03
0.02
0.00
0.00
0.00
0.00
0.00
0.00
0.00
0.05
0.02
0.02
0.14
0.15
0.15
0.14
0.02
0.00
0.00
0.00
0.00
0.03
0.03
0.00
0.00
0.15
0.15
0.15
0.00
0.15
0.37
0.40
0.58
0.67
0.66
0.60
0.71
0.79
0.83
0.84
0.85
0.98
0.85
0.79
0.48
0.20
0.39
0.34
0.24
0.22
0.27
0.18
0.18
0.18
0.22
0.18
0.22
0.24
0.27
0.22
0.17
0.17
0.22
0.18
0.24
0.24
0.27
0.27
0.24
0.22
0.24
0.34
0.27
0.17
0.17
0.22
0.27
0.27
0.30
0.30
0.30
0.35
0.45
0.49
0.59
0.63
0.63
0.56
0.53
0.59
0.56
0.45
0.29
0.30
0.22
0.34
0.38
0.37
0.15
0.00
0.03
0.10
0.14
0.16
0.16
0.23
0.23
0.30
0.19
0.19
0.23
0.23
0.16
0.16
0.23
0.19
0.14
0.15
0.14
0.19
0.15
0.03
0.03
0.05
0.10
0.10
0.10
0.05
0.03
0.03
0.03
0.05
0.05
0.03
0.03
0.03
0.00
0.00
0.00
0.00
0.00
0.03
0.05
0.00
0.00
0.00
0.00
0.02
0.02
0.03
0.03
0.00
0.09
0.00
0.09
0.00
0.02
0.00
0.00
0.00
0.09
0.00
0.00
0.00
0.00
0.00
0.00
0.09
0.15
0.09
0.15
0.15
0.09
0.15
0.15
0.00
0.02
0.03
0.05
0.05
0.31
0.31
0.23
0.23
0.23
0.35
0.35
0.35
0.37
0.37
0.37
0.31
0.20
0.03
0.19
0.16
0.41
0.58
0.57
0.48
0.66
0.80
0.80
0.82
0.83
0.87
0.84
0.80
0.40
0.39
0.24
0.17
0.27
0.30
0.30
0.30
0.30
0.29
0.29
0.30
0.29
0.29
0.29
0.31
0.22
0.27
0.27
0.29
0.31
0.18
0.27
0.30
0.30
0.30
0.27
0.31
0.29
0.30
0.30
0.31
0.34
0.35
0.49
0.59
0.63
0.63
0.63
0.75
0.80
0.72
0.63
0.72
0.80
0.75
0.72
0.63
0.53
0.31
0.17
0.27
0.40
0.37
0.20
0.09
0.00
0.05
0.05
0.05
0.16
0.15
0.14
0.05
0.14
0.10
0.05
0.05
0.05
0.03
0.02
0.03
0.00
0.03
0.03
0.00
0.00
0.00
0.00
0.00
0.00
0.00
0.02
0.00
0.09
0.09
0.00
0.00
0.00
0.00
0.00
0.09
0.15
0.15
0.15
0.09
0.00
0.00
0.00
0.00
0.00
0.02
0.00
0.09
0.09
0.09
0.09
0.00
0.00
0.00
0.03
0.00
0.00
0.00
0.00
0.00
0.02
0.03
0.03
0.02
0.02
0.03
0.00
0.00
0.00
0.00
0.00
0.03
0.05
0.05
0.03
0.02
0.03
0.10
0.15
0.19
0.16
0.02
0.15
0.09
0.03
0.03
0.00
0.00
0.03
0.09
0.00
0.02
0.00
0.00
0.37
0.46
0.45
0.58
0.60
0.58
0.60
0.79
0.80
0.82
0.83
0.84
0.98
0.84
0.78
0.19
0.31
0.40
0.34
0.22
0.18
0.17
0.18
0.18
0.18
0.22
0.22
0.27
0.27
0.17
0.17
0.17
0.22
0.27
0.24
0.22
0.18
0.18
0.18
0.27
0.27
0.17
0.17
0.30
0.31
0.22
0.22
0.18
0.31
0.33
0.29
0.29
0.33
0.45
0.63
0.68
0.56
0.59
0.63
0.68
0.49
0.31
0.22
0.17
0.22
0.34
0.38
0.37
0.31
0.00
0.03
0.05
0.05
0.15
0.20
0.19
0.19
0.23
0.23
0.27
0.30
0.40
0.16
0.14
0.16
0.15
0.02
0.00
0.03
0.05
0.03
0.03
0.00
0.00
0.02
0.10
0.05
0.02
0.00
0.00
0.00
0.00
0.00
0.00
0.00
0.09
0.15
0.00
0.00
0.09
0.00
0.00
0.09
0.15
0.09
0.09
0.00
0.09
0.00
0.00
0.00
0.00
0.00
0.00
0.00
0.00
0.00
0.00
0.00
0.00
0.09
0.00
0.09
0.02
0.00
0.00
0.00
0.00
0.02
0.02
0.00
0.00
0.00
0.00
0.00
0.02
0.10
0.10
0.03
0.00
0.15
0.15
0.15
0.09
0.00
0.00
0.00
0.09
0.20
0.31
0.23
0.20
0.00
0.20
0.43
0.40
0.46
0.57
0.50
0.53
0.70
0.79
0.82
0.84
0.85
0.96
0.85
0.71
0.02
0.34
0.17
0.31
0.29
0.29
0.29
0.30
0.29
0.30
0.22
0.22
0.27
0.22
0.17
0.17
0.17
0.17
0.22
0.17
0.17
0.22
0.24
0.18
0.22
0.22
0.17
0.17
0.18
0.18
0.17
0.17
0.22
0.22
0.30
0.34
0.27
0.29
0.33
0.35
0.35
0.34
0.29
0.35
0.29
0.29
0.29
0.22
0.36
0.38
0.39
0.37
0.20
0.00
0.03
0.14
0.20
0.23
0.23
0.27
0.41
0.48
0.46
0.43
0.41
0.45
0.46
0.45
0.41
0.23
0.23
0.27
0.27
0.30
0.43
0.40
0.41
0.27
0.27
0.23
0.23
0.19
0.05
0.05
0.05
0.05
0.10
0.15
0.05
0.14
0.15
0.10
0.05
0.05
0.10
0.14
0.05
0.05
0.05
0.05
0.10
0.10
0.05
0.05
0.05
0.05
0.05
0.05
0.05
0.10
0.10
0.15
0.14
0.10
0.14
0.15
0.10
0.10
0.14
0.10
0.10
0.14
0.10
0.10
0.10
0.14
0.16
0.20
0.23
0.41
0.45
0.41
0.20
0.15
0.15
0.16
0.15
0.10
0.03
0.03
0.03
0.03
0.03
0.05
0.14
0.40
0.49
0.56
0.64
0.72
0.71
0.70
0.78
0.81
0.83
0.83
0.96
0.99
0.98
0.80
0.49
0.02
0.20
0.37
0.39
0.38
0.38
0.38
0.38
0.40
0.38
0.34
0.40
0.38
0.38
0.38
0.38
0.39
0.39
0.38
0.38
0.39
0.40
0.38
0.38
0.38
0.38
0.38
0.39
0.39
0.38
0.38
0.38
0.34
0.17
0.18
0.18
0.22
0.22
0.31
0.30
0.29
0.29
0.29
0.29
0.31
0.27
0.17
0.18
0.36
0.39
0.37
0.35
0.00
0.02
0.03
0.14
0.15
0.20
0.40
0.43
0.41
0.40
0.41
0.41
0.41
0.43
0.41
0.34
0.30
0.34
0.30
0.27
0.27
0.27
0.27
0.23
0.19
0.19
0.19
0.16
0.19
0.20
0.19
0.15
0.15
0.15
0.16
0.16
0.15
0.15
0.15
0.15
0.15
0.15
0.15
0.10
0.14
0.05
0.05
0.05
0.05
0.03
0.03
0.05
0.05
0.10
0.05
0.03
0.03
0.03
0.02
0.00
0.02
0.03
0.03
0.03
0.05
0.03
0.03
0.00
0.00
0.00
0.00
0.00
0.00
0.00
0.00
0.00
0.00
0.03
0.10
0.15
0.15
0.15
0.00
0.00
0.15
0.00
0.00
0.09
0.15
0.20
0.20
0.20
0.20
0.23
0.15
0.05
0.19
0.23
0.43
0.58
0.58
0.53
0.62
0.78
0.79
0.81
0.83
0.85
0.83
0.79
0.50
0.35
0.27
0.18
0.30
0.30
0.31
0.27
0.27
0.30
0.33
0.29
0.31
0.27
0.22
0.22
0.17
0.22
0.22
0.22
0.17
0.17
0.31
0.22
0.22
0.30
0.29
0.29
0.30
0.30
0.29
0.29
0.29
0.33
0.33
0.34
0.56
0.63
0.63
0.72
0.80
0.80
0.80
0.80
0.75
0.72
0.63
0.63
0.59
0.33
0.27
0.18
0.34
0.38
0.37
0.37
0.15
0.00
0.00
0.00
0.05
0.14
0.14
0.05
0.05
0.05
0.05
0.10
0.14
0.10
0.03
0.05
0.05
0.05
0.05
0.05
0.03
0.03
0.05
0.03
0.02
0.00
0.00
0.00
0.00
0.00
0.03
0.03
0.02
0.05
0.03
0.02
0.02
0.03
0.03
0.00
0.00
0.00
0.03
0.03
0.05
0.03
0.03
0.03
0.05
0.05
0.02
0.05
0.14
0.14
0.05
0.05
0.05
0.03
0.03
0.14
0.14
0.05
0.05
0.10
0.14
0.10
0.14
0.15
0.15
0.10
0.05
0.05
0.10
0.14
0.14
0.14
0.16
0.16
0.19
0.34
0.34
0.41
0.19
0.15
0.10
0.05
0.05
0.05
0.05
0.15
0.05
0.03
0.00
0.02
0.03
0.30
0.50
0.53
0.58
0.67
0.68
0.62
0.70
0.80
0.81
0.84
0.84
0.97
0.94
0.83
0.66
0.03
0.37
0.38
0.38
0.38
0.38
0.34
0.34
0.22
0.27
0.34
0.36
0.22
0.27
0.34
0.36
0.34
0.38
0.38
0.40
0.34
0.27
0.36
0.36
0.24
0.24
0.34
0.24
0.18
0.22
0.24
0.22
0.22
0.31
0.29
0.34
0.40
0.40
0.40
0.40
0.49
0.56
0.59
0.56
0.49
0.35
0.31
0.30
0.30
0.18
0.34
0.38
0.38
0.37
0.09
0.00
0.05
0.05
0.15
0.16
0.19
0.14
0.14
0.16
0.16
0.16
0.19
0.05
0.15
0.15
0.05
0.14
0.23
0.16
0.10
0.02
0.02
0.02
0.00
0.00
0.03
0.03
0.02
0.02
0.03
0.03
0.02
0.02
0.00
0.00
0.00
0.00
0.00
0.00
0.00
0.00
0.15
0.00
0.00
0.00
0.00
0.09
0.09
0.00
0.00
0.15
0.09
0.00
0.09
0.09
0.09
0.00
0.00
0.15
0.20
0.15
0.00
0.00
0.00
0.00
0.00
0.09
0.15
0.09
0.00
0.15
0.15
0.00
0.00
0.09
0.00
0.00
0.00
0.03
0.15
0.03
0.00
0.00
0.23
0.20
0.00
0.02
0.00
0.00
0.15
0.00
0.20
0.20
0.23
0.03
0.20
0.23
0.46
0.66
0.64
0.56
0.66
0.79
0.79
0.82
0.83
0.91
0.85
0.80
0.49
0.31
0.38
0.22
0.17
0.17
0.22
0.17
0.17
0.17
0.22
0.27
0.35
0.31
0.27
0.27
0.22
0.22
0.22
0.27
0.22
0.22
0.17
0.17
0.17
0.17
0.27
0.27
0.22
0.27
0.22
0.17
0.17
0.33
0.34
0.40
0.34
0.53
0.55
0.49
0.55
0.68
0.80
0.72
0.68
0.59
0.55
0.49
0.40
0.35
0.22
0.24
0.38
0.37
0.23
0.09
0.00
0.05
0.05
0.05
0.14
0.15
0.14
0.05
0.14
0.23
0.23
0.15
0.19
0.03
0.02
0.05
0.10
0.10
0.02
0.00
0.00
0.03
0.03
0.03
0.03
0.03
0.02
0.00
0.09
0.00
0.02
0.03
0.03
0.02
0.00
0.15
0.09
0.00
0.09
0.15
0.15
0.15
0.20
0.15
0.00
0.00
0.23
0.23
0.00
0.15
0.31
0.20
0.23
0.20
0.23
0.31
0.15
0.23
0.39
0.37
0.31
0.31
0.31
0.23
0.00
0.00
0.37
0.39
0.38
0.31
0.23
0.31
0.37
0.35
0.31
0.35
0.23
0.02
0.03
0.03
0.00
0.20
0.37
0.37
0.38
0.39
0.39
0.39
0.39
0.37
0.37
0.37
0.31
0.31
0.37
0.03
0.15
0.16
0.46
0.56
0.41
0.40
0.70
0.80
0.82
0.84
0.83
0.91
0.82
0.67
0.20
0.36
0.18
0.30
0.34
0.55
0.40
0.33
0.29
0.27
0.30
0.29
0.35
0.40
0.53
0.55
0.40
0.31
0.27
0.17
0.30
0.35
0.29
0.29
0.33
0.31
0.22
0.27
0.27
0.30
0.40
0.40
0.56
0.53
0.33
0.56
0.68
0.56
0.59
0.72
0.82
0.83
0.75
0.59
0.33
0.31
0.35
0.35
0.22
0.38
0.38
0.38
0.38
0.38
0.15
0.02
0.03
0.05
0.19
0.27
0.23
0.20
0.20
0.23
0.41
0.23
0.19
0.20
0.40
0.34
0.43
0.20
0.03
0.03
0.05
0.14
0.05
0.14
0.05
0.05
0.03
0.14
0.14
0.03
0.00
0.00
0.00
0.00
0.03
0.05
0.03
0.00
0.23
0.20
0.00
0.00
0.00
0.02
0.00
0.00
0.03
0.00
0.03
0.00
0.23
0.00
0.00
0.15
0.15
0.00
0.10
0.05
0.00
0.09
0.00
0.00
0.00
0.02
0.05
0.00
0.00
0.00
0.00
0.00
0.00
0.00
0.00
0.15
0.09
0.00
0.00
0.03
0.10
0.05
0.10
0.14
0.05
0.02
0.09
0.15
0.23
0.35
0.23
0.00
0.00
0.00
0.00
0.03
0.14
0.30
0.41
0.34
0.48
0.53
0.50
0.48
0.67
0.79
0.82
0.84
0.97
0.94
0.84
0.80
0.46
0.03
0.23
0.39
0.39
0.34
0.18
0.18
0.22
0.36
0.40
0.40
0.38
0.38
0.24
0.34
0.40
0.40
0.34
0.27
0.24
0.27
0.38
0.35
0.20
0.37
0.38
0.38
0.34
0.39
0.39
0.40
0.18
0.18
0.24
0.24
0.31
0.33
0.30
0.31
0.29
0.30
0.33
0.29
0.33
0.29
0.29
0.17
0.27
0.38
0.38
0.38
0.23
0.15
0.15
0.03
0.10
0.03
0.05
0.16
0.20
0.40
0.48
0.50
0.50
0.46
0.41
0.40
0.37
0.41
0.37
0.43
0.30
0.19
0.16
0.16
0.23
0.23
0.16
0.30
0.30
0.16
0.16
0.15
0.20
0.37
0.40
0.20
0.34
0.19
0.03
0.03
0.10
0.19
0.19
0.05
0.03
0.14
0.16
0.15
0.14
0.15
0.10
0.10
0.16
0.14
0.05
0.00
0.03
0.16
0.05
0.05
0.14
0.10
0.14
0.03
0.02
0.02
0.10
0.14
0.16
0.05
0.19
0.03
0.00
0.00
0.09
0.02
0.02
0.15
0.15
0.00
0.10
0.27
0.37
0.30
0.10
0.00
0.00
0.03
0.03
0.00
0.15
0.09
0.09
0.31
0.35
0.09
0.02
0.00
0.05
0.16
0.23
0.50
0.60
0.58
0.49
0.62
0.78
0.81
0.84
0.83
0.84
0.83
0.80
0.30
0.38
0.22
0.18
0.17
0.31
0.33
0.35
0.35
0.34
0.34
0.34
0.40
0.33
0.30
0.27
0.55
0.72
0.40
0.29
0.34
0.29
0.22
0.17
0.30
0.22
0.27
0.31
0.56
0.72
0.55
0.59
0.53
0.30
0.33
0.56
0.84
0.72
0.59
0.84
0.80
0.68
0.80
0.59
0.83
0.85
0.85
0.83
0.59
0.34
0.30
0.34
0.38
0.38
0.39
0.38
0.35
0.00
0.05
0.14
0.16
0.16
0.10
0.05
0.05
0.10
0.03
0.00
0.03
0.05
0.03
0.03
0.10
0.02
0.00
0.00
0.00
0.00
0.09
0.03
0.00
0.00
0.00
0.00
0.05
0.00
0.09
0.00
0.23
0.23
0.23
0.15
0.02
0.09
0.00
0.09
0.00
0.02
0.00
0.09
0.15
0.00
0.00
0.09
0.20
0.31
0.23
0.03
0.03
0.00
0.09
0.09
0.00
0.00
0.35
0.09
0.15
0.00
0.23
0.37
0.15
0.00
0.02
0.05
0.00
0.15
0.15
0.20
0.09
0.20
0.00
0.10
0.16
0.16
0.19
0.15
0.02
0.23
0.37
0.35
0.35
0.23
0.15
0.09
0.00
0.02
0.00
0.09
0.14
0.40
0.50
0.58
0.58
0.43
0.45
0.66
0.79
0.80
0.82
0.83
0.87
0.84
0.80
0.23
0.38
0.17
0.17
0.22
0.35
0.27
0.17
0.22
0.27
0.30
0.31
0.29
0.27
0.22
0.24
0.24
0.22
0.18
0.22
0.17
0.30
0.30
0.33
0.27
0.27
0.24
0.17
0.30
0.27
0.17
0.18
0.22
0.29
0.29
0.27
0.34
0.45
0.34
0.40
0.53
0.45
0.40
0.49
0.59
0.31
0.30
0.27
0.22
0.38
0.34
0.27
0.38
0.15
0.37
0.00
0.10
0.02
0.02
0.05
0.19
0.10
0.03
0.27
0.41
0.40
0.19
0.10
0.14
0.30
0.40
0.27
0.23
0.23
0.16
0.14
0.10
0.05
0.19
0.10
0.00
0.09
0.03
0.05
0.05
0.10
0.03
0.03
0.03
0.10
0.14
0.14
0.14
0.00
0.02
0.00
0.03
0.03
0.00
0.00
0.02
0.03
0.14
0.14
0.02
0.00
0.00
0.03
0.03
0.00
0.09
0.00
0.00
0.00
0.00
0.02
0.05
0.05
0.02
0.03
0.16
0.03
0.00
0.31
0.20
0.15
0.15
0.02
0.10
0.03
0.03
0.27
0.15
0.14
0.05
0.05
0.09
0.15
0.03
0.02
0.00
0.00
0.03
0.03
0.02
0.02
0.00
0.03
0.23
0.40
0.41
0.53
0.58
0.56
0.58
0.70
0.80
0.82
0.85
0.84
0.88
0.83
0.79
0.30
0.35
0.34
0.22
0.24
0.27
0.30
0.35
0.33
0.18
0.18
0.17
0.18
0.24
0.27
0.31
0.29
0.30
0.17
0.34
0.27
0.22
0.24
0.24
0.18
0.31
0.34
0.33
0.17
0.18
0.22
0.22
0.22
0.17
0.30
0.31
0.27
0.34
0.63
0.59
0.34
0.34
0.40
0.30
0.22
0.24
0.30
0.40
0.45
0.33
0.17
0.34
0.31
0.03
0.03
0.10
0.14
0.10
0.16
0.27
0.23
0.15
0.37
0.41
0.43
0.40
0.30
0.41
0.41
0.34
0.14
0.03
0.10
0.15
0.15
0.15
0.10
0.02
0.10
0.20
0.19
0.16
0.16
0.15
0.14
0.16
0.14
0.05
0.14
0.10
0.02
0.14
0.23
0.10
0.05
0.15
0.10
0.03
0.05
0.10
0.00
0.00
0.15
0.19
0.16
0.03
0.20
0.00
0.10
0.05
0.03
0.10
0.05
0.05
0.03
0.00
0.15
0.00
0.05
0.03
0.00
0.03
0.03
0.20
0.23
0.00
0.02
0.00
0.00
0.00
0.00
0.02
0.03
0.05
0.16
0.05
0.02
0.02
0.14
0.02
0.39
0.35
0.39
0.09
0.05
0.00
0.05
0.15
0.23
0.03
0.37
0.19
0.05
0.45
0.58
0.53
0.58
0.72
0.79
0.83
0.84
0.88
0.97
0.84
0.79
0.19
0.34
0.18
0.24
0.34
0.17
0.22
0.22
0.31
0.22
0.38
0.18
0.27
0.39
0.38
0.29
0.35
0.22
0.17
0.17
0.36
0.38
0.34
0.18
0.18
0.22
0.18
0.18
0.22
0.38
0.38
0.27
0.22
0.35
0.59
0.56
0.53
0.34
0.33
0.34
0.34
0.40
0.33
0.35
0.45
0.29
0.34
0.40
0.22
0.38
0.38
0.38
0.36
0.37
0.00
0.05
0.10
0.15
0.20
0.30
0.30
0.40
0.41
0.30
0.45
0.43
0.40
0.41
0.34
0.50
0.40
0.14
0.14
0.19
0.16
0.10
0.10
0.15
0.15
0.14
0.05
0.15
0.16
0.03
0.02
0.02
0.03
0.14
0.03
0.00
0.03
0.03
0.05
0.03
0.05
0.10
0.02
0.00
0.00
0.05
0.20
0.20
0.02
0.03
0.03
0.00
0.00
0.09
0.09
0.00
0.03
0.03
0.16
0.19
0.03
0.09
0.00
0.03
0.15
0.15
0.03
0.02
0.03
0.03
0.00
0.02
0.02
0.00
0.00
0.02
0.03
0.05
0.16
0.23
0.20
0.23
0.15
0.00
0.00
0.03
0.19
0.10
0.00
0.15
0.23
0.15
0.00
0.00
0.03
0.10
0.30
0.46
0.58
0.64
0.58
0.58
0.60
0.70
0.80
0.81
0.84
0.88
0.97
0.84
0.79
0.23
0.37
0.39
0.38
0.22
0.17
0.18
0.18
0.22
0.22
0.31
0.18
0.18
0.24
0.17
0.29
0.17
0.17
0.17
0.22
0.22
0.27
0.24
0.40
0.24
0.18
0.17
0.17
0.17
0.27
0.31
0.33
0.35
0.27
0.34
0.34
0.29
0.35
0.29
0.35
0.63
0.82
0.75
0.72
0.49
0.27
0.40
0.63
0.40
0.17
0.38
0.37
0.15
0.00
0.00
0.03
0.15
0.02
0.02
0.05
0.15
0.16
0.23
0.15
0.19
0.15
0.15
0.02
0.14
0.19
0.05
0.00
0.03
0.10
0.15
0.16
0.05
0.03
0.05
0.03
0.02
0.03
0.10
0.02
0.00
0.00
0.00
0.03
0.00
0.09
0.02
0.03
0.00
0.00
0.09
0.15
0.23
0.15
0.02
0.03
0.00
0.00
0.00
0.00
0.00
0.15
0.20
0.00
0.00
0.00
0.00
0.05
0.00
0.15
0.15
0.00
0.09
0.05
0.03
0.20
0.37
0.20
0.03
0.10
0.02
0.00
0.09
0.14
0.27
0.20
0.03
0.00
0.00
0.09
0.20
0.09
0.09
0.15
0.09
0.15
0.20
0.00
0.05
0.00
0.16
0.41
0.45
0.56
0.67
0.58
0.49
0.62
0.80
0.83
0.85
0.84
0.96
0.86
0.80
0.49
0.38
0.24
0.27
0.17
0.27
0.34
0.39
0.34
0.22
0.22
0.22
0.24
0.38
0.27
0.29
0.35
0.22
0.22
0.17
0.22
0.34
0.39
0.39
0.34
0.17
0.17
0.38
0.38
0.27
0.35
0.29
0.31
0.22
0.18
0.29
0.29
0.30
0.18
0.33
0.63
0.55
0.35
0.56
0.68
0.59
0.29
0.18
0.38
0.38
0.38
0.37
0.35
0.35
0.09
0.10
0.14
0.10
0.10
0.16
0.23
0.30
0.41
0.41
0.19
0.16
0.19
0.19
0.16
0.05
0.03
0.05
0.14
0.00
0.00
0.16
0.15
0.10
0.05
0.05
0.14
0.05
0.02
0.02
0.05
0.00
0.15
0.00
0.09
0.02
0.03
0.05
0.00
0.03
0.03
0.00
0.00
0.02
0.03
0.00
0.00
0.03
0.03
0.09
0.15
0.00
0.03
0.03
0.09
0.09
0.00
0.10
0.03
0.00
0.03
0.03
0.09
0.23
0.20
0.00
0.23
0.15
0.00
0.03
0.03
0.03
0.02
0.00
0.00
0.00
0.14
0.00
0.03
0.02
0.20
0.03
0.15
0.05
0.00
0.09
0.20
0.15
0.03
0.05
0.00
0.20
0.15
0.20
0.31
0.15
0.03
0.30
0.45
0.45
0.53
0.58
0.43
0.57
0.77
0.80
0.83
0.84
0.84
0.97
0.83
0.66
0.00
0.27
0.22
0.27
0.17
0.27
0.22
0.22
0.22
0.33
0.35
0.30
0.17
0.17
0.24
0.36
0.27
0.18
0.22
0.22
0.17
0.22
0.30
0.33
0.29
0.17
0.40
0.38
0.29
0.55
0.34
0.30
0.18
0.17
0.22
0.40
0.49
0.55
0.22
0.59
0.75
0.59
0.68
0.49
0.29
0.30
0.31
0.17
0.38
0.38
0.38
0.38
0.38
0.09
0.02
0.02
0.02
0.14
0.19
0.14
0.14
0.34
0.37
0.37
0.43
0.40
0.14
0.10
0.20
0.37
0.20
0.05
0.03
0.10
0.20
0.27
0.14
0.02
0.02
0.15
0.03
0.10
0.05
0.05
0.05
0.10
0.05
0.03
0.00
0.09
0.09
0.02
0.00
0.03
0.05
0.03
0.09
0.15
0.00
0.00
0.00
0.09
0.00
0.03
0.10
0.05
0.03
0.00
0.09
0.00
0.00
0.00
0.00
0.00
0.00
0.03
0.00
0.00
0.09
0.03
0.15
0.03
0.35
0.37
0.03
0.05
0.00
0.15
0.02
0.00
0.09
0.10
0.27
0.19
0.03
0.10
0.02
0.15
0.00
0.00
0.00
0.00
0.09
0.15
0.03
0.15
0.03
0.20
0.35
0.20
0.03
0.19
0.27
0.40
0.50
0.57
0.60
0.70
0.79
0.80
0.82
0.83
0.84
0.91
0.80
0.49
0.15
0.31
0.27
0.22
0.17
0.31
0.30
0.38
0.34
0.17
0.17
0.38
0.34
0.36
0.24
0.22
0.30
0.22
0.38
0.38
0.38
0.38
0.36
0.38
0.38
0.22
0.27
0.17
0.22
0.22
0.18
0.18
0.24
0.17
0.45
0.59
0.55
0.35
0.29
0.34
0.53
0.40
0.45
0.40
0.29
0.29
0.29
0.27
0.22
0.38
0.39
0.31
0.02
0.02
0.03
0.15
0.02
0.09
0.16
0.41
0.41
0.43
0.45
0.40
0.40
0.34
0.19
0.37
0.37
0.14
0.14
0.16
0.05
0.10
0.15
0.10
0.03
0.05
0.02
0.14
0.23
0.14
0.00
0.09
0.00
0.03
0.03
0.10
0.10
0.02
0.00
0.03
0.03
0.03
0.15
0.03
0.00
0.00
0.09
0.15
0.00
0.00
0.03
0.14
0.15
0.05
0.03
0.05
0.03
0.15
0.09
0.00
0.02
0.05
0.02
0.00
0.03
0.05
0.00
0.09
0.00
0.09
0.15
0.03
0.03
0.02
0.02
0.03
0.14
0.00
0.00
0.14
0.15
0.14
0.10
0.03
0.15
0.02
0.00
0.03
0.00
0.15
0.00
0.09
0.09
0.00
0.09
0.23
0.15
0.10
0.30
0.43
0.41
0.41
0.49
0.48
0.56
0.67
0.79
0.80
0.82
0.83
0.96
0.86
0.79
0.53
0.15
0.37
0.35
0.38
0.24
0.29
0.59
0.30
0.22
0.31
0.22
0.24
0.24
0.22
0.36
0.40
0.30
0.29
0.30
0.22
0.22
0.22
0.34
0.24
0.17
0.22
0.24
0.22
0.29
0.30
0.18
0.18
0.29
0.29
0.18
0.18
0.30
0.34
0.49
0.72
0.75
0.83
0.68
0.45
0.22
0.22
0.29
0.31
0.27
0.38
0.20
0.37
0.37
0.31
0.00
0.03
0.05
0.15
0.41
0.23
0.19
0.27
0.40
0.34
0.27
0.19
0.15
0.05
0.02
0.10
0.30
0.34
0.15
0.05
0.10
0.05
0.00
0.00
0.03
0.03
0.00
0.00
0.03
0.14
0.19
0.05
0.00
0.00
0.00
0.02
0.02
0.37
0.00
0.00
0.03
0.10
0.03
0.09
0.00
0.10
0.03
0.00
0.03
0.02
0.20
0.03
0.15
0.03
0.15
0.09
0.00
0.03
0.05
0.02
0.00
0.02
0.00
0.09
0.00
0.09
0.00
0.00
0.03
0.05
0.05
0.23
0.20
0.09
0.09
0.15
0.03
0.03
0.09
0.02
0.00
0.03
0.03
0.03
0.03
0.03
0.02
0.00
0.02
0.02
0.02
0.00
0.00
0.00
0.00
0.00
0.00
0.00
0.00
0.03
0.43
0.72
0.78
0.56
0.37
0.38
0.36
0.22
0.55
0.84
0.85
0.84
0.30
0.38
0.09
0.00
0.00
0.03
0.03
0.03
0.03
0.03
0.03
0.03
0.03
0.03
0.03
0.03
0.03
0.03
0.03
0.03
0.03
0.03
0.03
0.03
0.03
0.03
0.05
0.03
0.03
0.03
0.03
0.03
0.03
0.03
0.03
0.02
0.00
0.00
0.00
0.00
0.00
0.09
0.15
0.15
0.31
0.35
0.35
0.35
0.35
0.37
0.37
0.35
0.35
0.35
0.31
0.23
0.09
0.00
0.00
0.00
0.00
0.02
0.03
0.03
0.03
0.10
0.05
0.05
0.05
0.20
0.20
0.19
0.16
0.05
0.02
0.03
0.05
0.03
0.14
0.16
0.03
0.00
0.00
0.03
0.03
0.02
0.00
0.02
0.03
0.00
0.05
0.05
0.02
0.00
0.02
0.09
0.02
0.05
0.02
0.00
0.00
0.02
0.02
0.02
0.05
0.00
0.15
0.09
0.00
0.03
0.03
0.03
0.00
0.00
0.09
0.09
0.15
0.09
0.00
0.00
0.03
0.03
0.00
0.09
0.15
0.09
0.31
0.37
0.35
0.09
0.03
0.03
0.00
0.02
0.00
0.00
0.03
0.03
0.03
0.00
0.03
0.00
0.00
0.00
0.09
0.15
0.31
0.15
0.09
0.23
0.20
0.15
0.02
0.19
0.23
0.34
0.48
0.58
0.58
0.67
0.79
0.80
0.82
0.85
0.84
0.84
0.82
0.67
0.15
0.39
0.38
0.27
0.18
0.27
0.18
0.24
0.18
0.17
0.22
0.18
0.18
0.18
0.18
0.18
0.36
0.34
0.22
0.27
0.38
0.27
0.17
0.34
0.24
0.22
0.17
0.24
0.22
0.24
0.22
0.17
0.17
0.22
0.17
0.33
0.40
0.35
0.53
0.59
0.59
0.59
0.55
0.34
0.35
0.34
0.29
0.34
0.38
0.27
0.34
0.38
0.37
0.00
0.00
0.00
0.05
0.15
0.15
0.19
0.20
0.23
0.30
0.27
0.16
0.27
0.40
0.27
0.23
0.16
0.15
0.16
0.19
0.15
0.10
0.16
0.23
0.19
0.20
0.23
0.10
0.00
0.00
0.09
0.00
0.03
0.03
0.03
0.02
0.03
0.00
0.00
0.00
0.03
0.03
0.10
0.00
0.15
0.00
0.00
0.00
0.00
0.02
0.02
0.03
0.00
0.09
0.00
0.00
0.20
0.20
0.00
0.00
0.03
0.02
0.00
0.00
0.00
0.00
0.00
0.00
0.00
0.00
0.15
0.23
0.00
0.03
0.00
0.00
0.15
0.00
0.00
0.20
0.15
0.14
0.05
0.00
0.05
0.03
0.02
0.00
0.00
0.09
0.15
0.15
0.03
0.23
0.20
0.20
0.31
0.09
0.02
0.03
0.40
0.37
0.40
0.46
0.46
0.41
0.58
0.79
0.79
0.82
0.84
0.83
0.86
0.81
0.71
0.05
0.38
0.38
0.22
0.18
0.17
0.17
0.17
0.17
0.17
0.24
0.24
0.31
0.18
0.22
0.34
0.38
0.24
0.22
0.18
0.18
0.37
0.38
0.18
0.22
0.22
0.34
0.38
0.17
0.17
0.27
0.18
0.18
0.22
0.18
0.31
0.33
0.33
0.35
0.49
0.55
0.40
0.35
0.33
0.30
0.27
0.38
0.22
0.17
0.27
0.39
0.31
0.37
0.00
0.00
0.15
0.15
0.20
0.16
0.16
0.34
0.53
0.49
0.48
0.46
0.41
0.41
0.30
0.23
0.23
0.34
0.15
0.10
0.10
0.05
0.03
0.05
0.14
0.16
0.14
0.03
0.02
0.02
0.05
0.05
0.10
0.15
0.03
0.02
0.02
0.10
0.16
0.16
0.14
0.02
0.00
0.02
0.10
0.02
0.00
0.00
0.05
0.05
0.03
0.03
0.03
0.03
0.03
0.14
0.03
0.03
0.19
0.05
0.03
0.00
0.09
0.00
0.03
0.03
0.14
0.10
0.00
0.00
0.02
0.02
0.00
0.02
0.03
0.10
0.10
0.02
0.00
0.00
0.03
0.14
0.19
0.30
0.34
0.03
0.03
0.03
0.03
0.02
0.03
0.14
0.00
0.20
0.15
0.15
0.00
0.10
0.30
0.43
0.30
0.41
0.58
0.60
0.58
0.70
0.79
0.83
0.85
0.83
0.95
0.83
0.80
0.46
0.09
0.40
0.22
0.18
0.24
0.24
0.24
0.27
0.24
0.17
0.24
0.27
0.17
0.18
0.24
0.34
0.22
0.27
0.22
0.24
0.24
0.27
0.27
0.24
0.38
0.22
0.18
0.17
0.17
0.22
0.22
0.18
0.18
0.17
0.30
0.29
0.29
0.33
0.34
0.35
0.33
0.45
0.59
0.63
0.59
0.35
0.22
0.22
0.22
0.38
0.39
0.23
0.31
0.23
0.00
0.03
0.03
0.14
0.23
0.40
0.27
0.30
0.27
0.30
0.30
0.16
0.20
0.20
0.20
0.40
0.16
0.15
0.15
0.16
0.15
0.15
0.19
0.16
0.05
0.03
0.14
0.16
0.19
0.16
0.15
0.15
0.16
0.14
0.14
0.16
0.16
0.23
0.34
0.14
0.03
0.03
0.10
0.14
0.05
0.14
0.15
0.16
0.15
0.05
0.05
0.05
0.19
0.16
0.14
0.05
0.05
0.05
0.05
0.05
0.16
0.14
0.05
0.10
0.14
0.10
0.14
0.19
0.15
0.03
0.02
0.03
0.15
0.10
0.03
0.10
0.10
0.14
0.19
0.20
0.34
0.37
0.16
0.10
0.05
0.10
0.15
0.15
0.10
0.14
0.03
0.00
0.02
0.02
0.05
0.10
0.45
0.49
0.49
0.66
0.72
0.64
0.60
0.77
0.80
0.82
0.84
0.86
0.98
0.85
0.80
0.43
0.02
0.20
0.39
0.38
0.34
0.38
0.38
0.39
0.39
0.38
0.36
0.34
0.38
0.38
0.39
0.37
0.39
0.38
0.39
0.39
0.38
0.38
0.38
0.37
0.37
0.37
0.39
0.39
0.34
0.36
0.18
0.18
0.27
0.18
0.17
0.17
0.17
0.17
0.30
0.35
0.34
0.31
0.22
0.18
0.22
0.22
0.17
0.18
0.34
0.38
0.35
0.15
0.00
0.03
0.10
0.10
0.20
0.41
0.45
0.37
0.16
0.27
0.40
0.43
0.34
0.41
0.27
0.27
0.27
0.27
0.30
0.23
0.23
0.27
0.19
0.15
0.16
0.20
0.16
0.20
0.23
0.15
0.15
0.15
0.15
0.14
0.10
0.05
0.05
0.15
0.20
0.16
0.10
0.10
0.14
0.15
0.14
0.16
0.20
0.14
0.05
0.05
0.14
0.15
0.14
0.02
0.03
0.10
0.15
0.14
0.14
0.14
0.19
0.14
0.10
0.15
0.15
0.05
0.15
0.14
0.03
0.10
0.14
0.15
0.15
0.15
0.16
0.19
0.15
0.05
0.05
0.16
0.23
0.40
0.45
0.40
0.23
0.14
0.03
0.03
0.05
0.10
0.05
0.03
0.02
0.03
0.05
0.05
0.05
0.16
0.40
0.50
0.50
0.67
0.67
0.62
0.64
0.79
0.79
0.81
0.83
0.88
0.98
0.84
0.77
0.19
0.23
0.38
0.36
0.27
0.34
0.34
0.27
0.34
0.27
0.34
0.36
0.34
0.24
0.24
0.27
0.27
0.34
0.36
0.36
0.38
0.38
0.27
0.27
0.34
0.38
0.38
0.24
0.24
0.27
0.22
0.17
0.17
0.17
0.22
0.27
0.31
0.33
0.34
0.40
0.45
0.53
0.59
0.63
0.53
0.40
0.34
0.31
0.18
0.27
0.27
0.38
0.37
0.23
0.09
0.00
0.03
0.05
0.10
0.15
0.16
0.20
0.20
0.20
0.20
0.30
0.23
0.20
0.15
0.05
0.10
0.14
0.05
0.05
0.10
0.15
0.15
0.15
0.15
0.05
0.05
0.14
0.05
0.05
0.10
0.14
0.03
0.02
0.00
0.02
0.03
0.03
0.03
0.02
0.03
0.02
0.00
0.03
0.03
0.02
0.00
0.00
0.00
0.00
0.00
0.03
0.03
0.03
0.03
0.02
0.02
0.10
0.00
0.00
0.09
0.09
0.00
0.00
0.02
0.02
0.00
0.00
0.02
0.03
0.00
0.09
0.09
0.09
0.00
0.02
0.03
0.02
0.03
0.05
0.15
0.16
0.05
0.00
0.15
0.09
0.09
0.15
0.00
0.00
0.00
0.00
0.00
0.09
0.00
0.10
0.34
0.27
0.40
0.58
0.64
0.60
0.66
0.79
0.79
0.84
0.84
0.85
0.98
0.83
0.58
0.00
0.39
0.38
0.38
0.34
0.22
0.22
0.38
0.38
0.36
0.24
0.22
0.17
0.22
0.24
0.27
0.27
0.24
0.24
0.27
0.24
0.34
0.34
0.38
0.36
0.34
0.22
0.18
0.27
0.24
0.18
0.18
0.36
0.27
0.18
0.30
0.29
0.33
0.35
0.34
0.40
0.53
0.56
0.34
0.34
0.35
0.30
0.18
0.22
0.24
0.34
0.38
0.37
0.20
0.00
0.02
0.05
0.16
0.20
0.20
0.37
0.41
0.41
0.41
0.41
0.27
0.20
0.19
0.19
0.20
0.19
0.16
0.16
0.19
0.19
0.14
0.16
0.19
0.10
0.10
0.05
0.10
0.05
0.02
0.02
0.15
0.14
0.05
0.03
0.03
0.05
0.14
0.15
0.15
0.05
0.03
0.02
0.03
0.05
0.05
0.05
0.03
0.03
0.05
0.03
0.03
0.05
0.10
0.03
0.02
0.00
0.02
0.03
0.03
0.03
0.05
0.05
0.05
0.05
0.10
0.14
0.10
0.00
0.00
0.03
0.03
0.03
0.03
0.05
0.02
0.02
0.00
0.03
0.05
0.14
0.16
0.27
0.27
0.15
0.05
0.03
0.00
0.00
0.02
0.03
0.03
0.03
0.00
0.00
0.00
0.00
0.00
0.15
0.41
0.46
0.58
0.70
0.67
0.60
0.70
0.80
0.82
0.85
0.85
0.94
0.97
0.80
0.41
0.15
0.38
0.38
0.24
0.22
0.27
0.36
0.38
0.38
0.27
0.18
0.18
0.22
0.22
0.22
0.34
0.27
0.27
0.34
0.36
0.27
0.34
0.38
0.38
0.34
0.22
0.22
0.24
0.27
0.18
0.17
0.22
0.18
0.18
0.30
0.29
0.29
0.34
0.45
0.34
0.34
0.53
0.56
0.49
0.40
0.35
0.29
0.30
0.17
0.27
0.36
0.38
0.31
0.00
0.00
0.02
0.03
0.10
0.14
0.16
0.20
0.23
0.23
0.23
0.23
0.23
0.27
0.27
0.20
0.20
0.16
0.19
0.16
0.19
0.19
0.15
0.16
0.15
0.10
0.10
0.14
0.14
0.10
0.10
0.05
0.05
0.05
0.05
0.05
0.05
0.10
0.10
0.14
0.05
0.05
0.10
0.14
0.05
0.03
0.03
0.03
0.05
0.05
0.05
0.05
0.05
0.05
0.10
0.14
0.14
0.03
0.03
0.05
0.10
0.05
0.00
0.00
0.02
0.00
0.03
0.03
0.03
0.03
0.00
0.03
0.03
0.03
0.03
0.02
0.03
0.03
0.03
0.03
0.03
0.15
0.19
0.20
0.16
0.10
0.02
0.00
0.03
0.02
0.02
0.00
0.00
0.00
0.00
0.00
0.00
0.02
0.05
0.30
0.41
0.56
0.66
0.67
0.60
0.66
0.79
0.79
0.82
0.83
0.87
0.96
0.83
0.60
0.20
0.38
0.38
0.34
0.18
0.18
0.18
0.18
0.22
0.22
0.22
0.27
0.27
0.24
0.17
0.17
0.27
0.27
0.22
0.24
0.36
0.36
0.24
0.24
0.27
0.24
0.22
0.22
0.22
0.18
0.24
0.18
0.17
0.30
0.30
0.29
0.29
0.40
0.40
0.49
0.55
0.59
0.59
0.59
0.49
0.40
0.34
0.35
0.18
0.18
0.36
0.39
0.37
0.35
0.20
0.00
0.00
0.03
0.10
0.14
0.16
0.20
0.20
0.23
0.23
0.19
0.15
0.15
0.16
0.16
0.14
0.10
0.14
0.15
0.05
0.03
0.03
0.02
0.02
0.05
0.14
0.15
0.02
0.02
0.03
0.03
0.03
0.03
0.03
0.03
0.05
0.03
0.03
0.03
0.03
0.03
0.03
0.03
0.02
0.03
0.03
0.02
0.02
0.03
0.03
0.02
0.00
0.00
0.00
0.02
0.02
0.02
0.02
0.00
0.00
0.02
0.00
0.00
0.00
0.00
0.00
0.09
0.02
0.02
0.00
0.00
0.03
0.03
0.03
0.03
0.09
0.15
0.00
0.03
0.00
0.00
0.05
0.10
0.15
0.23
0.15
0.02
0.09
0.15
0.20
0.15
0.09
0.15
0.20
0.20
0.23
0.23
0.15
0.02
0.20
0.37
0.40
0.56
0.57
0.53
0.60
0.76
0.81
0.83
0.84
0.83
0.85
0.81
0.67
0.09
0.34
0.17
0.17
0.31
0.29
0.29
0.27
0.27
0.27
0.27
0.30
0.31
0.29
0.35
0.34
0.29
0.29
0.30
0.17
0.17
0.17
0.27
0.29
0.29
0.29
0.29
0.29
0.29
0.29
0.29
0.33
0.40
0.34
0.35
0.49
0.63
0.63
0.68
0.80
0.82
0.80
0.80
0.83
0.75
0.80
0.63
0.59
0.34
0.29
0.29
0.17
0.34
0.38
0.38
0.35
0.20
0.00
0.00
0.00
0.00
0.02
0.03
0.03
0.03
0.03
0.02
0.02
0.03
0.03
0.03
0.03
0.03
0.02
0.03
0.00
0.00
0.00
0.00
0.00
0.00
0.00
0.00
0.00
0.09
0.09
0.00
0.00
0.00
0.09
0.15
0.09
0.15
0.00
0.00
0.15
0.20
0.09
0.00
0.00
0.00
0.15
0.20
0.15
0.15
0.00
0.09
0.09
0.00
0.00
0.00
0.00
0.09
0.15
0.20
0.15
0.00
0.00
0.00
0.00
0.00
0.00
0.00
0.00
0.00
0.02
0.02
0.00
0.00
0.00
0.00
0.00
0.00
0.00
0.03
0.05
0.15
0.23
0.23
0.16
0.03
0.00
0.00
0.00
0.00
0.00
0.00
0.03
0.05
0.03
0.03
0.03
0.14
0.37
0.45
0.46
0.58
0.67
0.64
0.60
0.77
0.80
0.82
0.83
0.91
0.97
0.83
0.79
0.20
0.23
0.37
0.38
0.38
0.34
0.36
0.34
0.27
0.27
0.40
0.38
0.34
0.27
0.38
0.39
0.39
0.34
0.36
0.38
0.40
0.36
0.24
0.34
0.36
0.34
0.27
0.27
0.36
0.38
0.38
0.27
0.27
0.27
0.18
0.27
0.22
0.29
0.34
0.34
0.29
0.45
0.45
0.34
0.35
0.35
0.33
0.27
0.17
0.24
0.36
0.34
0.39
0.31
0.15
0.02
0.03
0.14
0.15
0.16
0.16
0.34
0.41
0.43
0.45
0.34
0.19
0.20
0.23
0.19
0.16
0.15
0.14
0.10
0.16
0.20
0.20
0.14
0.10
0.10
0.10
0.14
0.03
0.03
0.05
0.03
0.03
0.03
0.15
0.14
0.02
0.02
0.02
0.03
0.05
0.14
0.15
0.03
0.00
0.03
0.03
0.03
0.00
0.00
0.02
0.03
0.03
0.02
0.03
0.10
0.05
0.00
0.00
0.00
0.00
0.00
0.00
0.03
0.03
0.05
0.03
0.03
0.03
0.03
0.03
0.03
0.05
0.00
0.02
0.03
0.00
0.00
0.05
0.05
0.14
0.15
0.16
0.40
0.19
0.03
0.02
0.02
0.02
0.00
0.00
0.00
0.02
0.03
0.02
0.09
0.15
0.02
0.27
0.41
0.48
0.60
0.67
0.64
0.62
0.72
0.80
0.82
0.85
0.84
0.91
0.83
0.80
0.30
0.23
0.38
0.27
0.24
0.24
0.27
0.17
0.22
0.22
0.17
0.24
0.18
0.17
0.24
0.36
0.34
0.22
0.24
0.24
0.24
0.18
0.22
0.18
0.22
0.17
0.18
0.24
0.27
0.24
0.18
0.22
0.22
0.27
0.27
0.40
0.53
0.49
0.55
0.68
0.59
0.40
0.55
0.59
0.56
0.45
0.34
0.17
0.18
0.33
0.17
0.36
0.37
0.37
0.35
0.00
0.02
0.03
0.10
0.20
0.20
0.20
0.23
0.20
0.20
0.15
0.14
0.15
0.16
0.19
0.19
0.14
0.14
0.14
0.10
0.05
0.05
0.14
0.10
0.03
0.02
0.02
0.03
0.03
0.05
0.05
0.05
0.03
0.03
0.03
0.03
0.02
0.02
0.02
0.02
0.02
0.03
0.03
0.05
0.05
0.00
0.15
0.00
0.03
0.00
0.02
0.03
0.00
0.00
0.03
0.02
0.00
0.00
0.00
0.00
0.00
0.02
0.00
0.00
0.02
0.02
0.03
0.02
0.02
0.02
0.00
0.00
0.02
0.15
0.20
0.09
0.02
0.02
0.03
0.05
0.10
0.16
0.20
0.19
0.03
0.09
0.23
0.31
0.20
0.09
0.00
0.00
0.09
0.15
0.20
0.15
0.03
0.19
0.27
0.41
0.58
0.64
0.58
0.58
0.76
0.81
0.83
0.84
0.84
0.88
0.84
0.76
0.02
0.37
0.38
0.22
0.17
0.18
0.17
0.22
0.17
0.17
0.22
0.22
0.22
0.22
0.22
0.18
0.18
0.27
0.22
0.18
0.36
0.22
0.18
0.22
0.22
0.18
0.18
0.18
0.18
0.17
0.17
0.22
0.18
0.17
0.27
0.33
0.34
0.33
0.29
0.33
0.33
0.45
0.59
0.63
0.68
0.56
0.40
0.34
0.31
0.18
0.27
0.34
0.37
0.31
0.09
0.00
0.02
0.02
0.02
0.15
0.34
0.20
0.20
0.19
0.20
0.20
0.20
0.19
0.34
0.27
0.15
0.05
0.05
0.05
0.05
0.10
0.14
0.05
0.10
0.10
0.03
0.10
0.16
0.05
0.02
0.02
0.00
0.00
0.02
0.02
0.03
0.00
0.00
0.02
0.03
0.03
0.05
0.10
0.10
0.02
0.00
0.00
0.00
0.00
0.00
0.00
0.02
0.02
0.00
0.00
0.00
0.00
0.00
0.09
0.00
0.00
0.02
0.00
0.00
0.09
0.09
0.00
0.09
0.15
0.09
0.00
0.00
0.15
0.00
0.09
0.20
0.15
0.09
0.00
0.00
0.15
0.14
0.02
0.09
0.31
0.37
0.31
0.20
0.15
0.15
0.20
0.20
0.20
0.37
0.35
0.15
0.15
0.30
0.20
0.37
0.49
0.49
0.48
0.66
0.80
0.80
0.83
0.83
0.85
0.83
0.81
0.43
0.38
0.22
0.27
0.30
0.30
0.30
0.27
0.22
0.22
0.22
0.30
0.31
0.22
0.31
0.22
0.17
0.27
0.22
0.17
0.31
0.29
0.27
0.27
0.31
0.29
0.29
0.29
0.30
0.31
0.27
0.22
0.30
0.29
0.35
0.49
0.56
0.59
0.63
0.63
0.72
0.82
0.83
0.80
0.75
0.59
0.55
0.56
0.55
0.49
0.33
0.22
0.27
0.36
0.39
0.20
0.09
0.00
0.03
0.03
0.05
0.02
0.10
0.10
0.10
0.15
0.10
0.05
0.05
0.15
0.05
0.02
0.02
0.02
0.03
0.03
0.02
0.00
0.02
0.02
0.00
0.02
0.03
0.03
0.00
0.00
0.03
0.03
0.02
0.03
0.03
0.03
0.00
0.02
0.00
0.00
0.00
0.03
0.03
0.02
0.02
0.00
0.05
0.03
0.03
0.05
0.03
0.03
0.02
0.02
0.05
0.05
0.03
0.02
0.00
0.00
0.03
0.10
0.05
0.05
0.03
0.03
0.03
0.02
0.03
0.03
0.03
0.03
0.00
0.02
0.03
0.03
0.05
0.15
0.10
0.15
0.16
0.23
0.19
0.03
0.03
0.05
0.00
0.00
0.05
0.05
0.00
0.03
0.03
0.02
0.00
0.00
0.15
0.40
0.45
0.56
0.66
0.66
0.62
0.67
0.79
0.79
0.83
0.84
0.95
0.88
0.84
0.67
0.03
0.39
0.38
0.34
0.22
0.27
0.36
0.34
0.22
0.24
0.36
0.27
0.27
0.38
0.24
0.27
0.34
0.36
0.27
0.18
0.24
0.24
0.27
0.27
0.18
0.27
0.24
0.34
0.24
0.18
0.18
0.18
0.30
0.27
0.31
0.34
0.45
0.40
0.40
0.53
0.59
0.59
0.49
0.53
0.55
0.34
0.33
0.31
0.22
0.22
0.27
0.38
0.37
0.20
0.00
0.03
0.03
0.03
0.03
0.16
0.16
0.27
0.27
0.23
0.16
0.19
0.20
0.20
0.23
0.16
0.15
0.15
0.15
0.15
0.03
0.05
0.14
0.10
0.05
0.03
0.03
0.05
0.05
0.05
0.03
0.00
0.03
0.10
0.03
0.03
0.02
0.02
0.03
0.03
0.00
0.02
0.03
0.05
0.05
0.03
0.03
0.00
0.00
0.00
0.00
0.03
0.00
0.02
0.03
0.00
0.00
0.00
0.03
0.03
0.09
0.00
0.00
0.00
0.00
0.02
0.03
0.02
0.02
0.03
0.00
0.09
0.09
0.00
0.00
0.00
0.00
0.02
0.00
0.00
0.02
0.05
0.14
0.15
0.19
0.15
0.03
0.00
0.00
0.00
0.00
0.09
0.09
0.15
0.15
0.09
0.09
0.15
0.02
0.37
0.34
0.43
0.60
0.67
0.60
0.62
0.77
0.80
0.83
0.84
0.84
0.88
0.82
0.70
0.03
0.38
0.34
0.24
0.18
0.22
0.22
0.18
0.22
0.17
0.22
0.30
0.17
0.17
0.17
0.17
0.18
0.24
0.27
0.38
0.22
0.18
0.17
0.17
0.22
0.22
0.17
0.17
0.17
0.17
0.17
0.22
0.22
0.22
0.30
0.33
0.34
0.40
0.49
0.59
0.63
0.63
0.63
0.59
0.59
0.49
0.33
0.29
0.29
0.27
0.18
0.36
0.38
0.35
0.09
0.00
0.00
0.03
0.15
0.15
0.16
0.19
0.19
0.23
0.27
0.27
0.23
0.19
0.16
0.15
0.14
0.14
0.14
0.03
0.03
0.05
0.03
0.03
0.03
0.03
0.05
0.03
0.03
0.03
0.05
0.03
0.02
0.02
0.02
0.00
0.09
0.00
0.00
0.00
0.00
0.03
0.03
0.00
0.00
0.00
0.02
0.00
0.00
0.00
0.00
0.00
0.00
0.02
0.02
0.15
0.00
0.00
0.00
0.00
0.02
0.02
0.00
0.00
0.00
0.03
0.03
0.03
0.02
0.09
0.20
0.09
0.00
0.00
0.00
0.00
0.00
0.00
0.02
0.00
0.02
0.05
0.14
0.19
0.19
0.03
0.00
0.15
0.15
0.20
0.00
0.00
0.00
0.00
0.09
0.09
0.20
0.15
0.05
0.43
0.34
0.57
0.67
0.67
0.57
0.67
0.79
0.80
0.83
0.82
0.87
0.85
0.79
0.49
0.15
0.38
0.34
0.17
0.17
0.22
0.22
0.18
0.18
0.18
0.22
0.22
0.18
0.22
0.22
0.17
0.18
0.24
0.24
0.27
0.34
0.38
0.34
0.24
0.22
0.22
0.18
0.18
0.18
0.18
0.18
0.18
0.24
0.17
0.27
0.31
0.29
0.35
0.49
0.59
0.63
0.68
0.68
0.53
0.34
0.34
0.35
0.30
0.22
0.22
0.24
0.38
0.35
0.23
0.15
0.00
0.00
0.05
0.16
0.19
0.23
0.23
0.23
0.27
0.23
0.16
0.20
0.16
0.16
0.16
0.14
0.10
0.05
0.03
0.03
0.03
0.03
0.05
0.05
0.03
0.03
0.03
0.00
0.02
0.03
0.03
0.03
0.02
0.00
0.00
0.00
0.00
0.00
0.00
0.00
0.00
0.09
0.09
0.00
0.00
0.00
0.09
0.00
0.09
0.15
0.20
0.15
0.00
0.20
0.20
0.31
0.15
0.15
0.00
0.00
0.00
0.15
0.00
0.09
0.09
0.09
0.15
0.00
0.09
0.15
0.20
0.20
0.23
0.20
0.20
0.20
0.20
0.15
0.15
0.09
0.00
0.02
0.03
0.03
0.09
0.35
0.37
0.37
0.37
0.31
0.20
0.20
0.23
0.37
0.23
0.23
0.31
0.23
0.10
0.15
0.27
0.53
0.53
0.45
0.53
0.75
0.80
0.83
0.84
0.83
0.88
0.83
0.62
0.23
0.34
0.17
0.30
0.29
0.29
0.29
0.31
0.30
0.30
0.30
0.33
0.35
0.33
0.29
0.29
0.31
0.27
0.27
0.31
0.27
0.22
0.22
0.27
0.22
0.27
0.22
0.29
0.33
0.35
0.35
0.35
0.35
0.34
0.34
0.29
0.55
0.63
0.59
0.63
0.75
0.80
0.80
0.80
0.80
0.68
0.55
0.40
0.33
0.29
0.33
0.22
0.27
0.38
0.35
0.15
0.00
0.02
0.02
0.05
0.05
0.14
0.16
0.16
0.14
0.14
0.14
0.16
0.14
0.15
0.14
0.10
0.15
0.14
0.15
0.15
0.03
0.03
0.05
0.15
0.05
0.03
0.05
0.05
0.05
0.03
0.10
0.15
0.10
0.02
0.02
0.03
0.03
0.03
0.05
0.05
0.10
0.05
0.14
0.10
0.03
0.03
0.03
0.03
0.03
0.05
0.05
0.03
0.03
0.03
0.05
0.05
0.05
0.05
0.10
0.00
0.03
0.03
0.03
0.03
0.03
0.03
0.05
0.05
0.05
0.05
0.02
0.03
0.03
0.02
0.03
0.05
0.03
0.03
0.05
0.10
0.19
0.23
0.15
0.05
0.00
0.00
0.15
0.15
0.00
0.00
0.15
0.15
0.09
0.15
0.20
0.15
0.02
0.34
0.34
0.34
0.58
0.60
0.58
0.58
0.75
0.80
0.83
0.84
0.84
0.97
0.84
0.77
0.16
0.37
0.34
0.18
0.17
0.22
0.22
0.17
0.22
0.22
0.18
0.17
0.17
0.18
0.24
0.27
0.24
0.22
0.27
0.18
0.17
0.22
0.17
0.27
0.18
0.18
0.22
0.27
0.22
0.27
0.22
0.17
0.31
0.30
0.31
0.29
0.29
0.34
0.34
0.45
0.59
0.56
0.59
0.63
0.56
0.56
0.53
0.40
0.29
0.17
0.24
0.36
0.40
0.37
0.15
0.02
0.03
0.05
0.14
0.20
0.23
0.19
0.20
0.20
0.16
0.19
0.16
0.16
0.16
0.15
0.14
0.05
0.10
0.10
0.05
0.14
0.15
0.05
0.05
0.05
0.05
0.10
0.03
0.03
0.03
0.03
0.00
0.00
0.03
0.03
0.02
0.00
0.00
0.02
0.02
0.03
0.05
0.02
0.09
0.00
0.00
0.02
0.03
0.00
0.00
0.00
0.00
0.00
0.00
0.00
0.03
0.02
0.03
0.00
0.00
0.00
0.00
0.00
0.00
0.00
0.00
0.02
0.00
0.03
0.03
0.02
0.00
0.00
0.00
0.00
0.00
0.03
0.14
0.16
0.16
0.14
0.02
0.00
0.00
0.00
0.00
0.00
0.00
0.00
0.00
0.09
0.09
0.15
0.23
0.00
0.20
0.34
0.46
0.64
0.67
0.58
0.66
0.78
0.79
0.83
0.84
0.91
0.98
0.81
0.49
0.23
0.40
0.34
0.18
0.18
0.18
0.22
0.18
0.17
0.17
0.18
0.18
0.17
0.17
0.17
0.18
0.18
0.22
0.24
0.22
0.22
0.24
0.22
0.18
0.18
0.22
0.24
0.24
0.22
0.17
0.22
0.22
0.30
0.29
0.29
0.35
0.35
0.35
0.45
0.49
0.63
0.68
0.59
0.59
0.53
0.40
0.35
0.35
0.31
0.17
0.24
0.38
0.38
0.31
0.15
0.00
0.02
0.10
0.15
0.15
0.19
0.27
0.34
0.30
0.20
0.16
0.15
0.16
0.16
0.16
0.15
0.15
0.15
0.15
0.15
0.15
0.10
0.05
0.05
0.05
0.10
0.05
0.05
0.03
0.02
0.03
0.05
0.05
0.03
0.03
0.10
0.03
0.00
0.02
0.03
0.03
0.03
0.00
0.02
0.02
0.02
0.03
0.03
0.00
0.00
0.02
0.03
0.03
0.00
0.00
0.00
0.03
0.03
0.03
0.00
0.00
0.00
0.00
0.00
0.00
0.02
0.00
0.03
0.00
0.00
0.00
0.00
0.00
0.00
0.00
0.00
0.02
0.03
0.05
0.15
0.16
0.14
0.03
0.00
0.00
0.00
0.00
0.09
0.09
0.09
0.15
0.09
0.00
0.15
0.15
0.00
0.16
0.30
0.43
0.60
0.67
0.60
0.60
0.76
0.81
0.82
0.83
0.85
0.96
0.83
0.66
0.00
0.38
0.34
0.18
0.18
0.17
0.22
0.17
0.17
0.18
0.18
0.22
0.27
0.18
0.18
0.18
0.22
0.22
0.22
0.22
0.24
0.22
0.22
0.17
0.18
0.24
0.24
0.18
0.24
0.22
0.18
0.17
0.18
0.18
0.29
0.29
0.34
0.45
0.56
0.55
0.63
0.63
0.63
0.55
0.59
0.59
0.49
0.29
0.27
0.17
0.22
0.38
0.39
0.37
0.31
0.15
0.00
0.02
0.03
0.05
0.10
0.05
0.05
0.10
0.15
0.14
0.15
0.10
0.05
0.03
0.03
0.03
0.03
0.02
0.00
0.00
0.00
0.00
0.00
0.00
0.00
0.09
0.09
0.15
0.15
0.15
0.00
0.00
0.00
0.09
0.15
0.23
0.31
0.20
0.23
0.23
0.20
0.00
0.15
0.31
0.23
0.20
0.20
0.20
0.23
0.23
0.20
0.20
0.23
0.15
0.09
0.23
0.37
0.38
0.35
0.31
0.37
0.23
0.23
0.35
0.31
0.20
0.20
0.35
0.31
0.23
0.31
0.37
0.37
0.37
0.37
0.35
0.31
0.37
0.35
0.20
0.00
0.00
0.00
0.00
0.09
0.31
0.31
0.31
0.37
0.37
0.37
0.37
0.35
0.37
0.35
0.35
0.37
0.23
0.03
0.15
0.16
0.34
0.53
0.53
0.53
0.68
0.79
0.82
0.84
0.82
0.85
0.84
0.70
0.09
0.34
0.17
0.31
0.29
0.30
0.22
0.22
0.35
0.29
0.29
0.27
0.31
0.33
0.29
0.30
0.30
0.22
0.22
0.22
0.22
0.27
0.27
0.27
0.30
0.30
0.22
0.27
0.31
0.22
0.22
0.30
0.31
0.27
0.35
0.40
0.59
0.72
0.63
0.63
0.63
0.63
0.59
0.68
0.72
0.68
0.45
0.34
0.29
0.27
0.18
0.34
0.40
0.37
0.31
0.09
0.00
0.02
0.03
0.15
0.16
0.20
0.27
0.30
0.30
0.20
0.16
0.16
0.19
0.19
0.16
0.19
0.16
0.05
0.05
0.14
0.15
0.10
0.03
0.05
0.14
0.10
0.05
0.05
0.15
0.03
0.03
0.02
0.02
0.00
0.03
0.05
0.05
0.03
0.03
0.15
0.14
0.05
0.05
0.03
0.00
0.00
0.03
0.05
0.05
0.03
0.02
0.02
0.03
0.05
0.03
0.03
0.02
0.00
0.02
0.00
0.00
0.03
0.03
0.03
0.02
0.03
0.05
0.03
0.03
0.00
0.02
0.05
0.05
0.00
0.00
0.00
0.02
0.02
0.03
0.05
0.10
0.19
0.23
0.19
0.10
0.05
0.03
0.02
0.00
0.00
0.00
0.02
0.00
0.00
0.02
0.00
0.02
0.16
0.41
0.48
0.60
0.68
0.66
0.60
0.72
0.79
0.83
0.84
0.84
0.86
0.85
0.80
0.27
0.37
0.39
0.38
0.38
0.27
0.24
0.22
0.22
0.18
0.17
0.24
0.18
0.18
0.18
0.18
0.27
0.24
0.36
0.38
0.27
0.24
0.24
0.22
0.18
0.22
0.34
0.27
0.17
0.22
0.34
0.27
0.17
0.17
0.27
0.29
0.34
0.35
0.40
0.49
0.56
0.49
0.59
0.40
0.59
0.55
0.29
0.29
0.29
0.30
0.17
0.34
0.38
0.37
0.23
0.15
0.00
0.05
0.15
0.15
0.16
0.20
0.23
0.30
0.23
0.19
0.19
0.16
0.16
0.16
0.20
0.19
0.10
0.10
0.05
0.05
0.10
0.03
0.00
0.05
0.05
0.05
0.15
0.10
0.02
0.03
0.03
0.05
0.05
0.00
0.00
0.00
0.03
0.03
0.00
0.15
0.00
0.00
0.00
0.02
0.05
0.02
0.00
0.00
0.00
0.02
0.00
0.00
0.00
0.02
0.02
0.00
0.02
0.03
0.02
0.00
0.00
0.00
0.00
0.00
0.02
0.03
0.02
0.15
0.09
0.00
0.00
0.02
0.00
0.00
0.00
0.00
0.00
0.00
0.00
0.03
0.19
0.19
0.10
0.05
0.00
0.15
0.15
0.00
0.00
0.00
0.15
0.15
0.09
0.00
0.00
0.02
0.30
0.41
0.37
0.50
0.67
0.66
0.57
0.67
0.79
0.83
0.84
0.84
0.85
0.83
0.79
0.15
0.35
0.38
0.36
0.22
0.27
0.27
0.22
0.38
0.24
0.18
0.27
0.22
0.27
0.18
0.17
0.18
0.18
0.18
0.18
0.18
0.17
0.22
0.24
0.18
0.17
0.22
0.17
0.22
0.18
0.18
0.17
0.30
0.29
0.31
0.31
0.35
0.34
0.45
0.63
0.63
0.68
0.59
0.59
0.68
0.63
0.35
0.35
0.33
0.30
0.24
0.27
0.36
0.39
0.31
0.00
0.00
0.02
0.14
0.15
0.19
0.20
0.19
0.20
0.19
0.15
0.15
0.16
0.15
0.14
0.10
0.05
0.10
0.05
0.05
0.05
0.03
0.03
0.02
0.05
0.03
0.03
0.00
0.00
0.00
0.02
0.02
0.02
0.00
0.00
0.00
0.00
0.02
0.00
0.09
0.00
0.03
0.00
0.09
0.15
0.02
0.00
0.15
0.00
0.00
0.09
0.15
0.00
0.00
0.09
0.00
0.00
0.00
0.00
0.15
0.15
0.00
0.02
0.20
0.23
0.20
0.15
0.09
0.09
0.09
0.15
0.15
0.15
0.00
0.00
0.20
0.15
0.00
0.00
0.02
0.03
0.15
0.15
0.03
0.00
0.00
0.00
0.15
0.20
0.23
0.20
0.31
0.31
0.20
0.15
0.15
0.02
0.23
0.34
0.40
0.58
0.64
0.60
0.60
0.76
0.81
0.83
0.84
0.85
0.88
0.83
0.68
0.09
0.39
0.36
0.18
0.22
0.17
0.22
0.17
0.17
0.17
0.17
0.22
0.22
0.31
0.30
0.17
0.17
0.17
0.22
0.22
0.22
0.22
0.17
0.17
0.27
0.27
0.22
0.22
0.30
0.27
0.22
0.30
0.33
0.40
0.53
0.55
0.49
0.59
0.82
0.80
0.75
0.75
0.80
0.83
0.80
0.75
0.59
0.59
0.45
0.35
0.33
0.22
0.38
0.39
0.35
0.35
0.00
0.00
0.03
0.03
0.05
0.14
0.15
0.15
0.10
0.10
0.02
0.00
0.02
0.02
0.00
0.15
0.20
0.09
0.00
0.00
0.00
0.00
0.02
0.00
0.00
0.00
0.00
0.00
0.00
0.09
0.00
0.00
0.15
0.09
0.00
0.00
0.00
0.00
0.00
0.00
0.00
0.00
0.00
0.00
0.00
0.15
0.15
0.00
0.00
0.15
0.15
0.00
0.00
0.00
0.09
0.09
0.09
0.15
0.09
0.09
0.15
0.15
0.15
0.09
0.02
0.03
0.00
0.09
0.00
0.00
0.00
0.00
0.00
0.00
0.00
0.15
0.00
0.02
0.05
0.05
0.03
0.02
0.00
0.00
0.09
0.00
0.09
0.00
0.00
0.09
0.09
0.00
0.20
0.23
0.00
0.20
0.20
0.30
0.49
0.58
0.49
0.50
0.70
0.79
0.82
0.84
0.82
0.84
0.83
0.77
0.14
0.37
0.22
0.29
0.31
0.27
0.17
0.17
0.17
0.31
0.18
0.17
0.17
0.18
0.22
0.18
0.22
0.22
0.18
0.22
0.22
0.36
0.36
0.36
0.34
0.24
0.18
0.36
0.34
0.27
0.22
0.17
0.22
0.18
0.17
0.17
0.22
0.30
0.30
0.29
0.27
0.17
0.31
0.35
0.30
0.17
0.17
0.22
0.22
0.34
0.39
0.37
0.37
0.00
0.14
0.14
0.16
0.19
0.23
0.41
0.49
0.50
0.46
0.48
0.49
0.50
0.45
0.48
0.49
0.43
0.37
0.40
0.40
0.23
0.20
0.27
0.20
0.20
0.20
0.19
0.15
0.14
0.16
0.20
0.15
0.10
0.05
0.05
0.15
0.15
0.05
0.15
0.16
0.15
0.05
0.15
0.15
0.20
0.14
0.03
0.03
0.00
0.03
0.10
0.10
0.10
0.14
0.15
0.05
0.03
0.03
0.02
0.10
0.14
0.14
0.15
0.05
0.02
0.03
0.03
0.03
0.02
0.03
0.10
0.14
0.05
0.02
0.02
0.03
0.03
0.02
0.05
0.10
0.03
0.15
0.15
0.19
0.19
0.03
0.00
0.00
0.00
0.03
0.00
0.00
0.00
0.00
0.00
0.00
0.00
0.03
0.34
0.40
0.43
0.58
0.66
0.66
0.60
0.71
0.79
0.83
0.84
0.84
0.97
0.83
0.80
0.41
0.23
0.39
0.38
0.38
0.27
0.17
0.17
0.18
0.22
0.27
0.27
0.18
0.22
0.22
0.18
0.22
0.36
0.27
0.27
0.18
0.27
0.38
0.27
0.27
0.27
0.22
0.22
0.22
0.22
0.22
0.24
0.24
0.22
0.29
0.35
0.33
0.33
0.40
0.55
0.59
0.59
0.56
0.55
0.56
0.59
0.49
0.34
0.29
0.17
0.18
0.34
0.39
0.23
0.00
0.00
0.09
0.02
0.10
0.10
0.20
0.34
0.40
0.30
0.20
0.23
0.16
0.16
0.16
0.16
0.15
0.15
0.15
0.15
0.16
0.16
0.14
0.03
0.03
0.03
0.03
0.14
0.14
0.10
0.10
0.03
0.02
0.03
0.14
0.03
0.02
0.00
0.00
0.03
0.05
0.03
0.03
0.00
0.00
0.03
0.03
0.03
0.03
0.03
0.00
0.00
0.03
0.03
0.03
0.03
0.00
0.00
0.02
0.02
0.02
0.05
0.03
0.00
0.00
0.00
0.00
0.03
0.02
0.03
0.05
0.05
0.03
0.02
0.00
0.00
0.03
0.03
0.03
0.05
0.10
0.16
0.15
0.05
0.03
0.03
0.00
0.00
0.00
0.03
0.02
0.03
0.03
0.00
0.09
0.09
0.09
0.15
0.43
0.46
0.57
0.66
0.60
0.57
0.72
0.79
0.81
0.83
0.83
0.94
0.83
0.81
0.45
0.31
0.38
0.36
0.18
0.18
0.22
0.34
0.34
0.22
0.18
0.17
0.22
0.18
0.22
0.24
0.36
0.22
0.22
0.18
0.18
0.18
0.22
0.17
0.17
0.22
0.27
0.22
0.18
0.18
0.24
0.22
0.31
0.30
0.30
0.31
0.27
0.29
0.34
0.56
0.63
0.63
0.63
0.63
0.59
0.59
0.56
0.49
0.33
0.22
0.22
0.36
0.38
0.40
0.35
0.09
0.00
0.02
0.10
0.19
0.19
0.20
0.20
0.16
0.20
0.19
0.16
0.19
0.20
0.15
0.14
0.19
0.15
0.15
0.05
0.14
0.05
0.03
0.00
0.00
0.03
0.03
0.03
0.05
0.05
0.10
0.14
0.05
0.03
0.00
0.02
0.03
0.00
0.09
0.09
0.00
0.00
0.02
0.03
0.00
0.05
0.03
0.02
0.03
0.05
0.03
0.00
0.00
0.00
0.02
0.02
0.02
0.00
0.00
0.00
0.00
0.00
0.00
0.03
0.03
0.00
0.03
0.03
0.02
0.00
0.02
0.03
0.02
0.00
0.02
0.02
0.00
0.00
0.05
0.15
0.15
0.14
0.10
0.02
0.00
0.00
0.02
0.00
0.00
0.00
0.00
0.00
0.15
0.09
0.00
0.15
0.03
0.30
0.27
0.56
0.67
0.66
0.49
0.62
0.79
0.80
0.82
0.83
0.85
0.83
0.80
0.43
0.37
0.34
0.24
0.22
0.22
0.27
0.22
0.27
0.22
0.17
0.22
0.29
0.30
0.17
0.17
0.18
0.18
0.18
0.17
0.22
0.29
0.31
0.22
0.17
0.27
0.27
0.27
0.29
0.33
0.29
0.29
0.30
0.31
0.45
0.40
0.45
0.59
0.56
0.59
0.72
0.75
0.75
0.80
0.80
0.75
0.68
0.63
0.55
0.40
0.29
0.22
0.36
0.38
0.37
0.23
0.20
0.09
0.00
0.00
0.00
0.03
0.03
0.05
0.05
0.05
0.05
0.05
0.03
0.03
0.03
0.03
0.00
0.00
0.00
0.03
0.00
0.00
0.02
0.00
0.00
0.00
0.00
0.15
0.00
0.03
0.02
0.00
0.09
0.09
0.00
0.09
0.09
0.00
0.09
0.15
0.15
0.20
0.09
0.00
0.00
0.00
0.15
0.15
0.15
0.00
0.00
0.15
0.00
0.09
0.31
0.23
0.15
0.00
0.00
0.00
0.00
0.00
0.00
0.00
0.00
0.00
0.00
0.00
0.00
0.00
0.00
0.00
0.00
0.00
0.00
0.00
0.00
0.00
0.00
0.00
0.00
0.03
0.05
0.03
0.00
0.15
0.15
0.09
0.00
0.00
0.00
0.00
0.00
0.00
0.00
0.00
0.00
0.19
0.48
0.27
0.40
0.60
0.60
0.56
0.67
0.79
0.82
0.85
0.84
0.94
0.83
0.80
0.45
0.20
0.38
0.38
0.38
0.34
0.27
0.27
0.27
0.36
0.34
0.27
0.27
0.34
0.36
0.27
0.27
0.34
0.39
0.39
0.40
0.36
0.38
0.38
0.38
0.38
0.39
0.38
0.24
0.27
0.27
0.27
0.24
0.22
0.18
0.18
0.18
0.18
0.27
0.31
0.35
0.35
0.35
0.29
0.33
0.35
0.30
0.17
0.17
0.22
0.38
0.37
0.23
0.00
0.03
0.14
0.15
0.15
0.20
0.37
0.41
0.43
0.40
0.40
0.30
0.27
0.27
0.40
0.27
0.23
0.20
0.19
0.20
0.20
0.20
0.19
0.20
0.19
0.14
0.15
0.14
0.10
0.05
0.14
0.15
0.10
0.03
0.10
0.14
0.10
0.10
0.05
0.05
0.14
0.16
0.14
0.10
0.05
0.05
0.05
0.05
0.03
0.03
0.03
0.03
0.05
0.05
0.05
0.05
0.05
0.14
0.05
0.03
0.05
0.05
0.05
0.05
0.03
0.02
0.00
0.10
0.05
0.03
0.03
0.05
0.10
0.05
0.03
0.03
0.03
0.03
0.02
0.02
0.03
0.05
0.16
0.20
0.23
0.19
0.10
0.03
0.03
0.05
0.03
0.00
0.00
0.02
0.00
0.00
0.00
0.00
0.00
0.16
0.49
0.46
0.58
0.70
0.67
0.58
0.67
0.80
0.81
0.84
0.84
0.86
0.91
0.80
0.45
0.23
0.38
0.36
0.27
0.27
0.34
0.27
0.27
0.24
0.18
0.17
0.22
0.24
0.22
0.24
0.27
0.24
0.34
0.36
0.27
0.34
0.34
0.34
0.36
0.27
0.34
0.38
0.38
0.27
0.22
0.18
0.18
0.17
0.17
0.27
0.31
0.29
0.33
0.35
0.34
0.45
0.59
0.45
0.34
0.34
0.49
0.35
0.29
0.22
0.22
0.34
0.39
0.31
0.09
0.00
0.00
0.02
0.05
0.10
0.15
0.19
0.23
0.27
0.27
0.23
0.19
0.20
0.19
0.16
0.16
0.15
0.14
0.14
0.05
0.05
0.05
0.10
0.05
0.05
0.10
0.10
0.10
0.05
0.02
0.03
0.05
0.05
0.05
0.10
0.03
0.03
0.03
0.03
0.03
0.03
0.02
0.02
0.03
0.03
0.03
0.00
0.02
0.03
0.03
0.02
0.00
0.03
0.03
0.03
0.00
0.00
0.03
0.03
0.03
0.02
0.00
0.00
0.00
0.00
0.03
0.00
0.00
0.00
0.02
0.03
0.03
0.02
0.03
0.00
0.00
0.00
0.00
0.02
0.03
0.14
0.19
0.19
0.03
0.00
0.00
0.00
0.00
0.00
0.00
0.00
0.09
0.15
0.15
0.20
0.15
0.02
0.20
0.37
0.46
0.60
0.66
0.64
0.58
0.76
0.80
0.83
0.84
0.84
0.93
0.84
0.76
0.10
0.37
0.34
0.24
0.18
0.17
0.17
0.22
0.18
0.17
0.17
0.17
0.17
0.17
0.17
0.18
0.24
0.24
0.24
0.24
0.27
0.27
0.27
0.24
0.18
0.18
0.18
0.22
0.27
0.18
0.18
0.17
0.17
0.18
0.22
0.30
0.29
0.49
0.49
0.49
0.53
0.56
0.59
0.63
0.49
0.40
0.29
0.29
0.27
0.18
0.27
0.36
0.40
0.35
0.15
0.00
0.00
0.03
0.05
0.14
0.16
0.19
0.23
0.27
0.23
0.20
0.20
0.16
0.16
0.16
0.16
0.16
0.16
0.16
0.15
0.10
0.10
0.14
0.05
0.05
0.03
0.02
0.03
0.03
0.03
0.03
0.03
0.03
0.03
0.03
0.03
0.03
0.05
0.10
0.05
0.03
0.00
0.00
0.03
0.02
0.00
0.00
0.00
0.00
0.00
0.00
0.02
0.03
0.02
0.02
0.03
0.03
0.05
0.03
0.00
0.00
0.00
0.00
0.00
0.00
0.00
0.00
0.00
0.02
0.02
0.00
0.00
0.00
0.00
0.00
0.00
0.00
0.00
0.00
0.05
0.15
0.16
0.14
0.03
0.00
0.15
0.20
0.23
0.20
0.20
0.20
0.20
0.20
0.20
0.20
0.20
0.09
0.05
0.20
0.30
0.49
0.60
0.58
0.43
0.64
0.79
0.79
0.82
0.84
0.82
0.83
0.79
0.15
0.40
0.18
0.17
0.31
0.29
0.30
0.30
0.31
0.33
0.29
0.29
0.29
0.29
0.30
0.27
0.27
0.31
0.30
0.30
0.30
0.30
0.30
0.30
0.29
0.29
0.31
0.30
0.29
0.33
0.29
0.33
0.40
0.45
0.59
0.63
0.68
0.63
0.63
0.80
0.83
0.84
0.83
0.83
0.82
0.75
0.75
0.72
0.55
0.49
0.35
0.22
0.27
0.27
0.38
0.38
0.35
0.15
0.00
0.02
0.03
0.05
0.05
0.05
0.10
0.05
0.05
0.05
0.03
0.00
0.00
0.02
0.02
0.02
0.00
0.00
0.00
0.00
0.00
0.00
0.00
0.00
0.00
0.00
0.00
0.00
0.00
0.00
0.15
0.20
0.00
0.09
0.15
0.00
0.00
0.09
0.00
0.00
0.00
0.09
0.20
0.20
0.09
0.00
0.00
0.00
0.00
0.00
0.00
0.15
0.15
0.09
0.00
0.09
0.00
0.00
0.00
0.00
0.00
0.00
0.03
0.00
0.00
0.00
0.00
0.00
0.00
0.03
0.03
0.05
0.03
0.03
0.03
0.03
0.05
0.05
0.10
0.23
0.27
0.27
0.15
0.03
0.00
0.00
0.00
0.02
0.02
0.02
0.03
0.03
0.03
0.03
0.02
0.16
0.41
0.46
0.56
0.67
0.67
0.62
0.68
0.80
0.80
0.84
0.85
0.95
0.98
0.83
0.58
0.00
0.31
0.39
0.38
0.40
0.34
0.36
0.38
0.38
0.38
0.38
0.38
0.38
0.40
0.37
0.39
0.38
0.38
0.38
0.40
0.38
0.39
0.39
0.39
0.39
0.38
0.38
0.40
0.38
0.40
0.36
0.36
0.27
0.27
0.22
0.17
0.22
0.22
0.22
0.29
0.33
0.29
0.34
0.33
0.27
0.22
0.31
0.22
0.36
0.38
0.38
0.37
0.23
0.09
0.02
0.03
0.14
0.15
0.19
0.40
0.41
0.43
0.45
0.40
0.37
0.40
0.41
0.41
0.40
0.40
0.27
0.23
0.20
0.16
0.16
0.16
0.16
0.15
0.14
0.14
0.16
0.16
0.15
0.14
0.14
0.14
0.16
0.15
0.14
0.05
0.05
0.05
0.10
0.03
0.05
0.14
0.03
0.03
0.03
0.05
0.05
0.05
0.05
0.03
0.02
0.02
0.02
0.03
0.05
0.03
0.02
0.02
0.02
0.03
0.05
0.05
0.05
0.05
0.03
0.02
0.00
0.02
0.05
0.03
0.00
0.00
0.00
0.00
0.03
0.03
0.02
0.03
0.05
0.16
0.20
0.23
0.15
0.03
0.00
0.00
0.03
0.03
0.03
0.00
0.09
0.09
0.00
0.00
0.15
0.00
0.23
0.41
0.41
0.56
0.66
0.64
0.60
0.71
0.79
0.83
0.84
0.83
0.85
0.83
0.80
0.30
0.38
0.36
0.27
0.18
0.18
0.22
0.22
0.18
0.17
0.18
0.18
0.18
0.18
0.22
0.24
0.22
0.18
0.24
0.27
0.22
0.17
0.17
0.22
0.18
0.17
0.17
0.18
0.22
0.22
0.18
0.22
0.17
0.22
0.29
0.33
0.33
0.40
0.45
0.59
0.63
0.59
0.59
0.68
0.63
0.59
0.34
0.29
0.31
0.27
0.18
0.38
0.38
0.37
0.20
0.20
0.00
0.03
0.05
0.15
0.19
0.23
0.20
0.20
0.20
0.20
0.16
0.16
0.19
0.16
0.14
0.14
0.14
0.15
0.15
0.10
0.05
0.10
0.10
0.05
0.05
0.05
0.03
0.03
0.00
0.00
0.00
0.05
0.03
0.00
0.00
0.03
0.02
0.02
0.03
0.02
0.03
0.00
0.02
0.03
0.00
0.00
0.00
0.00
0.00
0.00
0.00
0.00
0.05
0.03
0.00
0.00
0.00
0.00
0.00
0.00
0.00
0.00
0.00
0.00
0.00
0.00
0.00
0.00
0.02
0.02
0.02
0.00
0.00
0.00
0.05
0.15
0.16
0.20
0.20
0.05
0.02
0.00
0.02
0.00
0.00
0.00
0.00
0.09
0.09
0.00
0.00
0.09
0.03
0.30
0.41
0.49
0.64
0.66
0.57
0.60
0.78
0.80
0.82
0.84
0.85
0.85
0.82
0.66
0.09
0.40
0.36
0.24
0.18
0.17
0.17
0.18
0.22
0.34
0.36
0.17
0.17
0.17
0.22
0.18
0.17
0.17
0.22
0.17
0.22
0.27
0.27
0.27
0.18
0.17
0.17
0.24
0.24
0.22
0.31
0.27
0.17
0.17
0.31
0.35
0.34
0.40
0.45
0.49
0.59
0.63
0.63
0.63
0.59
0.45
0.40
0.45
0.35
0.27
0.17
0.34
0.39
0.37
0.23
0.15
0.03
0.03
0.05
0.05
0.19
0.10
0.10
0.20
0.30
0.20
0.16
0.16
0.10
0.05
0.05
0.03
0.03
0.03
0.03
0.02
0.00
0.00
0.00
0.03
0.05
0.00
0.00
0.00
0.09
0.15
0.00
0.00
0.03
0.00
0.09
0.31
0.23
0.00
0.03
0.09
0.23
0.15
0.09
0.15
0.20
0.15
0.15
0.23
0.20
0.09
0.20
0.23
0.31
0.20
0.20
0.35
0.31
0.20
0.20
0.20
0.31
0.35
0.35
0.37
0.37
0.37
0.37
0.38
0.35
0.15
0.15
0.31
0.37
0.38
0.35
0.37
0.37
0.20
0.00
0.00
0.00
0.09
0.15
0.31
0.37
0.37
0.37
0.37
0.39
0.38
0.39
0.39
0.39
0.37
0.31
0.02
0.10
0.10
0.23
0.46
0.48
0.41
0.58
0.77
0.81
0.83
0.84
0.82
0.84
0.80
0.40
0.38
0.30
0.29
0.33
0.53
0.59
0.40
0.29
0.45
0.55
0.33
0.29
0.29
0.35
0.34
0.35
0.33
0.29
0.33
0.29
0.29
0.29
0.35
0.30
0.31
0.29
0.35
0.34
0.29
0.30
0.34
0.40
0.34
0.40
0.34
0.35
0.40
0.55
0.63
0.68
0.63
0.68
0.68
0.75
0.68
0.53
0.35
0.34
0.33
0.22
0.34
0.34
0.40
0.31
0.15
0.00
0.02
0.03
0.05
0.05
0.10
0.15
0.16
0.19
0.16
0.23
0.19
0.10
0.15
0.10
0.05
0.05
0.10
0.10
0.10
0.05
0.05
0.05
0.14
0.14
0.05
0.05
0.05
0.10
0.05
0.03
0.03
0.05
0.10
0.14
0.03
0.03
0.05
0.05
0.10
0.10
0.15
0.14
0.03
0.05
0.05
0.05
0.05
0.10
0.14
0.05
0.15
0.14
0.05
0.10
0.14
0.15
0.16
0.16
0.15
0.10
0.10
0.14
0.16
0.19
0.16
0.16
0.16
0.16
0.15
0.14
0.16
0.16
0.15
0.14
0.14
0.15
0.16
0.23
0.41
0.45
0.45
0.37
0.19
0.10
0.03
0.00
0.03
0.03
0.03
0.03
0.05
0.03
0.03
0.03
0.14
0.41
0.48
0.50
0.66
0.71
0.67
0.66
0.78
0.80
0.82
0.83
0.86
0.96
0.84
0.77
0.20
0.23
0.39
0.40
0.38
0.38
0.27
0.27
0.27
0.27
0.27
0.27
0.34
0.34
0.24
0.27
0.34
0.38
0.27
0.24
0.38
0.38
0.34
0.36
0.34
0.36
0.27
0.24
0.24
0.22
0.22
0.27
0.18
0.17
0.27
0.27
0.27
0.33
0.45
0.53
0.45
0.49
0.45
0.40
0.49
0.45
0.35
0.30
0.17
0.18
0.27
0.39
0.23
0.09
0.03
0.14
0.14
0.03
0.05
0.15
0.14
0.16
0.16
0.19
0.40
0.30
0.20
0.20
0.16
0.16
0.14
0.14
0.05
0.05
0.10
0.10
0.03
0.03
0.05
0.10
0.14
0.15
0.10
0.03
0.03
0.03
0.00
0.00
0.00
0.00
0.00
0.00
0.02
0.00
0.00
0.00
0.03
0.03
0.02
0.00
0.00
0.03
0.02
0.00
0.00
0.00
0.00
0.03
0.02
0.00
0.00
0.00
0.00
0.00
0.00
0.00
0.00
0.00
0.00
0.00
0.00
0.09
0.09
0.15
0.20
0.09
0.00
0.00
0.00
0.00
0.00
0.09
0.09
0.03
0.05
0.10
0.15
0.10
0.00
0.09
0.00
0.00
0.00
0.09
0.15
0.15
0.38
0.31
0.20
0.15
0.15
0.16
0.30
0.41
0.60
0.64
0.58
0.57
0.74
0.80
0.83
0.84
0.83
0.88
0.82
0.70
0.00
0.38
0.27
0.27
0.17
0.22
0.22
0.22
0.17
0.18
0.22
0.31
0.29
0.30
0.30
0.22
0.22
0.17
0.17
0.18
0.27
0.27
0.27
0.27
0.29
0.29
0.35
0.27
0.22
0.33
0.35
0.27
0.31
0.34
0.55
0.55
0.59
0.49
0.55
0.75
0.75
0.68
0.55
0.55
0.59
0.49
0.34
0.33
0.30
0.18
0.27
0.38
0.37
0.31
0.31
0.09
0.02
0.00
0.02
0.14
0.14
0.16
0.23
0.19
0.23
0.16
0.15
0.10
0.10
0.10
0.14
0.15
0.15
0.05
0.05
0.05
0.03
0.03
0.03
0.02
0.00
0.00
0.03
0.03
0.03
0.03
0.03
0.03
0.00
0.03
0.03
0.00
0.03
0.03
0.03
0.02
0.00
0.00
0.02
0.02
0.03
0.03
0.03
0.03
0.00
0.03
0.03
0.03
0.00
0.00
0.09
0.00
0.00
0.00
0.00
0.10
0.05
0.05
0.03
0.02
0.00
0.00
0.02
0.03
0.03
0.03
0.03
0.05
0.03
0.03
0.10
0.16
0.27
0.34
0.34
0.20
0.10
0.05
0.00
0.00
0.03
0.02
0.00
0.00
0.00
0.09
0.09
0.02
0.03
0.23
0.48
0.46
0.62
0.72
0.66
0.58
0.71
0.79
0.83
0.85
0.87
0.97
0.83
0.79
0.23
0.20
0.38
0.34
0.36
0.36
0.24
0.34
0.38
0.38
0.36
0.22
0.27
0.38
0.38
0.36
0.36
0.38
0.34
0.38
0.40
0.34
0.38
0.40
0.34
0.38
0.38
0.38
0.38
0.27
0.38
0.36
0.22
0.18
0.22
0.22
0.22
0.27
0.31
0.29
0.35
0.34
0.40
0.40
0.33
0.30
0.31
0.27
0.34
0.38
0.40
0.37
0.23
0.15
0.00
0.05
0.15
0.14
0.14
0.23
0.41
0.41
0.40
0.40
0.45
0.43
0.41
0.41
0.40
0.27
0.23
0.23
0.20
0.16
0.15
0.05
0.14
0.15
0.15
0.15
0.15
0.15
0.14
0.15
0.10
0.05
0.05
0.14
0.14
0.10
0.10
0.05
0.05
0.03
0.02
0.02
0.03
0.03
0.03
0.02
0.02
0.03
0.03
0.03
0.03
0.03
0.03
0.00
0.00
0.00
0.00
0.00
0.00
0.00
0.00
0.00
0.00
0.00
0.00
0.00
0.20
0.15
0.00
0.00
0.00
0.09
0.20
0.09
0.15
0.20
0.15
0.15
0.00
0.00
0.02
0.03
0.05
0.02
0.15
0.31
0.31
0.23
0.23
0.23
0.20
0.20
0.20
0.20
0.20
0.31
0.20
0.05
0.23
0.27
0.41
0.58
0.57
0.43
0.64
0.80
0.80
0.82
0.84
0.83
0.83
0.80
0.27
0.37
0.40
0.24
0.30
0.22
0.17
0.27
0.22
0.22
0.17
0.17
0.22
0.17
0.17
0.17
0.17
0.17
0.17
0.17
0.17
0.18
0.18
0.18
0.17
0.18
0.18
0.17
0.17
0.17
0.17
0.17
0.22
0.22
0.29
0.29
0.34
0.45
0.40
0.53
0.59
0.59
0.63
0.68
0.63
0.63
0.55
0.33
0.29
0.22
0.22
0.38
0.38
0.23
0.15
0.00
0.02
0.03
0.14
0.16
0.19
0.23
0.27
0.23
0.20
0.19
0.19
0.23
0.20
0.19
0.05
0.05
0.10
0.10
0.02
0.00
0.03
0.03
0.03
0.03
0.03
0.03
0.03
0.03
0.02
0.00
0.00
0.03
0.05
0.03
0.03
0.03
0.02
0.00
0.00
0.00
0.00
0.09
0.09
0.00
0.00
0.00
0.00
0.00
0.00
0.00
0.00
0.00
0.00
0.00
0.15
0.09
0.00
0.00
0.00
0.09
0.00
0.00
0.00
0.00
0.00
0.09
0.00
0.00
0.00
0.02
0.00
0.00
0.00
0.00
0.09
0.09
0.00
0.03
0.05
0.10
0.14
0.03
0.00
0.15
0.15
0.15
0.15
0.09
0.09
0.15
0.23
0.20
0.15
0.15
0.00
0.15
0.37
0.34
0.50
0.60
0.60
0.56
0.67
0.80
0.81
0.83
0.83
0.83
0.85
0.79
0.14
0.38
0.38
0.24
0.18
0.17
0.17
0.17
0.22
0.27
0.17
0.17
0.17
0.17
0.17
0.22
0.22
0.18
0.18
0.17
0.17
0.18
0.24
0.24
0.22
0.22
0.18
0.18
0.17
0.17
0.18
0.18
0.22
0.22
0.29
0.29
0.40
0.49
0.59
0.63
0.40
0.40
0.40
0.40
0.40
0.34
0.35
0.27
0.22
0.27
0.38
0.38
0.23
0.15
0.00
0.02
0.03
0.03
0.15
0.20
0.27
0.37
0.41
0.40
0.40
0.40
0.27
0.23
0.23
0.27
0.23
0.19
0.19
0.19
0.16
0.16
0.16
0.15
0.14
0.14
0.16
0.15
0.15
0.15
0.10
0.10
0.14
0.00
0.00
0.03
0.02
0.00
0.00
0.00
0.00
0.00
0.00
0.00
0.00
0.00
0.00
0.00
0.00
0.00
0.00
0.15
0.15
0.00
0.00
0.00
0.00
0.00
0.00
0.00
0.00
0.00
0.00
0.00
0.00
0.00
0.00
0.00
0.00
0.00
0.00
0.00
0.00
0.00
0.00
0.00
0.00
0.03
0.05
0.16
0.03
0.00
0.20
0.20
0.09
0.09
0.20
0.09
0.00
0.00
0.09
0.09
0.09
0.02
0.15
0.23
0.40
0.58
0.67
0.60
0.57
0.67
0.80
0.80
0.82
0.84
0.83
0.84
0.79
0.14
0.39
0.24
0.22
0.17
0.17
0.31
0.30
0.22
0.31
0.27
0.27
0.27
0.31
0.33
0.29
0.33
0.29
0.29
0.35
0.34
0.34
0.33
0.29
0.29
0.29
0.29
0.27
0.31
0.33
0.29
0.31
0.31
0.33
0.35
0.49
0.45
0.53
0.63
0.68
0.63
0.63
0.63
0.59
0.56
0.49
0.59
0.56
0.34
0.27
0.27
0.38
0.38
0.40
0.38
0.39
0.23
0.00
0.02
0.03
0.03
0.03
0.05
0.05
0.10
0.10
0.03
0.03
0.05
0.02
0.15
0.20
0.23
0.35
0.35
0.37
0.39
0.39
0.37
0.37
0.39
0.40
0.37
0.37
0.37
0.37
0.39
0.39
0.39
0.37
0.38
0.27
0.34
0.39
0.39
0.39
0.39
0.40
0.27
0.27
0.38
0.38
0.38
0.38
0.38
0.37
0.37
0.35
0.38
0.39
0.40
0.38
0.39
0.37
0.35
0.37
0.35
0.37
0.37
0.35
0.38
0.39
0.39
0.38
0.31
0.23
0.37
0.40
0.38
0.37
0.38
0.15
0.02
0.15
0.00
0.20
0.38
0.39
0.37
0.34
0.34
0.38
0.27
0.27
0.27
0.34
0.39
0.39
0.38
0.00
0.02
0.03
0.34
0.49
0.41
0.34
0.58
0.79
0.79
0.81
0.84
0.83
0.83
0.77
0.02
0.34
0.18
0.22
0.27
0.29
0.29
0.34
0.29
0.33
0.29
0.34
0.34
0.29
0.29
0.22
0.17
0.17
0.31
0.18
0.27
0.17
0.22
0.24
0.27
0.22
0.33
0.34
0.31
0.17
0.22
0.18
0.17
0.27
0.35
0.45
0.35
0.33
0.35
0.33
0.29
0.34
0.63
0.72
0.53
0.27
0.30
0.35
0.17
0.27
0.22
0.38
0.37
0.00
0.00
0.00
0.15
0.10
0.19
0.23
0.20
0.10
0.23
0.30
0.03
0.03
0.15
0.23
0.05
0.05
0.10
0.10
0.27
0.37
0.23
0.16
0.03
0.09
0.00
0.02
0.03
0.14
0.10
0.05
0.10
0.03
0.00
0.03
0.02
0.00
0.00
0.03
0.03
0.05
0.00
0.15
0.00
0.00
0.00
0.02
0.05
0.20
0.00
0.02
0.03
0.09
0.00
0.03
0.02
0.09
0.15
0.15
0.00
0.00
0.00
0.03
0.02
0.02
0.05
0.03
0.00
0.00
0.00
0.00
0.03
0.15
0.19
0.05
0.23
0.35
0.00
0.10
0.19
0.20
0.19
0.05
0.03
0.10
0.02
0.20
0.15
0.02
0.00
0.09
0.00
0.00
0.00
0.00
0.03
0.30
0.27
0.41
0.58
0.57
0.49
0.64
0.79
0.81
0.83
0.84
0.83
0.84
0.82
0.76
0.23
0.15
0.39
0.27
0.22
0.18
0.17
0.22
0.22
0.17
0.27
0.38
0.34
0.24
0.18
0.18
0.38
0.38
0.34
0.38
0.40
0.24
0.27
0.38
0.34
0.38
0.27
0.27
0.39
0.27
0.27
0.22
0.18
0.30
0.29
0.30
0.31
0.22
0.22
0.34
0.49
0.35
0.33
0.31
0.17
0.22
0.17
0.31
0.22
0.31
0.22
0.36
0.35
0.20
0.15
0.03
0.19
0.16
0.15
0.16
0.16
0.20
0.27
0.45
0.34
0.20
0.14
0.10
0.10
0.10
0.10
0.15
0.20
0.10
0.05
0.15
0.10
0.03
0.05
0.10
0.10
0.03
0.03
0.03
0.03
0.03
0.03
0.15
0.27
0.15
0.02
0.03
0.05
0.10
0.05
0.03
0.02
0.03
0.14
0.10
0.02
0.03
0.03
0.02
0.03
0.15
0.03
0.02
0.03
0.05
0.02
0.09
0.02
0.14
0.10
0.02
0.10
0.19
0.14
0.02
0.09
0.09
0.00
0.03
0.05
0.10
0.03
0.02
0.02
0.05
0.14
0.19
0.19
0.05
0.05
0.14
0.10
0.00
0.00
0.05
0.05
0.02
0.02
0.05
0.05
0.23
0.05
0.15
0.00
0.16
0.50
0.56
0.58
0.64
0.62
0.60
0.70
0.80
0.79
0.81
0.85
0.96
0.91
0.82
0.67
0.10
0.37
0.40
0.38
0.39
0.39
0.36
0.22
0.30
0.24
0.27
0.27
0.27
0.34
0.38
0.38
0.38
0.37
0.36
0.36
0.38
0.24
0.38
0.38
0.38
0.38
0.38
0.38
0.34
0.23
0.39
0.34
0.27
0.17
0.31
0.18
0.24
0.27
0.36
0.18
0.31
0.33
0.53
0.45
0.30
0.17
0.34
0.40
0.38
0.38
0.20
0.15
0.20
0.02
0.03
0.03
0.05
0.05
0.16
0.43
0.43
0.19
0.16
0.30
0.41
0.48
0.34
0.19
0.27
0.15
0.20
0.15
0.16
0.16
0.03
0.05
0.15
0.15
0.15
0.20
0.14
0.05
0.10
0.14
0.03
0.03
0.03
0.14
0.34
0.27
0.03
0.03
0.10
0.10
0.02
0.00
0.03
0.03
0.03
0.14
0.14
0.05
0.05
0.10
0.19
0.05
0.03
0.03
0.15
0.03
0.05
0.15
0.05
0.03
0.03
0.03
0.02
0.02
0.03
0.14
0.03
0.00
0.09
0.03
0.14
0.15
0.15
0.03
0.09
0.03
0.20
0.20
0.15
0.30
0.30
0.05
0.00
0.00
0.03
0.00
0.09
0.03
0.00
0.03
0.10
0.03
0.02
0.16
0.37
0.46
0.48
0.60
0.67
0.58
0.50
0.72
0.79
0.83
0.84
0.83
0.84
0.84
0.79
0.40
0.15
0.36
0.30
0.18
0.36
0.24
0.17
0.31
0.27
0.22
0.27
0.18
0.34
0.40
0.38
0.38
0.34
0.34
0.34
0.36
0.38
0.24
0.18
0.38
0.31
0.34
0.24
0.38
0.27
0.27
0.38
0.27
0.35
0.30
0.27
0.34
0.31
0.29
0.29
0.34
0.35
0.34
0.35
0.29
0.18
0.27
0.17
0.40
0.35
0.37
0.38
0.38
0.31
0.00
0.00
0.00
0.05
0.16
0.20
0.40
0.46
0.50
0.48
0.20
0.16
0.23
0.27
0.16
0.03
0.05
0.20
0.40
0.43
0.16
0.15
0.10
0.03
0.10
0.14
0.05
0.02
0.15
0.19
0.10
0.05
0.05
0.03
0.16
0.10
0.03
0.03
0.03
0.14
0.19
0.10
0.02
0.00
0.02
0.10
0.14
0.03
0.00
0.05
0.16
0.15
0.05
0.02
0.03
0.15
0.40
0.15
0.03
0.00
0.15
0.03
0.00
0.03
0.05
0.05
0.10
0.16
0.20
0.19
0.05
0.00
0.00
0.00
0.03
0.14
0.14
0.15
0.16
0.27
0.43
0.37
0.14
0.03
0.02
0.02
0.03
0.05
0.03
0.00
0.02
0.02
0.02
0.02
0.23
0.50
0.49
0.50
0.60
0.66
0.58
0.62
0.72
0.80
0.82
0.84
0.85
0.99
0.83
0.67
0.02
0.38
0.22
0.18
0.34
0.36
0.24
0.22
0.22
0.45
0.35
0.30
0.34
0.27
0.27
0.18
0.24
0.22
0.22
0.24
0.24
0.27
0.36
0.18
0.27
0.27
0.17
0.22
0.24
0.24
0.36
0.36
0.24
0.18
0.30
0.31
0.22
0.29
0.31
0.22
0.38
0.22
0.34
0.35
0.29
0.30
0.18
0.34
0.38
0.40
0.39
0.37
0.15
0.02
0.14
0.16
0.03
0.03
0.14
0.34
0.37
0.34
0.41
0.37
0.19
0.16
0.16
0.19
0.20
0.16
0.15
0.15
0.20
0.20
0.16
0.15
0.02
0.03
0.10
0.14
0.15
0.10
0.03
0.10
0.10
0.14
0.14
0.05
0.10
0.15
0.15
0.05
0.03
0.02
0.02
0.14
0.05
0.02
0.00
0.09
0.00
0.03
0.02
0.00
0.00
0.00
0.20
0.00
0.03
0.03
0.02
0.00
0.00
0.00
0.03
0.03
0.03
0.00
0.00
0.09
0.15
0.00
0.02
0.00
0.02
0.03
0.15
0.00
0.23
0.23
0.10
0.15
0.05
0.14
0.02
0.15
0.20
0.00
0.02
0.00
0.00
0.20
0.37
0.23
0.00
0.00
0.09
0.03
