0.42
0.39
0.49
0.47
0.55
0.47
0.49
0.39
0.29
0.20
0.24
0.37
0.41
0.41
0.34
0.39
0.33
0.09
0.04
0.13
0.20
0.20
0.35
0.37
0.31
0.25
0.16
0.13
0.16
0.20
0.15
0.09
0.15
0.34
0.20
0.15
0.05
0.13
0.05
0.05
0.05
0.15
0.13
0.05
0.05
0.05
0.05
0.00
0.00
0.05
0.05
0.05
0.05
0.05
0.13
0.05
0.05
0.04
0.00
0.04
0.00
0.00
0.05
0.05
0.05
0.13
0.05
0.00
0.04
0.05
0.05
0.05
0.05
0.00
0.00
0.05
0.09
0.05
0.05
0.05
0.05
0.00
0.05
0.04
0.05
0.04
0.00
0.04
0.05
0.05
0.13
0.05
0.05
0.05
0.05
0.20
0.25
0.20
0.09
0.05
0.04
0.00
0.00
0.04
0.05
0.04
0.00
0.00
0.04
0.05
0.05
0.15
0.34
0.31
0.35
0.51
0.59
0.50
0.58
0.75
0.82
0.88
0.88
0.90
0.97
0.88
0.72
0.09
0.41
0.33
0.24
0.20
0.24
0.22
0.34
0.29
0.29
0.22
0.20
0.20
0.22
0.24
0.24
0.20
0.22
0.22
0.20
0.20
0.20
0.20
0.20
0.20
0.20
0.20
0.20
0.20
0.22
0.25
0.22
0.39
0.46
0.39
0.37
0.39
0.39
0.42
0.55
0.42
0.51
0.51
0.51
0.55
0.42
0.39
0.25
0.25
0.24
0.37
0.39
0.29
0.09
0.00
0.00
0.05
0.13
0.15
0.16
0.16
0.16
0.20
0.25
0.34
0.35
0.35
0.20
0.15
0.09
0.16
0.20
0.16
0.16
0.15
0.15
0.15
0.13
0.05
0.05
0.05
0.09
0.09
0.09
0.05
0.13
0.13
0.05
0.05
0.05
0.05
0.05
0.05
0.05
0.05
0.00
0.05
0.09
0.16
0.13
0.05
0.05
0.05
0.05
0.04
0.04
0.04
0.05
0.09
0.05
0.04
0.05
0.05
0.05
0.09
0.13
0.05
0.00
0.00
0.00
0.00
0.04
0.05
0.05
0.05
0.05
0.04
0.00
0.00
0.05
0.04
0.00
0.00
0.05
0.05
0.05
0.16
0.15
0.05
0.00
0.14
0.26
0.26
0.20
0.09
0.00
0.00
0.00
0.00
0.00
0.00
0.05
0.20
0.35
0.43
0.50
0.50
0.48
0.56
0.72
0.81
0.88
0.87
0.88
0.90
0.88
0.66
0.09
0.37
0.25
0.25
0.20
0.22
0.20
0.29
0.20
0.29
0.20
0.29
0.20
0.20
0.25
0.20
0.20
0.20
0.24
0.24
0.20
0.24
0.24
0.22
0.25
0.20
0.27
0.24
0.20
0.22
0.22
0.25
0.29
0.29
0.25
0.29
0.34
0.46
0.46
0.55
0.49
0.39
0.39
0.46
0.37
0.29
0.22
0.29
0.22
0.33
0.34
0.34
0.39
0.14
0.04
0.05
0.13
0.15
0.20
0.25
0.25
0.31
0.39
0.35
0.20
0.16
0.20
0.25
0.25
0.20
0.20
0.16
0.16
0.16
0.16
0.16
0.16
0.16
0.16
0.20
0.13
0.05
0.05
0.15
0.05
0.05
0.13
0.13
0.05
0.05
0.05
0.05
0.05
0.05
0.05
0.05
0.05
0.04
0.05
0.16
0.05
0.05
0.13
0.05
0.05
0.05
0.04
0.04
0.05
0.05
0.05
0.05
0.04
0.00
0.00
0.00
0.04
0.04
0.00
0.00
0.05
0.00
0.00
0.04
0.05
0.00
0.04
0.00
0.00
0.04
0.00
0.00
0.00
0.00
0.04
0.05
0.09
0.13
0.05
0.04
0.00
0.00
0.00
0.00
0.00
0.00
0.00
0.00
0.00
0.09
0.00
0.15
0.37
0.39
0.35
0.46
0.63
0.63
0.63
0.75
0.82
0.88
0.87
0.92
0.95
0.87
0.76
0.15
0.33
0.37
0.27
0.27
0.24
0.20
0.20
0.20
0.27
0.24
0.20
0.20
0.20
0.20
0.24
0.24
0.20
0.24
0.33
0.27
0.20
0.20
0.20
0.24
0.20
0.20
0.20
0.20
0.24
0.24
0.22
0.29
0.22
0.20
0.25
0.34
0.46
0.55
0.62
0.58
0.51
0.55
0.49
0.34
0.29
0.22
0.20
0.25
0.34
0.34
0.42
0.33
0.29
0.00
0.05
0.16
0.16
0.20
0.20
0.40
0.40
0.41
0.43
0.43
0.43
0.43
0.43
0.31
0.09
0.15
0.16
0.13
0.13
0.15
0.05
0.05
0.09
0.09
0.05
0.05
0.05
0.09
0.09
0.16
0.16
0.05
0.00
0.04
0.05
0.05
0.05
0.05
0.05
0.05
0.05
0.05
0.05
0.04
0.05
0.04
0.05
0.05
0.04
0.04
0.05
0.04
0.05
0.04
0.05
0.05
0.05
0.05
0.04
0.04
0.00
0.00
0.00
0.04
0.04
0.05
0.05
0.05
0.04
0.05
0.05
0.04
0.00
0.00
0.04
0.05
0.05
0.05
0.13
0.16
0.31
0.31
0.05
0.04
0.00
0.00
0.05
0.04
0.00
0.00
0.00
0.00
0.00
0.00
0.00
0.25
0.43
0.45
0.51
0.64
0.65
0.63
0.68
0.79
0.86
0.88
0.88
0.95
0.90
0.86
0.59
0.14
0.41
0.33
0.34
0.25
0.25
0.25
0.24
0.24
0.22
0.20
0.20
0.27
0.27
0.27
0.25
0.41
0.37
0.33
0.25
0.27
0.25
0.24
0.24
0.27
0.24
0.27
0.27
0.34
0.33
0.24
0.20
0.20
0.20
0.25
0.29
0.34
0.42
0.46
0.46
0.55
0.62
0.62
0.55
0.49
0.39
0.29
0.22
0.20
0.27
0.41
0.40
0.40
0.26
0.14
0.00
0.05
0.15
0.15
0.16
0.20
0.25
0.39
0.34
0.20
0.20
0.16
0.20
0.16
0.16
0.16
0.20
0.15
0.13
0.15
0.13
0.09
0.09
0.09
0.05
0.05
0.13
0.13
0.09
0.05
0.05
0.09
0.04
0.04
0.05
0.05
0.04
0.04
0.05
0.00
0.00
0.00
0.00
0.00
0.00
0.00
0.04
0.04
0.00
0.00
0.00
0.00
0.05
0.04
0.09
0.00
0.04
0.00
0.14
0.00
0.00
0.00
0.09
0.00
0.00
0.09
0.00
0.00
0.00
0.00
0.00
0.00
0.00
0.00
0.00
0.04
0.04
0.05
0.04
0.04
0.09
0.16
0.05
0.00
0.00
0.20
0.20
0.00
0.00
0.00
0.29
0.20
0.00
0.00
0.20
0.14
0.09
0.39
0.41
0.48
0.63
0.63
0.58
0.69
0.81
0.87
0.87
0.88
0.93
0.88
0.81
0.37
0.40
0.27
0.20
0.25
0.25
0.20
0.20
0.22
0.25
0.29
0.29
0.29
0.20
0.20
0.20
0.20
0.22
0.29
0.29
0.22
0.20
0.29
0.29
0.20
0.20
0.20
0.34
0.39
0.37
0.39
0.34
0.37
0.42
0.47
0.51
0.55
0.70
0.71
0.76
0.78
0.78
0.76
0.78
0.76
0.67
0.55
0.49
0.34
0.29
0.20
0.24
0.41
0.37
0.34
0.20
0.00
0.00
0.04
0.05
0.05
0.09
0.15
0.16
0.20
0.16
0.16
0.15
0.15
0.05
0.05
0.05
0.05
0.04
0.04
0.05
0.05
0.09
0.05
0.05
0.05
0.04
0.00
0.04
0.00
0.00
0.14
0.14
0.09
0.00
0.00
0.00
0.04
0.00
0.00
0.00
0.04
0.14
0.20
0.14
0.00
0.00
0.14
0.14
0.09
0.09
0.00
0.14
0.09
0.14
0.20
0.14
0.14
0.20
0.09
0.09
0.14
0.09
0.00
0.00
0.00
0.00
0.14
0.33
0.33
0.14
0.00
0.09
0.20
0.20
0.20
0.20
0.14
0.09
0.00
0.05
0.09
0.05
0.05
0.00
0.20
0.20
0.14
0.14
0.20
0.34
0.20
0.26
0.20
0.20
0.20
0.00
0.13
0.20
0.20
0.40
0.48
0.51
0.48
0.68
0.78
0.84
0.90
0.88
0.90
0.87
0.81
0.37
0.41
0.24
0.22
0.29
0.29
0.29
0.25
0.22
0.34
0.46
0.39
0.29
0.29
0.20
0.20
0.25
0.29
0.20
0.29
0.29
0.25
0.25
0.25
0.33
0.37
0.27
0.20
0.24
0.20
0.25
0.29
0.22
0.20
0.25
0.37
0.34
0.42
0.55
0.62
0.62
0.62
0.62
0.58
0.51
0.46
0.42
0.42
0.29
0.20
0.27
0.33
0.41
0.39
0.33
0.09
0.00
0.04
0.05
0.16
0.20
0.25
0.20
0.16
0.20
0.25
0.20
0.16
0.15
0.15
0.16
0.15
0.13
0.15
0.16
0.09
0.09
0.13
0.05
0.05
0.05
0.09
0.15
0.13
0.13
0.15
0.15
0.09
0.05
0.05
0.09
0.09
0.05
0.05
0.05
0.04
0.05
0.09
0.05
0.05
0.05
0.05
0.05
0.05
0.09
0.15
0.09
0.05
0.05
0.05
0.09
0.09
0.15
0.15
0.05
0.05
0.05
0.05
0.05
0.13
0.15
0.09
0.15
0.13
0.05
0.05
0.09
0.13
0.09
0.13
0.13
0.09
0.13
0.13
0.13
0.20
0.31
0.34
0.37
0.25
0.09
0.09
0.04
0.13
0.15
0.05
0.05
0.04
0.04
0.04
0.05
0.05
0.05
0.40
0.48
0.50
0.65
0.69
0.64
0.63
0.72
0.81
0.88
0.87
0.89
0.97
0.88
0.81
0.41
0.29
0.37
0.24
0.27
0.25
0.20
0.20
0.20
0.20
0.20
0.20
0.24
0.20
0.20
0.20
0.25
0.27
0.25
0.24
0.20
0.24
0.34
0.25
0.27
0.27
0.27
0.25
0.25
0.20
0.20
0.20
0.20
0.25
0.25
0.22
0.34
0.47
0.51
0.42
0.37
0.39
0.37
0.37
0.29
0.29
0.29
0.22
0.25
0.37
0.42
0.41
0.37
0.14
0.04
0.05
0.05
0.09
0.25
0.41
0.35
0.37
0.35
0.39
0.40
0.39
0.40
0.35
0.37
0.35
0.43
0.35
0.31
0.34
0.20
0.16
0.20
0.16
0.05
0.05
0.05
0.05
0.13
0.13
0.05
0.05
0.05
0.05
0.05
0.05
0.05
0.05
0.00
0.00
0.00
0.00
0.00
0.05
0.04
0.00
0.00
0.00
0.05
0.05
0.05
0.00
0.00
0.00
0.04
0.05
0.05
0.05
0.04
0.00
0.00
0.04
0.05
0.00
0.00
0.04
0.05
0.05
0.05
0.05
0.04
0.05
0.05
0.05
0.00
0.00
0.00
0.05
0.05
0.05
0.05
0.13
0.20
0.20
0.09
0.00
0.00
0.00
0.05
0.05
0.04
0.00
0.00
0.00
0.09
0.00
0.00
0.09
0.41
0.43
0.45
0.63
0.66
0.63
0.64
0.76
0.83
0.89
0.89
0.90
0.98
0.88
0.73
0.09
0.39
0.41
0.41
0.27
0.20
0.20
0.25
0.25
0.20
0.20
0.24
0.25
0.20
0.20
0.20
0.20
0.20
0.25
0.27
0.27
0.25
0.24
0.25
0.24
0.24
0.24
0.24
0.20
0.20
0.20
0.25
0.24
0.22
0.25
0.29
0.29
0.37
0.51
0.55
0.58
0.55
0.55
0.55
0.51
0.46
0.37
0.29
0.20
0.37
0.41
0.33
0.26
0.14
0.04
0.05
0.16
0.13
0.09
0.16
0.20
0.20
0.31
0.25
0.25
0.31
0.25
0.16
0.15
0.05
0.15
0.25
0.13
0.09
0.05
0.05
0.05
0.05
0.05
0.05
0.05
0.05
0.09
0.05
0.05
0.05
0.05
0.05
0.04
0.04
0.05
0.04
0.00
0.00
0.00
0.00
0.04
0.05
0.04
0.00
0.00
0.00
0.00
0.05
0.05
0.05
0.04
0.00
0.00
0.00
0.00
0.00
0.05
0.05
0.00
0.09
0.14
0.09
0.00
0.00
0.00
0.05
0.00
0.00
0.00
0.00
0.00
0.00
0.04
0.05
0.04
0.00
0.00
0.05
0.09
0.16
0.16
0.13
0.05
0.00
0.14
0.14
0.00
0.00
0.00
0.00
0.00
0.09
0.09
0.29
0.09
0.16
0.45
0.35
0.46
0.63
0.63
0.53
0.68
0.81
0.86
0.87
0.90
0.93
0.88
0.81
0.37
0.37
0.37
0.27
0.20
0.20
0.20
0.20
0.20
0.20
0.20
0.20
0.20
0.33
0.33
0.20
0.20
0.20
0.20
0.20
0.20
0.20
0.20
0.27
0.27
0.20
0.24
0.24
0.20
0.29
0.20
0.22
0.29
0.25
0.46
0.42
0.39
0.55
0.55
0.58
0.67
0.62
0.67
0.71
0.67
0.62
0.51
0.37
0.20
0.27
0.33
0.42
0.40
0.39
0.26
0.04
0.04
0.00
0.05
0.15
0.16
0.31
0.31
0.31
0.25
0.20
0.13
0.13
0.15
0.05
0.05
0.05
0.04
0.00
0.00
0.04
0.04
0.04
0.05
0.00
0.00
0.00
0.05
0.00
0.00
0.00
0.00
0.09
0.00
0.09
0.09
0.09
0.00
0.00
0.04
0.04
0.00
0.00
0.14
0.20
0.14
0.09
0.09
0.20
0.26
0.14
0.00
0.00
0.00
0.00
0.00
0.00
0.00
0.00
0.00
0.00
0.00
0.00
0.00
0.05
0.00
0.00
0.00
0.00
0.00
0.00
0.00
0.00
0.04
0.00
0.00
0.00
0.00
0.00
0.00
0.00
0.05
0.05
0.00
0.20
0.26
0.00
0.04
0.00
0.00
0.09
0.00
0.00
0.00
0.14
0.00
0.09
0.34
0.20
0.31
0.48
0.51
0.46
0.53
0.73
0.83
0.89
0.88
0.90
0.94
0.87
0.63
0.14
0.37
0.24
0.20
0.29
0.20
0.20
0.20
0.34
0.34
0.25
0.22
0.29
0.20
0.20
0.20
0.20
0.20
0.20
0.24
0.24
0.20
0.20
0.20
0.20
0.20
0.20
0.20
0.20
0.29
0.20
0.20
0.20
0.20
0.39
0.47
0.42
0.37
0.37
0.49
0.55
0.55
0.58
0.49
0.47
0.46
0.34
0.29
0.20
0.24
0.41
0.39
0.26
0.14
0.00
0.04
0.05
0.13
0.20
0.20
0.25
0.35
0.43
0.45
0.41
0.34
0.25
0.25
0.34
0.39
0.31
0.25
0.20
0.16
0.16
0.16
0.20
0.25
0.16
0.13
0.05
0.05
0.09
0.15
0.16
0.16
0.16
0.20
0.15
0.15
0.13
0.15
0.16
0.16
0.13
0.05
0.09
0.09
0.09
0.05
0.05
0.05
0.05
0.04
0.04
0.04
0.04
0.05
0.04
0.05
0.05
0.09
0.05
0.05
0.00
0.00
0.00
0.00
0.00
0.05
0.00
0.00
0.00
0.00
0.05
0.05
0.05
0.00
0.04
0.04
0.05
0.00
0.05
0.09
0.15
0.15
0.16
0.09
0.05
0.04
0.00
0.00
0.00
0.00
0.00
0.00
0.00
0.00
0.09
0.09
0.15
0.39
0.35
0.39
0.59
0.63
0.61
0.65
0.77
0.83
0.89
0.90
0.96
1.00
0.88
0.61
0.00
0.41
0.34
0.24
0.20
0.20
0.25
0.25
0.20
0.29
0.29
0.25
0.20
0.25
0.24
0.24
0.25
0.24
0.20
0.20
0.27
0.27
0.20
0.20
0.25
0.20
0.25
0.20
0.20
0.20
0.20
0.25
0.20
0.39
0.42
0.42
0.55
0.47
0.51
0.55
0.62
0.62
0.55
0.51
0.47
0.29
0.20
0.20
0.20
0.20
0.27
0.41
0.29
0.09
0.00
0.04
0.05
0.15
0.20
0.35
0.40
0.40
0.35
0.25
0.25
0.25
0.20
0.20
0.20
0.20
0.15
0.09
0.13
0.15
0.13
0.09
0.05
0.00
0.00
0.05
0.05
0.05
0.04
0.05
0.05
0.05
0.00
0.00
0.05
0.00
0.00
0.00
0.00
0.00
0.00
0.00
0.05
0.04
0.00
0.00
0.00
0.00
0.00
0.05
0.05
0.00
0.00
0.00
0.00
0.00
0.00
0.00
0.14
0.09
0.00
0.00
0.09
0.00
0.00
0.00
0.00
0.00
0.00
0.00
0.00
0.14
0.14
0.00
0.09
0.05
0.00
0.04
0.05
0.05
0.09
0.13
0.05
0.00
0.14
0.09
0.09
0.00
0.09
0.20
0.20
0.20
0.09
0.00
0.00
0.05
0.20
0.20
0.40
0.59
0.63
0.59
0.66
0.80
0.86
0.89
0.88
0.90
0.92
0.84
0.41
0.26
0.37
0.24
0.24
0.20
0.20
0.20
0.29
0.25
0.25
0.22
0.20
0.25
0.24
0.20
0.24
0.20
0.20
0.20
0.20
0.22
0.29
0.22
0.20
0.24
0.24
0.20
0.25
0.22
0.20
0.20
0.20
0.22
0.37
0.46
0.55
0.49
0.47
0.55
0.58
0.47
0.51
0.49
0.39
0.39
0.58
0.29
0.29
0.33
0.27
0.25
0.41
0.37
0.29
0.14
0.05
0.13
0.05
0.13
0.35
0.41
0.35
0.31
0.37
0.41
0.39
0.40
0.37
0.20
0.09
0.15
0.16
0.05
0.09
0.15
0.20
0.16
0.16
0.15
0.15
0.13
0.05
0.13
0.09
0.05
0.05
0.05
0.15
0.05
0.05
0.05
0.05
0.00
0.00
0.05
0.05
0.05
0.05
0.05
0.05
0.00
0.00
0.00
0.00
0.00
0.00
0.00
0.04
0.00
0.00
0.00
0.00
0.00
0.00
0.04
0.00
0.14
0.00
0.00
0.05
0.00
0.00
0.00
0.09
0.00
0.05
0.00
0.20
0.14
0.00
0.05
0.04
0.04
0.04
0.00
0.00
0.05
0.15
0.05
0.33
0.26
0.14
0.00
0.00
0.00
0.09
0.09
0.09
0.00
0.00
0.00
0.05
0.20
0.20
0.35
0.51
0.59
0.58
0.64
0.75
0.83
0.89
0.88
0.90
0.92
0.89
0.66
0.14
0.41
0.24
0.20
0.20
0.22
0.20
0.20
0.20
0.20
0.34
0.29
0.25
0.29
0.22
0.20
0.20
0.33
0.24
0.20
0.22
0.20
0.20
0.22
0.25
0.22
0.20
0.20
0.20
0.22
0.20
0.20
0.25
0.34
0.37
0.29
0.42
0.55
0.51
0.62
0.62
0.55
0.46
0.58
0.47
0.29
0.39
0.34
0.20
0.20
0.25
0.41
0.37
0.26
0.20
0.00
0.04
0.05
0.15
0.16
0.20
0.25
0.25
0.20
0.20
0.25
0.20
0.20
0.20
0.13
0.13
0.15
0.15
0.09
0.05
0.05
0.09
0.15
0.15
0.13
0.09
0.09
0.05
0.00
0.00
0.05
0.05
0.05
0.00
0.05
0.05
0.05
0.00
0.00
0.05
0.05
0.05
0.05
0.05
0.05
0.00
0.00
0.04
0.05
0.05
0.05
0.05
0.05
0.04
0.04
0.00
0.00
0.00
0.00
0.00
0.00
0.04
0.05
0.05
0.05
0.05
0.05
0.05
0.13
0.13
0.05
0.00
0.00
0.00
0.05
0.05
0.05
0.05
0.00
0.05
0.13
0.16
0.16
0.16
0.16
0.09
0.00
0.00
0.05
0.05
0.05
0.05
0.00
0.00
0.00
0.00
0.04
0.05
0.13
0.35
0.37
0.43
0.56
0.51
0.48
0.64
0.79
0.85
0.89
0.88
0.90
0.90
0.87
0.53
0.20
0.37
0.25
0.27
0.27
0.20
0.20
0.25
0.25
0.20
0.22
0.20
0.20
0.24
0.24
0.24
0.25
0.27
0.37
0.34
0.27
0.27
0.27
0.25
0.27
0.25
0.25
0.25
0.24
0.20
0.20
0.20
0.20
0.20
0.20
0.20
0.34
0.42
0.49
0.46
0.46
0.47
0.37
0.29
0.34
0.22
0.20
0.24
0.20
0.41
0.34
0.29
0.09
0.00
0.04
0.09
0.13
0.20
0.41
0.45
0.43
0.46
0.48
0.43
0.43
0.45
0.43
0.35
0.25
0.20
0.20
0.16
0.16
0.16
0.15
0.13
0.09
0.13
0.15
0.09
0.05
0.09
0.16
0.15
0.13
0.05
0.04
0.00
0.05
0.05
0.05
0.05
0.05
0.05
0.05
0.04
0.04
0.05
0.05
0.05
0.05
0.04
0.04
0.00
0.05
0.04
0.00
0.05
0.04
0.00
0.00
0.04
0.05
0.05
0.05
0.04
0.00
0.00
0.00
0.00
0.00
0.04
0.00
0.00
0.00
0.05
0.05
0.05
0.05
0.05
0.05
0.09
0.09
0.04
0.04
0.05
0.05
0.15
0.16
0.05
0.00
0.09
0.14
0.00
0.00
0.00
0.00
0.00
0.00
0.05
0.04
0.00
0.05
0.35
0.35
0.41
0.58
0.63
0.58
0.63
0.75
0.83
0.89
0.88
0.90
0.93
0.88
0.72
0.05
0.37
0.37
0.27
0.24
0.20
0.20
0.20
0.20
0.20
0.20
0.20
0.22
0.25
0.22
0.20
0.20
0.20
0.24
0.24
0.20
0.20
0.24
0.24
0.20
0.20
0.20
0.20
0.20
0.20
0.20
0.29
0.34
0.37
0.39
0.39
0.49
0.51
0.49
0.55
0.62
0.62
0.70
0.70
0.58
0.51
0.29
0.34
0.29
0.25
0.33
0.42
0.29
0.26
0.00
0.00
0.05
0.09
0.16
0.25
0.37
0.40
0.39
0.20
0.15
0.16
0.16
0.16
0.20
0.15
0.13
0.13
0.09
0.09
0.05
0.05
0.05
0.05
0.05
0.05
0.05
0.05
0.05
0.00
0.00
0.05
0.04
0.05
0.05
0.05
0.05
0.04
0.00
0.00
0.04
0.05
0.05
0.04
0.00
0.00
0.00
0.00
0.00
0.00
0.00
0.00
0.00
0.04
0.05
0.00
0.14
0.09
0.00
0.05
0.05
0.00
0.14
0.09
0.00
0.00
0.00
0.09
0.09
0.00
0.00
0.00
0.00
0.00
0.00
0.00
0.05
0.13
0.16
0.13
0.00
0.09
0.09
0.14
0.09
0.09
0.09
0.09
0.00
0.09
0.14
0.00
0.09
0.05
0.37
0.34
0.41
0.61
0.65
0.63
0.65
0.76
0.83
0.90
0.88
0.91
0.92
0.89
0.68
0.04
0.41
0.34
0.24
0.20
0.20
0.20
0.20
0.20
0.25
0.29
0.22
0.20
0.27
0.22
0.20
0.20
0.20
0.20
0.20
0.20
0.20
0.20
0.24
0.25
0.20
0.20
0.20
0.22
0.20
0.20
0.20
0.29
0.29
0.22
0.29
0.39
0.49
0.58
0.67
0.70
0.71
0.67
0.49
0.34
0.29
0.34
0.25
0.20
0.25
0.41
0.40
0.29
0.14
0.04
0.05
0.05
0.05
0.15
0.31
0.43
0.41
0.43
0.39
0.35
0.20
0.20
0.15
0.20
0.20
0.20
0.20
0.20
0.15
0.15
0.09
0.05
0.05
0.09
0.05
0.05
0.04
0.00
0.04
0.05
0.05
0.05
0.05
0.05
0.00
0.00
0.00
0.04
0.00
0.05
0.04
0.00
0.00
0.00
0.09
0.09
0.04
0.04
0.00
0.00
0.00
0.00
0.04
0.05
0.00
0.00
0.00
0.00
0.00
0.00
0.05
0.00
0.00
0.00
0.00
0.00
0.00
0.00
0.00
0.00
0.00
0.04
0.05
0.04
0.04
0.00
0.00
0.00
0.04
0.05
0.09
0.16
0.15
0.05
0.05
0.09
0.14
0.09
0.00
0.00
0.09
0.00
0.00
0.09
0.14
0.26
0.09
0.25
0.31
0.37
0.59
0.65
0.63
0.63
0.73
0.81
0.88
0.87
0.88
0.94
0.87
0.76
0.16
0.41
0.20
0.20
0.20
0.20
0.20
0.20
0.20
0.29
0.20
0.22
0.29
0.25
0.25
0.29
0.20
0.20
0.22
0.22
0.29
0.22
0.25
0.29
0.34
0.22
0.22
0.20
0.29
0.34
0.37
0.29
0.37
0.39
0.51
0.58
0.62
0.55
0.67
0.71
0.67
0.55
0.55
0.62
0.55
0.46
0.39
0.42
0.37
0.22
0.25
0.27
0.37
0.34
0.09
0.00
0.00
0.05
0.09
0.13
0.16
0.16
0.25
0.20
0.13
0.13
0.09
0.09
0.15
0.05
0.09
0.05
0.05
0.00
0.05
0.05
0.05
0.05
0.05
0.04
0.00
0.00
0.04
0.04
0.00
0.00
0.05
0.05
0.04
0.00
0.04
0.00
0.00
0.00
0.00
0.00
0.04
0.04
0.05
0.05
0.05
0.09
0.04
0.00
0.05
0.05
0.09
0.00
0.00
0.00
0.05
0.05
0.04
0.04
0.04
0.00
0.05
0.05
0.00
0.00
0.00
0.00
0.04
0.04
0.00
0.00
0.04
0.05
0.05
0.05
0.05
0.05
0.05
0.04
0.05
0.05
0.15
0.16
0.15
0.05
0.00
0.04
0.00
0.04
0.00
0.05
0.05
0.00
0.05
0.04
0.00
0.04
0.35
0.43
0.35
0.45
0.63
0.64
0.53
0.66
0.79
0.86
0.87
0.88
0.94
0.89
0.83
0.56
0.33
0.37
0.24
0.20
0.20
0.25
0.24
0.24
0.20
0.20
0.20
0.24
0.24
0.33
0.20
0.22
0.24
0.27
0.27
0.37
0.20
0.24
0.20
0.24
0.25
0.34
0.25
0.20
0.25
0.24
0.20
0.20
0.20
0.20
0.20
0.29
0.34
0.37
0.29
0.34
0.39
0.34
0.34
0.39
0.29
0.20
0.20
0.20
0.25
0.41
0.37
0.39
0.33
0.09
0.04
0.05
0.16
0.20
0.31
0.35
0.43
0.43
0.43
0.43
0.45
0.45
0.43
0.43
0.35
0.31
0.20
0.16
0.16
0.20
0.25
0.31
0.20
0.31
0.16
0.09
0.05
0.05
0.09
0.05
0.05
0.05
0.05
0.05
0.04
0.05
0.05
0.05
0.05
0.04
0.00
0.04
0.05
0.00
0.05
0.05
0.04
0.04
0.04
0.05
0.04
0.00
0.00
0.00
0.00
0.00
0.00
0.00
0.00
0.04
0.04
0.04
0.00
0.14
0.00
0.00
0.05
0.00
0.20
0.09
0.00
0.00
0.09
0.00
0.04
0.00
0.09
0.00
0.00
0.04
0.15
0.25
0.15
0.05
0.00
0.20
0.14
0.14
0.14
0.00
0.20
0.20
0.14
0.00
0.00
0.00
0.14
0.05
0.31
0.37
0.43
0.56
0.63
0.56
0.68
0.79
0.85
0.87
0.88
0.91
0.88
0.82
0.40
0.33
0.37
0.25
0.24
0.20
0.22
0.22
0.22
0.22
0.25
0.25
0.22
0.22
0.25
0.25
0.20
0.25
0.25
0.20
0.20
0.20
0.20
0.20
0.20
0.20
0.24
0.20
0.24
0.20
0.20
0.22
0.34
0.29
0.29
0.29
0.46
0.49
0.47
0.55
0.55
0.46
0.46
0.47
0.49
0.34
0.29
0.25
0.20
0.24
0.37
0.42
0.40
0.29
0.14
0.09
0.00
0.05
0.16
0.20
0.31
0.34
0.25
0.31
0.35
0.43
0.39
0.20
0.16
0.16
0.20
0.20
0.20
0.20
0.20
0.20
0.16
0.13
0.20
0.20
0.20
0.16
0.15
0.13
0.13
0.05
0.04
0.05
0.05
0.05
0.04
0.00
0.00
0.00
0.04
0.04
0.05
0.04
0.04
0.04
0.00
0.00
0.00
0.04
0.05
0.04
0.00
0.00
0.00
0.04
0.05
0.04
0.00
0.05
0.00
0.09
0.00
0.00
0.00
0.00
0.00
0.00
0.00
0.04
0.00
0.00
0.04
0.04
0.00
0.00
0.00
0.00
0.00
0.00
0.04
0.05
0.09
0.16
0.20
0.13
0.00
0.00
0.09
0.14
0.09
0.20
0.20
0.20
0.26
0.20
0.20
0.14
0.00
0.20
0.41
0.39
0.53
0.63
0.63
0.50
0.68
0.78
0.86
0.88
0.88
0.92
0.92
0.82
0.40
0.20
0.41
0.24
0.20
0.20
0.20
0.20
0.20
0.20
0.20
0.20
0.20
0.20
0.24
0.24
0.20
0.25
0.27
0.27
0.20
0.24
0.27
0.20
0.20
0.20
0.24
0.24
0.20
0.24
0.20
0.20
0.25
0.25
0.25
0.22
0.37
0.46
0.55
0.55
0.42
0.51
0.55
0.49
0.42
0.37
0.29
0.22
0.25
0.37
0.41
0.39
0.26
0.09
0.00
0.00
0.05
0.15
0.16
0.20
0.35
0.41
0.43
0.43
0.41
0.43
0.43
0.35
0.20
0.20
0.20
0.13
0.09
0.15
0.09
0.09
0.05
0.05
0.05
0.15
0.05
0.04
0.05
0.09
0.13
0.05
0.05
0.09
0.05
0.04
0.00
0.00
0.00
0.00
0.04
0.04
0.05
0.05
0.04
0.05
0.05
0.05
0.05
0.00
0.00
0.00
0.00
0.05
0.04
0.09
0.00
0.04
0.04
0.04
0.05
0.00
0.00
0.04
0.00
0.00
0.00
0.00
0.04
0.00
0.14
0.00
0.05
0.05
0.00
0.00
0.00
0.00
0.09
0.09
0.00
0.05
0.13
0.13
0.09
0.05
0.05
0.00
0.00
0.09
0.00
0.00
0.09
0.26
0.14
0.20
0.20
0.26
0.14
0.05
0.31
0.37
0.34
0.51
0.58
0.53
0.53
0.72
0.81
0.89
0.88
0.88
0.96
0.90
0.69
0.05
0.42
0.24
0.20
0.20
0.25
0.20
0.29
0.22
0.20
0.20
0.20
0.20
0.22
0.20
0.20
0.20
0.22
0.20
0.20
0.20
0.22
0.20
0.20
0.20
0.20
0.20
0.20
0.20
0.20
0.20
0.37
0.37
0.39
0.39
0.39
0.55
0.55
0.51
0.62
0.55
0.51
0.51
0.55
0.46
0.47
0.42
0.29
0.25
0.20
0.37
0.39
0.34
0.26
0.00
0.00
0.04
0.05
0.15
0.16
0.16
0.20
0.20
0.20
0.20
0.15
0.09
0.13
0.20
0.20
0.15
0.13
0.05
0.05
0.05
0.09
0.09
0.09
0.13
0.09
0.09
0.13
0.05
0.05
0.05
0.05
0.05
0.05
0.05
0.04
0.00
0.00
0.00
0.04
0.05
0.05
0.05
0.04
0.00
0.00
0.00
0.00
0.04
0.04
0.00
0.00
0.04
0.04
0.00
0.00
0.00
0.00
0.09
0.00
0.00
0.09
0.00
0.05
0.00
0.00
0.04
0.00
0.00
0.14
0.09
0.09
0.00
0.00
0.00
0.00
0.04
0.05
0.00
0.00
0.04
0.04
0.05
0.05
0.05
0.13
0.09
0.04
0.00
0.00
0.00
0.00
0.00
0.00
0.00
0.04
0.05
0.05
0.14
0.00
0.16
0.43
0.45
0.50
0.56
0.53
0.50
0.71
0.81
0.87
0.87
0.92
0.96
0.88
0.78
0.25
0.34
0.34
0.25
0.20
0.22
0.20
0.20
0.20
0.24
0.27
0.25
0.20
0.20
0.24
0.24
0.20
0.20
0.20
0.20
0.20
0.20
0.20
0.24
0.25
0.25
0.25
0.27
0.20
0.24
0.33
0.22
0.29
0.29
0.29
0.37
0.39
0.42
0.29
0.34
0.37
0.37
0.29
0.39
0.42
0.29
0.25
0.20
0.34
0.42
0.41
0.40
0.37
0.26
0.00
0.05
0.09
0.15
0.20
0.31
0.35
0.40
0.39
0.35
0.41
0.40
0.35
0.43
0.39
0.31
0.39
0.31
0.34
0.35
0.37
0.16
0.13
0.15
0.13
0.05
0.05
0.09
0.13
0.05
0.05
0.05
0.05
0.05
0.05
0.05
0.05
0.05
0.04
0.00
0.04
0.05
0.04
0.05
0.05
0.05
0.05
0.05
0.05
0.05
0.05
0.05
0.04
0.00
0.00
0.05
0.05
0.00
0.00
0.05
0.00
0.00
0.00
0.00
0.05
0.05
0.04
0.04
0.05
0.05
0.00
0.05
0.04
0.05
0.05
0.04
0.00
0.00
0.05
0.04
0.05
0.09
0.15
0.16
0.20
0.13
0.04
0.00
0.00
0.00
0.00
0.04
0.00
0.09
0.00
0.04
0.04
0.00
0.05
0.34
0.43
0.50
0.64
0.68
0.63
0.64
0.78
0.83
0.88
0.88
0.93
1.00
0.89
0.68
0.05
0.39
0.34
0.25
0.27
0.24
0.20
0.20
0.25
0.34
0.27
0.24
0.20
0.20
0.20
0.20
0.25
0.27
0.25
0.20
0.20
0.24
0.25
0.25
0.24
0.27
0.27
0.24
0.24
0.24
0.20
0.20
0.20
0.20
0.29
0.39
0.39
0.37
0.37
0.49
0.58
0.62
0.62
0.55
0.51
0.55
0.47
0.37
0.25
0.25
0.42
0.37
0.26
0.09
0.00
0.05
0.09
0.16
0.20
0.16
0.16
0.20
0.31
0.31
0.15
0.09
0.15
0.16
0.09
0.09
0.20
0.16
0.09
0.05
0.05
0.05
0.05
0.05
0.05
0.09
0.05
0.05
0.05
0.09
0.05
0.05
0.09
0.05
0.05
0.04
0.00
0.05
0.05
0.05
0.05
0.05
0.05
0.04
0.00
0.00
0.05
0.04
0.05
0.05
0.05
0.00
0.00
0.00
0.04
0.05
0.04
0.00
0.00
0.00
0.04
0.05
0.04
0.05
0.00
0.00
0.00
0.00
0.00
0.00
0.00
0.00
0.00
0.00
0.00
0.04
0.00
0.00
0.00
0.04
0.00
0.05
0.09
0.15
0.20
0.15
0.05
0.05
0.00
0.00
0.00
0.00
0.00
0.00
0.09
0.09
0.04
0.00
0.00
0.09
0.35
0.40
0.53
0.66
0.66
0.61
0.70
0.81
0.87
0.87
0.90
0.94
0.97
0.82
0.35
0.14
0.41
0.27
0.24
0.20
0.20
0.20
0.25
0.27
0.24
0.20
0.20
0.20
0.24
0.27
0.25
0.24
0.24
0.24
0.24
0.24
0.20
0.20
0.24
0.25
0.24
0.20
0.27
0.27
0.24
0.20
0.20
0.29
0.34
0.25
0.39
0.47
0.51
0.55
0.62
0.62
0.62
0.62
0.62
0.47
0.42
0.39
0.25
0.20
0.25
0.27
0.37
0.37
0.09
0.00
0.05
0.09
0.13
0.20
0.20
0.25
0.31
0.31
0.34
0.20
0.20
0.20
0.20
0.20
0.20
0.20
0.13
0.13
0.16
0.15
0.09
0.09
0.09
0.16
0.15
0.05
0.13
0.15
0.09
0.05
0.05
0.05
0.05
0.05
0.05
0.05
0.05
0.05
0.05
0.05
0.05
0.05
0.05
0.05
0.05
0.05
0.05
0.05
0.00
0.00
0.04
0.05
0.05
0.04
0.04
0.04
0.05
0.00
0.00
0.00
0.00
0.00
0.00
0.00
0.14
0.09
0.00
0.00
0.00
0.00
0.09
0.14
0.00
0.00
0.09
0.20
0.20
0.14
0.14
0.00
0.00
0.04
0.05
0.05
0.05
0.00
0.20
0.20
0.20
0.26
0.26
0.20
0.20
0.20
0.20
0.26
0.20
0.09
0.05
0.25
0.25
0.39
0.56
0.51
0.48
0.64
0.77
0.84
0.89
0.88
0.89
0.93
0.82
0.35
0.40
0.25
0.24
0.20
0.29
0.29
0.29
0.29
0.34
0.29
0.22
0.20
0.25
0.25
0.20
0.20
0.20
0.20
0.20
0.20
0.29
0.22
0.20
0.20
0.20
0.22
0.20
0.20
0.20
0.29
0.29
0.29
0.29
0.39
0.47
0.47
0.51
0.70
0.67
0.67
0.71
0.71
0.71
0.67
0.55
0.55
0.39
0.25
0.20
0.20
0.41
0.39
0.39
0.34
0.20
0.14
0.04
0.09
0.15
0.09
0.15
0.20
0.31
0.20
0.16
0.16
0.16
0.16
0.16
0.15
0.09
0.05
0.09
0.15
0.13
0.05
0.09
0.05
0.05
0.05
0.09
0.05
0.05
0.05
0.05
0.05
0.05
0.00
0.05
0.05
0.05
0.00
0.00
0.05
0.05
0.04
0.04
0.05
0.05
0.09
0.05
0.05
0.04
0.00
0.00
0.00
0.00
0.04
0.05
0.00
0.00
0.00
0.00
0.00
0.00
0.00
0.00
0.00
0.00
0.00
0.00
0.00
0.04
0.00
0.00
0.00
0.00
0.00
0.00
0.05
0.05
0.00
0.14
0.00
0.04
0.00
0.00
0.05
0.05
0.05
0.05
0.04
0.00
0.09
0.09
0.04
0.00
0.14
0.20
0.14
0.00
0.00
0.00
0.00
0.09
0.25
0.31
0.43
0.65
0.65
0.58
0.68
0.81
0.86
0.88
0.88
0.93
0.96
0.82
0.35
0.14
0.41
0.27
0.22
0.29
0.20
0.20
0.20
0.25
0.20
0.20
0.20
0.20
0.24
0.20
0.24
0.25
0.24
0.20
0.24
0.34
0.34
0.24
0.20
0.20
0.22
0.20
0.20
0.20
0.25
0.29
0.34
0.20
0.29
0.39
0.39
0.51
0.62
0.62
0.58
0.42
0.55
0.55
0.58
0.51
0.39
0.20
0.25
0.41
0.33
0.27
0.37
0.29
0.00
0.00
0.00
0.05
0.09
0.20
0.20
0.31
0.37
0.35
0.20
0.20
0.20
0.20
0.25
0.25
0.20
0.15
0.15
0.16
0.09
0.05
0.15
0.13
0.13
0.20
0.20
0.05
0.05
0.09
0.15
0.05
0.05
0.05
0.09
0.05
0.05
0.05
0.13
0.05
0.05
0.05
0.04
0.00
0.00
0.00
0.00
0.00
0.00
0.00
0.00
0.00
0.04
0.04
0.00
0.00
0.00
0.05
0.05
0.00
0.09
0.14
0.00
0.00
0.00
0.00
0.00
0.00
0.00
0.00
0.00
0.00
0.00
0.00
0.05
0.09
0.00
0.04
0.04
0.09
0.13
0.00
0.00
0.00
0.14
0.20
0.14
0.14
0.09
0.00
0.00
0.00
0.00
0.00
0.05
0.20
0.39
0.45
0.53
0.59
0.53
0.58
0.73
0.81
0.88
0.88
0.90
0.91
0.88
0.76
0.13
0.40
0.20
0.20
0.29
0.29
0.24
0.20
0.20
0.20
0.20
0.20
0.20
0.25
0.25
0.29
0.29
0.20
0.20
0.20
0.20
0.20
0.20
0.20
0.20
0.22
0.20
0.20
0.25
0.22
0.20
0.22
0.29
0.29
0.34
0.42
0.51
0.55
0.58
0.55
0.46
0.37
0.39
0.51
0.49
0.37
0.29
0.29
0.20
0.24
0.37
0.41
0.40
0.37
0.00
0.05
0.05
0.16
0.31
0.25
0.39
0.34
0.34
0.37
0.39
0.34
0.31
0.35
0.34
0.20
0.15
0.15
0.16
0.20
0.20
0.16
0.16
0.16
0.16
0.15
0.05
0.05
0.09
0.13
0.15
0.05
0.09
0.05
0.05
0.09
0.05
0.05
0.13
0.05
0.00
0.00
0.00
0.00
0.00
0.05
0.00
0.00
0.00
0.00
0.00
0.05
0.00
0.00
0.00
0.00
0.00
0.00
0.00
0.00
0.04
0.00
0.00
0.00
0.00
0.00
0.00
0.00
0.00
0.00
0.00
0.00
0.00
0.00
0.00
0.00
0.00
0.04
0.00
0.00
0.00
0.05
0.05
0.05
0.05
0.00
0.20
0.26
0.20
0.00
0.00
0.00
0.09
0.26
0.20
0.00
0.00
0.05
0.20
0.35
0.35
0.46
0.59
0.56
0.61
0.72
0.81
0.87
0.88
0.90
0.92
0.87
0.72
0.04
0.34
0.20
0.20
0.20
0.29
0.29
0.25
0.29
0.39
0.29
0.25
0.29
0.29
0.29
0.22
0.34
0.29
0.25
0.20
0.29
0.29
0.25
0.20
0.22
0.34
0.34
0.29
0.29
0.34
0.29
0.29
0.34
0.34
0.29
0.29
0.46
0.55
0.55
0.55
0.49
0.51
0.71
0.67
0.62
0.58
0.51
0.34
0.20
0.27
0.33
0.41
0.41
0.39
0.00
0.00
0.00
0.09
0.15
0.13
0.13
0.20
0.25
0.25
0.25
0.25
0.20
0.16
0.16
0.13
0.05
0.09
0.15
0.13
0.05
0.05
0.05
0.05
0.05
0.13
0.05
0.05
0.04
0.04
0.05
0.05
0.05
0.04
0.04
0.05
0.05
0.00
0.00
0.00
0.00
0.00
0.05
0.00
0.09
0.00
0.00
0.04
0.04
0.00
0.00
0.09
0.04
0.00
0.00
0.00
0.00
0.00
0.00
0.09
0.00
0.00
0.00
0.00
0.00
0.09
0.20
0.20
0.20
0.14
0.00
0.00
0.20
0.14
0.00
0.09
0.00
0.00
0.00
0.00
0.05
0.05
0.05
0.05
0.05
0.05
0.14
0.26
0.20
0.14
0.00
0.00
0.04
0.20
0.26
0.00
0.14
0.09
0.20
0.37
0.40
0.48
0.59
0.56
0.58
0.70
0.81
0.87
0.87
0.88
0.92
0.89
0.81
0.35
0.39
0.25
0.20
0.20
0.20
0.20
0.29
0.34
0.29
0.29
0.22
0.22
0.25
0.22
0.24
0.24
0.20
0.22
0.22
0.22
0.22
0.20
0.24
0.20
0.24
0.37
0.34
0.25
0.25
0.25
0.25
0.24
0.25
0.29
0.29
0.37
0.46
0.46
0.37
0.39
0.58
0.58
0.47
0.39
0.47
0.55
0.37
0.22
0.24
0.25
0.37
0.40
0.14
0.14
0.09
0.04
0.05
0.09
0.16
0.16
0.15
0.35
0.35
0.25
0.34
0.25
0.34
0.25
0.20
0.15
0.15
0.13
0.16
0.16
0.16
0.15
0.13
0.15
0.15
0.09
0.13
0.20
0.15
0.09
0.09
0.13
0.09
0.05
0.05
0.05
0.13
0.13
0.15
0.09
0.13
0.09
0.05
0.13
0.09
0.05
0.05
0.13
0.15
0.16
0.15
0.15
0.13
0.05
0.15
0.13
0.09
0.13
0.05
0.05
0.13
0.13
0.13
0.13
0.13
0.16
0.20
0.16
0.05
0.05
0.13
0.13
0.09
0.09
0.09
0.15
0.09
0.15
0.20
0.15
0.15
0.15
0.20
0.35
0.40
0.04
0.05
0.05
0.05
0.05
0.09
0.15
0.05
0.00
0.00
0.05
0.09
0.05
0.35
0.48
0.39
0.48
0.63
0.61
0.59
0.72
0.81
0.87
0.87
0.88
0.96
0.88
0.84
0.58
0.14
0.40
0.34
0.20
0.24
0.24
0.25
0.33
0.22
0.20
0.25
0.25
0.20
0.27
0.27
0.20
0.20
0.20
0.25
0.24
0.25
0.20
0.41
0.27
0.24
0.25
0.20
0.29
0.22
0.24
0.20
0.20
0.20
0.25
0.34
0.37
0.37
0.46
0.55
0.71
0.67
0.51
0.55
0.49
0.34
0.22
0.20
0.20
0.24
0.34
0.40
0.40
0.39
0.00
0.05
0.13
0.13
0.20
0.20
0.25
0.20
0.35
0.43
0.43
0.41
0.34
0.16
0.16
0.20
0.31
0.37
0.31
0.20
0.20
0.20
0.20
0.09
0.05
0.09
0.09
0.09
0.09
0.09
0.05
0.05
0.05
0.05
0.00
0.00
0.05
0.05
0.05
0.15
0.15
0.04
0.00
0.09
0.00
0.00
0.00
0.00
0.00
0.05
0.05
0.05
0.14
0.14
0.04
0.05
0.00
0.00
0.09
0.05
0.00
0.20
0.29
0.09
0.00
0.04
0.05
0.04
0.26
0.20
0.00
0.00
0.09
0.09
0.04
0.05
0.09
0.20
0.14
0.00
0.14
0.00
0.05
0.13
0.09
0.00
0.09
0.09
0.29
0.34
0.29
0.26
0.20
0.14
0.29
0.29
0.00
0.14
0.00
0.20
0.39
0.45
0.48
0.56
0.56
0.65
0.76
0.83
0.89
0.88
0.93
0.89
0.85
0.56
0.26
0.41
0.20
0.34
0.37
0.25
0.20
0.29
0.25
0.20
0.24
0.20
0.29
0.22
0.34
0.29
0.29
0.20
0.20
0.20
0.20
0.33
0.20
0.20
0.20
0.25
0.25
0.34
0.29
0.25
0.20
0.22
0.39
0.42
0.34
0.29
0.25
0.42
0.62
0.67
0.62
0.55
0.55
0.58
0.49
0.37
0.29
0.25
0.20
0.33
0.41
0.40
0.37
0.33
0.14
0.00
0.04
0.15
0.16
0.20
0.39
0.37
0.25
0.25
0.20
0.20
0.16
0.16
0.15
0.25
0.20
0.20
0.16
0.15
0.05
0.04
0.00
0.00
0.05
0.15
0.13
0.15
0.09
0.05
0.05
0.05
0.05
0.04
0.00
0.00
0.04
0.05
0.09
0.13
0.05
0.00
0.09
0.04
0.16
0.09
0.00
0.00
0.05
0.05
0.04
0.04
0.04
0.05
0.05
0.00
0.00
0.05
0.05
0.13
0.09
0.04
0.04
0.05
0.05
0.09
0.00
0.04
0.04
0.00
0.04
0.05
0.09
0.05
0.00
0.00
0.00
0.05
0.05
0.05
0.13
0.20
0.13
0.05
0.05
0.05
0.00
0.00
0.05
0.00
0.00
0.26
0.14
0.04
0.04
0.04
0.13
0.16
0.34
0.43
0.51
0.53
0.50
0.63
0.72
0.81
0.87
0.87
0.88
0.97
0.88
0.72
0.05
0.42
0.25
0.22
0.29
0.29
0.29
0.29
0.39
0.46
0.37
0.29
0.29
0.29
0.25
0.20
0.20
0.29
0.42
0.46
0.25
0.29
0.24
0.25
0.25
0.20
0.22
0.55
0.42
0.42
0.37
0.29
0.34
0.25
0.22
0.37
0.22
0.55
0.55
0.62
0.71
0.62
0.55
0.49
0.49
0.39
0.29
0.20
0.25
0.20
0.20
0.25
0.42
0.34
0.20
0.00
0.05
0.09
0.09
0.15
0.05
0.05
0.16
0.34
0.40
0.16
0.05
0.05
0.13
0.05
0.05
0.16
0.15
0.13
0.05
0.05
0.05
0.05
0.05
0.05
0.35
0.13
0.09
0.00
0.04
0.09
0.05
0.00
0.00
0.05
0.20
0.20
0.05
0.09
0.14
0.04
0.04
0.05
0.05
0.05
0.05
0.00
0.00
0.05
0.00
0.04
0.09
0.09
0.00
0.04
0.15
0.15
0.05
0.05
0.04
0.09
0.00
0.09
0.04
0.00
0.00
0.04
0.09
0.09
0.05
0.05
0.00
0.26
0.20
0.00
0.05
0.04
0.05
0.05
0.04
0.05
0.20
0.20
0.09
0.00
0.14
0.09
0.05
0.00
0.04
0.05
0.05
0.00
0.00
0.14
0.09
0.05
0.45
0.45
0.46
0.53
0.61
0.50
0.63
0.77
0.83
0.88
0.88
0.89
0.95
0.88
0.68
0.05
0.40
0.37
0.27
0.20
0.29
0.34
0.29
0.20
0.20
0.20
0.27
0.37
0.25
0.29
0.34
0.20
0.33
0.20
0.20
0.22
0.20
0.20
0.20
0.33
0.25
0.25
0.37
0.34
0.34
0.29
0.20
0.34
0.25
0.25
0.34
0.25
0.24
0.29
0.29
0.29
0.46
0.55
0.46
0.37
0.29
0.34
0.25
0.25
0.37
0.40
0.33
0.14
0.00
0.00
0.04
0.05
0.09
0.20
0.35
0.39
0.41
0.45
0.39
0.16
0.20
0.40
0.35
0.34
0.20
0.09
0.09
0.04
0.13
0.35
0.20
0.05
0.04
0.04
0.13
0.20
0.16
0.09
0.05
0.00
0.04
0.05
0.15
0.16
0.15
0.05
0.05
0.13
0.15
0.05
0.00
0.00
0.05
0.15
0.15
0.05
0.09
0.16
0.15
0.05
0.05
0.13
0.16
0.09
0.20
0.00
0.09
0.15
0.15
0.15
0.09
0.00
0.04
0.00
0.05
0.13
0.20
0.13
0.05
0.09
0.00
0.09
0.00
0.00
0.00
0.05
0.20
0.31
0.15
0.20
0.20
0.05
0.00
0.00
0.09
0.20
0.05
0.09
0.04
0.29
0.20
0.14
0.00
0.05
0.04
0.05
0.25
0.37
0.35
0.63
0.63
0.59
0.50
0.69
0.81
0.87
0.87
0.90
0.97
0.88
0.80
0.35
0.26
0.40
0.27
0.20
0.20
0.20
0.20
0.27
0.34
0.33
0.20
0.29
0.34
0.20
0.24
0.20
0.22
0.25
0.37
0.37
0.41
0.25
0.20
0.20
0.29
0.24
0.37
0.25
0.37
0.29
0.20
0.20
0.41
0.46
0.58
0.62
0.42
0.42
0.29
0.29
0.62
0.67
0.47
0.51
0.46
0.20
0.20
0.24
0.27
0.41
0.26
0.14
0.26
0.09
0.05
0.05
0.09
0.09
0.13
0.25
0.34
0.35
0.43
0.39
0.41
0.41
0.34
0.20
0.05
0.05
0.25
0.39
0.09
0.09
0.09
0.13
0.15
0.16
0.00
0.05
0.16
0.05
0.04
0.00
0.00
0.09
0.14
0.00
0.05
0.15
0.15
0.05
0.00
0.09
0.20
0.00
0.00
0.00
0.00
0.00
0.05
0.09
0.05
0.15
0.05
0.26
0.14
0.00
0.09
0.14
0.14
0.00
0.00
0.00
0.05
0.00
0.04
0.05
0.05
0.00
0.00
0.14
0.20
0.00
0.00
0.05
0.05
0.00
0.00
0.05
0.05
0.13
0.09
0.09
0.05
0.00
0.00
0.00
0.00
0.05
0.09
0.00
0.14
0.09
0.09
0.26
0.14
0.00
0.05
0.16
0.31
0.35
0.51
0.63
0.58
0.61
0.73
0.83
0.87
0.88
0.89
1.00
0.93
0.78
0.16
0.33
0.33
0.29
0.42
0.20
0.20
0.20
0.41
0.37
0.41
0.25
0.22
0.20
0.41
0.33
0.37
0.25
0.22
0.27
0.25
0.22
0.20
0.33
0.41
0.37
0.39
0.41
0.39
0.41
0.37
0.22
0.22
0.22
0.29
0.29
0.29
0.20
0.20
0.37
0.39
0.29
0.37
0.37
0.20
0.39
0.49
0.29
0.20
0.20
0.41
0.34
0.20
0.09
0.09
0.15
0.16
0.20
0.34
0.34
0.15
0.20
0.35
0.20
0.05
0.31
0.40
0.43
0.35
0.05
0.00
0.05
0.20
0.20
0.05
0.05
0.16
0.13
0.00
0.05
0.15
0.05
0.00
0.20
0.15
0.15
0.20
0.20
0.00
0.14
0.29
0.09
0.05
0.16
0.09
0.05
0.13
0.09
0.15
0.05
0.14
0.14
0.05
0.15
0.09
0.04
0.00
0.00
0.05
0.15
0.04
0.04
0.05
0.04
0.26
0.20
0.00
0.13
0.20
0.05
0.09
0.05
0.26
0.34
0.00
0.00
0.04
0.09
0.39
0.05
0.37
0.00
0.09
0.09
0.09
0.05
0.09
0.05
0.04
0.09
0.00
0.05
0.04
0.14
0.33
0.29
0.09
0.00
0.09
0.05
0.16
0.25
0.37
0.43
0.48
0.48
0.41
0.64
0.78
0.83
0.88
0.88
0.98
0.98
0.89
0.72
0.05
0.26
0.42
0.42
0.27
0.37
0.20
0.37
0.39
0.20
0.24
0.25
0.27
0.41
0.41
0.41
0.27
0.22
0.34
0.25
0.20
0.20
0.29
0.20
0.41
0.42
0.37
0.40
0.20
0.37
0.29
0.27
0.41
0.20
0.55
0.67
0.58
0.46
0.29
0.20
0.20
0.20
0.70
0.79
0.71
0.58
0.37
0.24
0.27
0.37
0.39
0.20
0.29
0.39
0.33
0.05
0.37
0.35
0.16
0.05
0.05
0.16
0.31
0.20
0.15
0.16
0.35
0.35
0.09
0.05
0.15
0.25
0.31
0.35
0.09
0.00
0.00
0.00
0.05
0.00
0.05
0.05
0.15
0.16
0.20
0.35
0.00
0.14
0.00
0.05
0.09
0.15
0.04
0.00
0.00
0.09
0.05
0.05
0.00
0.00
0.05
0.05
0.09
0.09
0.20
0.15
0.20
0.29
0.09
0.00
0.04
0.00
0.00
0.04
0.05
0.05
0.14
0.04
0.20
0.15
0.09
0.09
0.05
0.09
0.39
0.20
0.05
0.05
0.00
0.13
0.00
0.39
0.09
0.04
0.09
0.20
0.16
0.00
0.26
0.14
0.00
0.05
0.09
0.13
0.05
0.05
0.05
0.09
0.37
0.34
0.04
0.20
0.37
0.51
0.56
0.45
0.51
0.63
0.75
0.84
0.88
0.88
0.93
0.97
0.89
0.64
0.26
0.26
0.37
0.42
0.24
0.20
0.20
0.25
0.20
0.39
0.29
0.24
0.20
0.34
0.41
0.42
0.20
0.20
0.34
0.34
0.27
0.20
0.29
0.46
0.29
0.27
0.25
0.20
0.20
0.42
0.39
0.25
0.62
0.55
0.39
0.37
0.37
0.46
0.55
0.55
0.39
0.51
0.67
0.62
0.67
0.34
0.76
0.80
0.42
0.25
0.20
0.41
0.41
0.20
0.34
0.41
0.33
0.09
0.00
0.04
0.05
0.04
0.09
0.16
0.16
0.20
0.16
0.20
0.37
0.16
0.34
0.40
0.33
0.26
0.00
0.05
0.05
0.00
0.00
0.04
0.00
0.29
0.40
0.39
0.09
0.00
0.05
0.40
0.20
0.37
0.37
0.41
0.29
0.00
0.09
0.04
0.00
0.26
0.00
0.26
0.40
0.39
0.41
0.40
0.20
0.00
0.29
0.26
0.20
0.26
0.26
0.00
0.04
0.09
0.26
0.34
0.42
0.41
0.00
0.09
0.04
0.29
0.04
0.04
0.40
0.37
0.33
0.09
0.34
0.29
0.20
0.05
0.20
0.35
0.00
0.00
0.05
0.14
0.34
0.05
0.05
0.29
0.39
0.20
0.00
0.29
0.40
0.20
0.04
0.15
0.39
0.43
0.34
0.20
0.40
0.50
0.53
0.68
0.81
0.88
0.87
0.94
0.96
0.88
0.79
0.05
0.41
0.27
0.20
0.20
0.20
0.46
0.25
0.37
0.20
0.20
0.67
0.55
0.20
0.20
0.29
0.20
0.29
0.37
0.25
0.25
0.29
0.20
0.20
0.20
0.46
0.58
0.42
0.25
0.20
0.42
0.37
0.25
0.20
0.55
0.67
0.55
0.47
0.42
0.37
0.29
0.37
0.79
0.80
0.79
0.37
0.20
0.37
0.22
0.34
0.41
0.14
0.40
0.41
0.27
0.33
0.00
0.05
0.00
0.05
0.37
0.45
0.40
0.16
0.00
0.14
0.05
0.09
0.05
0.05
0.16
0.37
0.39
0.39
0.25
0.37
0.33
0.39
0.05
0.13
0.05
0.05
0.13
0.09
0.05
0.00
0.14
0.09
0.00
0.05
0.05
0.26
0.29
0.09
0.09
0.26
0.20
0.05
0.20
0.05
0.05
0.20
0.26
0.09
0.05
0.05
0.20
0.40
0.33
0.13
0.00
0.20
0.37
0.39
0.39
0.26
0.00
0.14
0.14
0.05
0.09
0.04
0.04
0.26
0.41
0.26
0.00
0.09
0.20
0.37
0.29
0.05
0.20
0.43
0.16
0.26
0.34
0.05
0.33
0.42
0.42
0.26
0.34
0.41
0.14
0.04
0.14
0.33
0.37
0.20
0.13
0.48
0.56
0.48
0.39
0.64
0.79
0.83
0.89
0.88
0.90
0.88
0.87
0.63
0.29
0.24
0.29
0.46
0.29
0.27
0.37
0.20
0.42
0.55
0.67
0.51
0.29
0.41
0.37
0.24
0.41
0.37
0.22
0.37
0.51
0.22
0.20
0.41
0.41
0.41
0.24
0.22
0.20
0.24
0.20
0.41
0.20
0.58
0.79
0.67
0.37
0.20
0.24
0.20
0.37
0.70
0.79
0.79
0.79
0.55
0.37
0.37
0.20
0.27
0.34
0.00
0.29
0.29
0.41
0.34
0.40
0.00
0.34
0.34
0.31
0.16
0.41
0.45
0.20
0.04
0.13
0.16
0.05
0.05
0.35
0.25
0.00
0.20
0.05
0.00
0.04
0.05
0.00
0.05
0.09
0.13
0.05
0.26
0.34
0.09
0.13
0.09
0.04
0.09
0.04
0.09
0.14
0.37
0.14
0.33
0.40
0.20
0.09
0.05
0.13
0.05
0.05
0.05
0.00
0.42
0.33
0.26
0.05
0.05
0.09
0.00
0.00
0.09
0.26
0.00
0.09
0.40
0.40
0.04
0.13
0.29
0.41
0.37
0.33
0.05
0.37
0.37
0.04
0.20
0.04
0.13
0.05
0.29
0.29
0.33
0.00
0.26
0.41
0.41
0.39
0.33
0.05
0.31
0.20
0.15
0.25
0.56
0.51
0.51
0.72
0.77
0.82
0.89
0.88
0.89
0.99
0.89
0.66
0.05
0.39
0.37
0.24
0.20
0.20
0.22
0.25
0.27
0.29
0.34
0.22
0.20
0.22
0.25
0.20
0.33
0.40
0.29
0.37
0.42
0.37
0.37
0.40
0.25
0.37
0.20
0.27
0.24
0.37
0.41
0.22
0.39
0.58
0.39
0.22
0.20
0.27
0.25
0.29
0.34
0.42
0.55
0.67
0.47
0.39
0.34
0.20
0.20
0.24
0.41
0.40
0.29
0.00
0.15
0.20
0.05
0.00
0.05
0.13
0.15
0.25
0.34
0.31
0.31
0.35
0.34
0.25
0.13
0.13
0.43
0.13
0.05
0.29
0.26
0.13
0.41
0.39
0.20
0.09
0.00
0.05
0.16
0.40
0.15
0.26
0.26
0.05
0.20
0.13
0.13
0.20
0.15
0.13
0.05
0.05
0.05
0.05
0.00
0.05
0.13
0.15
0.31
0.20
0.05
0.09
0.05
0.20
0.20
0.00
0.09
0.20
0.14
0.05
0.20
0.20
0.20
0.09
0.13
0.34
0.35
0.05
0.04
0.04
0.09
0.05
0.05
0.05
0.13
0.16
0.20
0.20
0.05
0.09
0.20
0.40
0.39
0.15
0.04
0.05
0.09
0.09
0.15
0.15
0.16
0.13
0.00
0.09
0.00
0.05
0.20
0.50
0.58
0.48
0.56
0.56
0.53
0.63
0.76
0.83
0.88
0.90
0.90
0.96
0.89
0.68
0.09
0.26
0.42
0.33
0.20
0.20
0.20
0.24
0.20
0.20
0.20
0.27
0.42
0.37
0.42
0.25
0.33
0.33
0.20
0.33
0.41
0.41
0.34
0.42
0.37
0.27
0.24
0.40
0.41
0.20
0.22
0.20
0.41
0.37
0.34
0.29
0.34
0.29
0.46
0.37
0.29
0.39
0.42
0.37
0.25
0.37
0.33
0.22
0.22
0.33
0.41
0.34
0.26
0.00
0.05
0.05
0.00
0.04
0.13
0.40
0.48
0.45
0.40
0.37
0.37
0.41
0.31
0.15
0.20
0.31
0.20
0.20
0.16
0.16
0.16
0.20
0.34
0.40
0.25
0.20
0.20
0.15
0.05
0.05
0.09
0.20
0.35
0.48
0.37
0.15
0.05
0.05
0.15
0.37
0.35
0.16
0.15
0.13
0.09
0.05
0.05
0.05
0.05
0.16
0.34
0.31
0.16
0.16
0.20
0.16
0.15
0.31
0.35
0.04
0.05
0.05
0.34
0.40
0.13
0.05
0.05
0.20
0.20
0.05
0.05
0.20
0.41
0.35
0.13
0.09
0.00
0.20
0.43
0.46
0.39
0.20
0.05
0.04
0.05
0.05
0.09
0.13
0.20
0.16
0.05
0.00
0.04
0.00
0.00
0.05
0.39
0.56
0.61
0.59
0.53
0.53
0.66
0.76
0.83
0.89
0.87
0.92
1.00
0.88
0.73
0.05
0.37
0.27
0.25
0.37
0.33
0.34
0.42
0.42
0.37
0.41
0.27
0.27
0.37
0.34
0.27
0.34
0.37
0.37
0.41
0.41
0.41
0.34
0.24
0.25
0.41
0.37
0.34
0.37
0.37
0.20
0.25
0.20
0.20
0.20
0.24
0.42
0.37
0.37
0.34
0.20
0.24
0.29
0.29
0.29
0.37
0.39
0.20
0.27
0.41
0.37
0.14
0.09
0.00
0.04
0.15
0.35
0.31
0.13
0.13
0.16
0.34
0.35
0.35
0.40
0.35
0.35
0.41
0.40
0.20
0.15
0.20
0.20
0.34
0.25
0.20
0.20
0.37
0.16
0.13
0.16
0.16
0.16
0.15
0.15
0.15
0.16
0.20
0.20
0.20
0.20
0.09
0.05
0.09
0.05
0.05
0.15
0.13
0.15
0.20
0.20
0.13
0.15
0.16
0.20
0.20
0.15
0.13
0.16
0.20
0.15
0.15
0.13
0.05
0.05
0.09
0.15
0.20
0.35
0.20
0.16
0.16
0.20
0.16
0.00
0.00
0.05
0.20
0.16
0.20
0.20
0.25
0.37
0.13
0.00
0.00
0.04
0.05
0.05
0.05
0.05
0.05
0.04
0.00
0.09
0.05
0.20
0.39
0.46
0.45
0.50
0.59
0.58
0.61
0.73
0.81
0.87
0.87
0.95
0.93
0.90
0.82
0.51
0.09
0.37
0.37
0.37
0.27
0.27
0.25
0.33
0.33
0.29
0.25
0.34
0.34
0.25
0.22
0.20
0.25
0.27
0.37
0.27
0.20
0.25
0.20
0.20
0.37
0.34
0.22
0.20
0.24
0.20
0.20
0.24
0.22
0.29
0.29
0.39
0.39
0.47
0.55
0.49
0.58
0.55
0.47
0.58
0.46
0.37
0.20
0.20
0.27
0.41
0.37
0.42
0.41
0.41
0.26
0.00
0.05
0.16
0.15
0.05
0.05
0.16
0.20
0.20
0.20
0.13
0.05
0.05
0.13
0.16
0.15
0.05
0.00
0.04
0.05
0.05
0.05
0.05
0.05
0.04
0.04
0.05
0.15
0.20
0.13
0.15
0.05
0.00
0.09
0.00
0.05
0.05
0.09
0.15
0.04
0.09
0.05
0.00
0.00
0.05
0.13
0.13
0.09
0.09
0.05
0.09
0.16
0.20
0.20
0.09
0.04
0.05
0.09
0.05
0.04
0.04
0.05
0.05
0.05
0.09
0.09
0.13
0.13
0.13
0.09
0.05
0.05
0.05
0.05
0.05
0.09
0.15
0.16
0.37
0.43
0.39
0.25
0.16
0.16
0.16
0.05
0.04
0.09
0.13
0.05
0.05
0.05
0.05
0.05
0.05
0.31
0.41
0.43
0.53
0.63
0.64
0.63
0.68
0.77
0.83
0.89
0.88
0.98
0.99
0.87
0.75
0.25
0.26
0.42
0.33
0.34
0.37
0.37
0.37
0.37
0.41
0.37
0.41
0.41
0.37
0.40
0.41
0.37
0.40
0.37
0.41
0.41
0.41
0.34
0.37
0.40
0.37
0.40
0.41
0.39
0.37
0.39
0.41
0.41
0.41
0.33
0.25
0.25
0.20
0.20
0.20
0.20
0.22
0.20
0.20
0.20
0.20
0.20
0.27
0.34
0.37
0.34
0.26
0.00
0.05
0.05
0.05
0.13
0.20
0.25
0.35
0.40
0.43
0.43
0.43
0.41
0.35
0.34
0.40
0.40
0.35
0.31
0.25
0.25
0.25
0.25
0.25
0.25
0.25
0.31
0.34
0.20
0.13
0.15
0.16
0.15
0.13
0.13
0.16
0.16
0.25
0.25
0.16
0.13
0.15
0.15
0.15
0.15
0.15
0.15
0.15
0.05
0.05
0.05
0.15
0.16
0.09
0.09
0.05
0.05
0.05
0.04
0.05
0.05
0.05
0.05
0.05
0.05
0.09
0.05
0.05
0.05
0.05
0.05
0.05
0.04
0.05
0.05
0.05
0.09
0.09
0.13
0.09
0.05
0.05
0.16
0.16
0.16
0.16
0.16
0.05
0.05
0.05
0.05
0.05
0.05
0.05
0.05
0.05
0.05
0.05
0.05
0.13
0.39
0.46
0.46
0.61
0.66
0.65
0.65
0.75
0.81
0.89
0.89
0.93
0.97
0.88
0.81
0.40
0.14
0.41
0.33
0.37
0.37
0.37
0.37
0.41
0.41
0.41
0.25
0.25
0.25
0.41
0.41
0.33
0.41
0.42
0.33
0.25
0.27
0.37
0.41
0.41
0.37
0.41
0.37
0.27
0.37
0.37
0.25
0.20
0.25
0.25
0.20
0.29
0.29
0.29
0.37
0.39
0.37
0.39
0.37
0.34
0.39
0.34
0.25
0.24
0.33
0.41
0.37
0.39
0.34
0.20
0.00
0.04
0.05
0.13
0.20
0.25
0.25
0.25
0.25
0.25
0.25
0.31
0.20
0.16
0.16
0.20
0.20
0.15
0.13
0.09
0.05
0.05
0.05
0.09
0.13
0.13
0.09
0.05
0.04
0.00
0.00
0.00
0.00
0.00
0.04
0.05
0.05
0.05
0.05
0.05
0.05
0.00
0.09
0.00
0.00
0.00
0.00
0.00
0.04
0.04
0.09
0.00
0.04
0.00
0.00
0.00
0.00
0.00
0.00
0.00
0.09
0.00
0.00
0.00
0.00
0.00
0.00
0.00
0.00
0.00
0.09
0.20
0.20
0.14
0.09
0.09
0.09
0.05
0.05
0.05
0.05
0.09
0.13
0.00
0.29
0.29
0.26
0.26
0.20
0.14
0.14
0.20
0.20
0.20
0.20
0.29
0.04
0.20
0.34
0.45
0.58
0.53
0.46
0.63
0.76
0.83
0.90
0.88
0.90
0.89
0.87
0.56
0.33
0.41
0.25
0.20
0.22
0.22
0.22
0.20
0.20
0.29
0.20
0.22
0.20
0.20
0.20
0.25
0.22
0.20
0.20
0.20
0.20
0.20
0.20
0.20
0.20
0.20
0.20
0.20
0.20
0.20
0.20
0.25
0.29
0.29
0.34
0.39
0.42
0.46
0.47
0.51
0.58
0.71
0.67
0.55
0.42
0.37
0.29
0.22
0.20
0.20
0.33
0.41
0.34
0.29
0.29
0.00
0.05
0.13
0.15
0.20
0.16
0.16
0.16
0.15
0.15
0.16
0.16
0.16
0.09
0.09
0.13
0.15
0.13
0.13
0.05
0.05
0.13
0.05
0.05
0.05
0.05
0.05
0.05
0.05
0.05
0.05
0.05
0.05
0.05
0.00
0.05
0.05
0.05
0.04
0.05
0.00
0.00
0.00
0.00
0.04
0.04
0.05
0.00
0.00
0.05
0.05
0.00
0.00
0.04
0.05
0.00
0.00
0.00
0.00
0.00
0.05
0.05
0.04
0.09
0.00
0.00
0.00
0.00
0.05
0.05
0.04
0.00
0.00
0.00
0.04
0.05
0.05
0.00
0.05
0.05
0.05
0.05
0.16
0.16
0.05
0.09
0.09
0.00
0.00
0.00
0.00
0.00
0.00
0.00
0.09
0.00
0.00
0.05
0.37
0.41
0.43
0.59
0.65
0.58
0.63
0.73
0.82
0.89
0.88
0.90
0.95
0.87
0.75
0.16
0.37
0.37
0.24
0.20
0.20
0.25
0.25
0.20
0.22
0.20
0.20
0.25
0.25
0.25
0.25
0.27
0.27
0.20
0.20
0.25
0.20
0.25
0.33
0.20
0.20
0.20
0.27
0.24
0.20
0.20
0.20
0.20
0.20
0.25
0.34
0.39
0.42
0.42
0.51
0.55
0.51
0.47
0.47
0.55
0.49
0.29
0.25
0.20
0.34
0.41
0.37
0.40
0.39
0.26
0.00
0.09
0.15
0.15
0.20
0.16
0.34
0.31
0.31
0.31
0.31
0.34
0.20
0.20
0.20
0.16
0.16
0.15
0.09
0.09
0.15
0.16
0.20
0.09
0.09
0.13
0.09
0.05
0.05
0.05
0.09
0.09
0.05
0.05
0.05
0.05
0.05
0.13
0.13
0.05
0.05
0.05
0.05
0.05
0.05
0.05
0.05
0.05
0.04
0.05
0.05
0.05
0.05
0.05
0.05
0.05
0.13
0.15
0.04
0.00
0.00
0.04
0.05
0.05
0.04
0.05
0.05
0.05
0.04
0.05
0.05
0.05
0.05
0.05
0.09
0.05
0.05
0.05
0.05
0.16
0.20
0.15
0.05
0.00
0.00
0.00
0.00
0.00
0.00
0.00
0.00
0.14
0.14
0.00
0.09
0.04
0.35
0.46
0.43
0.51
0.59
0.53
0.65
0.76
0.83
0.90
0.88
0.91
0.97
0.89
0.68
0.05
0.42
0.27
0.25
0.20
0.20
0.20
0.20
0.20
0.20
0.20
0.20
0.20
0.24
0.24
0.20
0.24
0.25
0.27
0.20
0.20
0.24
0.20
0.24
0.24
0.22
0.20
0.24
0.24
0.20
0.20
0.22
0.25
0.22
0.29
0.37
0.46
0.42
0.49
0.58
0.62
0.62
0.62
0.62
0.62
0.49
0.34
0.29
0.25
0.20
0.27
0.41
0.37
0.26
0.14
0.04
0.05
0.05
0.05
0.05
0.16
0.25
0.20
0.16
0.15
0.16
0.16
0.16
0.20
0.09
0.05
0.05
0.15
0.05
0.05
0.05
0.13
0.05
0.05
0.05
0.05
0.05
0.05
0.05
0.05
0.05
0.05
0.05
0.00
0.05
0.05
0.05
0.04
0.00
0.04
0.05
0.05
0.05
0.09
0.05
0.05
0.05
0.05
0.04
0.04
0.05
0.05
0.05
0.00
0.05
0.05
0.05
0.05
0.05
0.05
0.05
0.05
0.00
0.04
0.09
0.13
0.09
0.05
0.00
0.04
0.05
0.09
0.05
0.05
0.04
0.05
0.05
0.05
0.05
0.05
0.15
0.25
0.20
0.16
0.05
0.05
0.04
0.05
0.04
0.00
0.00
0.04
0.00
0.00
0.00
0.05
0.05
0.25
0.43
0.46
0.53
0.63
0.63
0.63
0.73
0.81
0.89
0.88
0.91
0.98
0.88
0.82
0.48
0.00
0.41
0.27
0.20
0.20
0.24
0.27
0.33
0.27
0.24
0.25
0.24
0.33
0.37
0.41
0.34
0.25
0.25
0.33
0.41
0.33
0.33
0.24
0.20
0.20
0.27
0.27
0.24
0.25
0.25
0.25
0.20
0.24
0.20
0.22
0.29
0.39
0.42
0.42
0.46
0.42
0.42
0.42
0.39
0.39
0.39
0.29
0.20
0.25
0.34
0.41
0.39
0.33
0.29
0.00
0.04
0.05
0.15
0.16
0.25
0.34
0.37
0.31
0.20
0.34
0.25
0.16
0.16
0.16
0.16
0.13
0.16
0.16
0.09
0.05
0.05
0.15
0.09
0.05
0.05
0.05
0.05
0.05
0.05
0.09
0.05
0.04
0.04
0.05
0.05
0.05
0.05
0.05
0.05
0.05
0.05
0.05
0.04
0.00
0.00
0.04
0.05
0.05
0.13
0.05
0.04
0.05
0.05
0.04
0.04
0.04
0.05
0.05
0.04
0.00
0.00
0.04
0.05
0.05
0.05
0.05
0.04
0.05
0.05
0.00
0.05
0.05
0.05
0.00
0.04
0.05
0.13
0.16
0.20
0.20
0.15
0.05
0.00
0.00
0.00
0.00
0.00
0.00
0.14
0.09
0.00
0.00
0.00
0.13
0.43
0.50
0.51
0.68
0.68
0.59
0.59
0.75
0.83
0.89
0.88
0.90
0.99
0.87
0.76
0.20
0.34
0.40
0.37
0.24
0.24
0.27
0.25
0.27
0.25
0.20
0.24
0.25
0.25
0.27
0.27
0.37
0.37
0.34
0.34
0.34
0.37
0.20
0.25
0.27
0.24
0.20
0.25
0.25
0.25
0.24
0.27
0.24
0.20
0.20
0.20
0.29
0.29
0.46
0.46
0.42
0.49
0.47
0.42
0.37
0.37
0.29
0.22
0.20
0.25
0.37
0.40
0.33
0.14
0.00
0.05
0.09
0.15
0.20
0.25
0.25
0.31
0.35
0.39
0.35
0.25
0.31
0.25
0.15
0.13
0.16
0.20
0.13
0.09
0.13
0.15
0.15
0.13
0.13
0.13
0.13
0.13
0.13
0.13
0.05
0.09
0.15
0.09
0.05
0.05
0.05
0.09
0.05
0.09
0.09
0.05
0.04
0.04
0.05
0.05
0.05
0.04
0.05
0.05
0.09
0.13
0.05
0.05
0.05
0.05
0.05
0.05
0.00
0.05
0.09
0.05
0.05
0.20
0.05
0.00
0.00
0.00
0.00
0.05
0.04
0.05
0.05
0.05
0.05
0.05
0.05
0.05
0.05
0.05
0.15
0.20
0.20
0.15
0.05
0.05
0.05
0.05
0.00
0.00
0.00
0.00
0.00
0.00
0.00
0.00
0.05
0.16
0.34
0.41
0.51
0.66
0.65
0.59
0.69
0.81
0.86
0.87
0.93
0.97
1.00
0.83
0.46
0.14
0.40
0.33
0.27
0.27
0.24
0.20
0.20
0.25
0.20
0.20
0.20
0.20
0.24
0.25
0.25
0.33
0.33
0.25
0.24
0.20
0.24
0.25
0.24
0.24
0.24
0.25
0.33
0.24
0.25
0.20
0.20
0.20
0.22
0.22
0.22
0.37
0.37
0.46
0.58
0.55
0.51
0.51
0.42
0.42
0.29
0.29
0.29
0.22
0.20
0.37
0.40
0.33
0.09
0.05
0.05
0.05
0.09
0.16
0.25
0.25
0.25
0.25
0.20
0.31
0.31
0.25
0.20
0.16
0.15
0.09
0.13
0.20
0.16
0.15
0.05
0.05
0.05
0.05
0.09
0.09
0.09
0.05
0.05
0.09
0.05
0.05
0.05
0.05
0.05
0.04
0.04
0.05
0.05
0.04
0.00
0.00
0.04
0.04
0.00
0.00
0.00
0.05
0.05
0.00
0.00
0.04
0.00
0.00
0.04
0.05
0.00
0.00
0.00
0.00
0.09
0.00
0.00
0.00
0.09
0.00
0.00
0.20
0.09
0.14
0.14
0.00
0.09
0.09
0.04
0.14
0.09
0.00
0.05
0.05
0.05
0.13
0.09
0.00
0.20
0.20
0.20
0.29
0.20
0.09
0.14
0.26
0.20
0.26
0.26
0.20
0.05
0.20
0.20
0.37
0.53
0.48
0.46
0.68
0.81
0.86
0.87
0.89
0.93
0.89
0.77
0.13
0.41
0.27
0.20
0.22
0.29
0.29
0.29
0.29
0.25
0.29
0.29
0.29
0.25
0.25
0.20
0.20
0.25
0.25
0.22
0.22
0.25
0.29
0.22
0.20
0.20
0.22
0.29
0.29
0.29
0.29
0.29
0.29
0.37
0.47
0.47
0.55
0.67
0.67
0.71
0.78
0.76
0.76
0.76
0.76
0.67
0.55
0.39
0.46
0.39
0.20
0.27
0.34
0.42
0.39
0.29
0.26
0.09
0.04
0.05
0.05
0.05
0.09
0.15
0.16
0.16
0.09
0.05
0.05
0.05
0.05
0.05
0.13
0.09
0.00
0.04
0.05
0.04
0.05
0.04
0.04
0.05
0.04
0.00
0.04
0.05
0.05
0.00
0.00
0.05
0.05
0.05
0.05
0.09
0.04
0.00
0.05
0.05
0.05
0.05
0.09
0.13
0.05
0.00
0.05
0.05
0.05
0.05
0.09
0.05
0.05
0.05
0.05
0.05
0.05
0.05
0.05
0.05
0.05
0.04
0.04
0.05
0.05
0.13
0.05
0.05
0.05
0.05
0.09
0.09
0.05
0.05
0.05
0.05
0.13
0.15
0.20
0.25
0.20
0.05
0.00
0.09
0.00
0.05
0.04
0.04
0.00
0.14
0.09
0.00
0.00
0.15
0.40
0.46
0.48
0.63
0.64
0.59
0.65
0.78
0.84
0.89
0.88
0.94
0.98
0.87
0.69
0.09
0.41
0.37
0.27
0.25
0.24
0.20
0.20
0.20
0.20
0.20
0.33
0.20
0.29
0.20
0.20
0.20
0.20
0.20
0.24
0.24
0.20
0.20
0.20
0.20
0.20
0.20
0.20
0.22
0.29
0.25
0.25
0.25
0.25
0.25
0.29
0.29
0.37
0.58
0.70
0.70
0.70
0.62
0.58
0.46
0.42
0.42
0.29
0.20
0.20
0.33
0.41
0.37
0.37
0.14
0.14
0.04
0.09
0.13
0.05
0.13
0.20
0.31
0.20
0.09
0.09
0.09
0.05
0.13
0.15
0.13
0.13
0.05
0.05
0.05
0.09
0.15
0.13
0.05
0.04
0.04
0.05
0.05
0.05
0.04
0.05
0.04
0.04
0.05
0.04
0.05
0.05
0.05
0.00
0.00
0.00
0.00
0.00
0.00
0.00
0.05
0.04
0.00
0.04
0.00
0.04
0.05
0.04
0.00
0.00
0.05
0.05
0.04
0.09
0.00
0.04
0.00
0.00
0.00
0.05
0.05
0.05
0.04
0.14
0.00
0.00
0.00
0.04
0.04
0.05
0.05
0.04
0.04
0.13
0.20
0.16
0.15
0.09
0.05
0.00
0.00
0.00
0.00
0.00
0.00
0.00
0.00
0.00
0.00
0.04
0.09
0.31
0.39
0.45
0.63
0.64
0.56
0.63
0.73
0.82
0.89
0.88
0.96
0.97
0.89
0.76
0.13
0.39
0.34
0.33
0.25
0.22
0.22
0.34
0.20
0.20
0.20
0.20
0.20
0.20
0.24
0.24
0.25
0.34
0.25
0.20
0.20
0.24
0.24
0.25
0.33
0.27
0.24
0.20
0.24
0.24
0.24
0.20
0.20
0.20
0.22
0.34
0.39
0.46
0.51
0.49
0.55
0.49
0.47
0.46
0.39
0.39
0.29
0.22
0.20
0.20
0.24
0.41
0.29
0.26
0.14
0.00
0.09
0.13
0.15
0.20
0.20
0.20
0.20
0.16
0.20
0.20
0.20
0.31
0.31
0.20
0.16
0.20
0.13
0.05
0.05
0.05
0.05
0.09
0.13
0.13
0.13
0.05
0.04
0.00
0.00
0.00
0.05
0.05
0.00
0.00
0.00
0.04
0.04
0.05
0.04
0.00
0.04
0.00
0.00
0.05
0.05
0.05
0.00
0.00
0.00
0.04
0.00
0.00
0.04
0.04
0.00
0.00
0.00
0.00
0.04
0.00
0.09
0.04
0.05
0.00
0.04
0.05
0.00
0.00
0.00
0.00
0.00
0.00
0.00
0.00
0.04
0.05
0.13
0.13
0.20
0.20
0.09
0.04
0.09
0.00
0.00
0.05
0.00
0.04
0.09
0.00
0.00
0.14
0.14
0.04
0.16
0.25
0.39
0.63
0.68
0.65
0.64
0.75
0.83
0.89
0.88
0.94
0.97
0.87
0.76
0.13
0.37
0.33
0.20
0.20
0.20
0.20
0.20
0.24
0.24
0.20
0.20
0.20
0.20
0.20
0.25
0.24
0.27
0.27
0.24
0.24
0.25
0.25
0.20
0.25
0.24
0.20
0.20
0.20
0.20
0.20
0.20
0.25
0.29
0.29
0.29
0.37
0.42
0.47
0.51
0.55
0.49
0.46
0.55
0.51
0.47
0.37
0.37
0.37
0.22
0.27
0.41
0.34
0.26
0.09
0.00
0.05
0.05
0.13
0.16
0.16
0.15
0.15
0.15
0.20
0.25
0.20
0.15
0.05
0.05
0.09
0.13
0.13
0.09
0.13
0.09
0.05
0.05
0.05
0.09
0.05
0.04
0.04
0.00
0.00
0.00
0.00
0.00
0.00
0.04
0.00
0.00
0.00
0.00
0.00
0.04
0.04
0.00
0.05
0.00
0.00
0.00
0.00
0.00
0.09
0.00
0.04
0.00
0.09
0.09
0.00
0.00
0.00
0.00
0.09
0.00
0.00
0.00
0.00
0.04
0.00
0.00
0.09
0.20
0.14
0.09
0.00
0.09
0.09
0.09
0.00
0.00
0.00
0.04
0.05
0.15
0.04
0.00
0.00
0.20
0.26
0.26
0.14
0.14
0.14
0.20
0.29
0.26
0.20
0.00
0.20
0.20
0.39
0.56
0.58
0.48
0.63
0.75
0.83
0.89
0.88
0.90
0.90
0.88
0.64
0.00
0.41
0.25
0.20
0.22
0.29
0.29
0.29
0.29
0.29
0.29
0.22
0.29
0.22
0.22
0.25
0.29
0.22
0.22
0.29
0.25
0.20
0.20
0.20
0.20
0.22
0.22
0.29
0.29
0.29
0.29
0.29
0.29
0.29
0.34
0.47
0.55
0.62
0.62
0.62
0.62
0.67
0.71
0.78
0.71
0.58
0.42
0.42
0.42
0.22
0.24
0.37
0.40
0.40
0.29
0.09
0.00
0.05
0.05
0.05
0.05
0.13
0.15
0.15
0.16
0.25
0.15
0.15
0.09
0.09
0.13
0.13
0.13
0.09
0.15
0.16
0.15
0.15
0.13
0.05
0.04
0.05
0.05
0.05
0.05
0.05
0.05
0.09
0.05
0.05
0.05
0.05
0.05
0.05
0.05
0.04
0.05
0.05
0.05
0.05
0.05
0.05
0.05
0.05
0.05
0.05
0.05
0.05
0.05
0.05
0.05
0.05
0.05
0.05
0.05
0.05
0.05
0.00
0.04
0.05
0.05
0.05
0.05
0.05
0.05
0.05
0.05
0.13
0.05
0.00
0.00
0.04
0.04
0.05
0.15
0.20
0.16
0.31
0.35
0.05
0.00
0.00
0.00
0.05
0.05
0.00
0.00
0.00
0.00
0.00
0.00
0.00
0.20
0.41
0.43
0.63
0.68
0.64
0.63
0.73
0.81
0.88
0.88
0.94
1.00
0.88
0.81
0.39
0.33
0.37
0.25
0.27
0.27
0.27
0.27
0.20
0.20
0.20
0.20
0.24
0.24
0.20
0.20
0.20
0.27
0.25
0.37
0.20
0.20
0.20
0.20
0.20
0.25
0.25
0.20
0.20
0.20
0.20
0.20
0.20
0.20
0.20
0.25
0.29
0.39
0.55
0.55
0.49
0.55
0.67
0.62
0.62
0.58
0.46
0.29
0.22
0.20
0.25
0.34
0.42
0.33
0.20
0.14
0.09
0.00
0.09
0.09
0.09
0.20
0.31
0.25
0.20
0.20
0.15
0.15
0.09
0.15
0.09
0.15
0.09
0.05
0.05
0.05
0.05
0.05
0.05
0.05
0.05
0.04
0.00
0.00
0.00
0.00
0.00
0.00
0.04
0.00
0.00
0.09
0.09
0.00
0.00
0.00
0.00
0.00
0.00
0.00
0.00
0.00
0.00
0.00
0.09
0.09
0.00
0.00
0.00
0.09
0.00
0.04
0.00
0.00
0.00
0.00
0.00
0.00
0.00
0.00
0.00
0.00
0.00
0.00
0.04
0.04
0.00
0.00
0.00
0.00
0.04
0.00
0.00
0.05
0.13
0.16
0.16
0.05
0.04
0.00
0.09
0.14
0.09
0.00
0.00
0.00
0.09
0.09
0.00
0.09
0.14
0.25
0.34
0.37
0.59
0.66
0.63
0.61
0.72
0.81
0.88
0.88
0.90
0.97
0.87
0.76
0.16
0.39
0.37
0.24
0.20
0.20
0.20
0.20
0.20
0.20
0.20
0.20
0.22
0.20
0.20
0.20
0.20
0.20
0.24
0.27
0.24
0.20
0.20
0.20
0.20
0.20
0.20
0.24
0.24
0.24
0.24
0.20
0.22
0.39
0.29
0.34
0.39
0.46
0.55
0.49
0.55
0.62
0.67
0.62
0.51
0.42
0.34
0.34
0.29
0.20
0.25
0.41
0.39
0.33
0.20
0.14
0.00
0.05
0.05
0.15
0.15
0.20
0.16
0.20
0.31
0.25
0.20
0.20
0.20
0.16
0.16
0.05
0.05
0.05
0.05
0.05
0.05
0.05
0.05
0.05
0.05
0.05
0.05
0.05
0.05
0.05
0.05
0.05
0.05
0.05
0.09
0.05
0.00
0.00
0.04
0.00
0.00
0.05
0.05
0.00
0.04
0.05
0.04
0.04
0.04
0.00
0.05
0.05
0.00
0.04
0.05
0.00
0.00
0.00
0.04
0.04
0.05
0.05
0.05
0.05
0.05
0.05
0.00
0.00
0.04
0.00
0.00
0.00
0.00
0.04
0.04
0.05
0.13
0.20
0.20
0.16
0.05
0.00
0.09
0.09
0.00
0.04
0.00
0.14
0.20
0.20
0.14
0.00
0.00
0.05
0.34
0.41
0.50
0.66
0.68
0.53
0.63
0.77
0.84
0.89
0.88
0.91
0.98
0.88
0.63
0.00
0.41
0.25
0.20
0.20
0.20
0.20
0.20
0.20
0.20
0.22
0.29
0.20
0.20
0.20
0.20
0.24
0.24
0.27
0.27
0.25
0.20
0.24
0.27
0.20
0.20
0.20
0.20
0.20
0.20
0.20
0.20
0.25
0.29
0.29
0.39
0.42
0.42
0.55
0.58
0.55
0.58
0.62
0.55
0.62
0.51
0.39
0.34
0.25
0.20
0.25
0.37
0.41
0.39
0.29
0.14
0.00
0.04
0.05
0.13
0.16
0.20
0.16
0.15
0.15
0.09
0.05
0.13
0.13
0.05
0.05
0.00
0.00
0.04
0.05
0.05
0.04
0.00
0.05
0.05
0.04
0.00
0.05
0.04
0.05
0.00
0.00
0.00
0.00
0.00
0.00
0.04
0.04
0.09
0.09
0.00
0.00
0.00
0.00
0.09
0.14
0.09
0.09
0.14
0.14
0.14
0.14
0.09
0.09
0.20
0.14
0.09
0.09
0.14
0.14
0.00
0.09
0.14
0.09
0.00
0.00
0.00
0.26
0.20
0.20
0.14
0.14
0.09
0.09
0.14
0.20
0.20
0.14
0.14
0.09
0.00
0.04
0.05
0.05
0.00
0.20
0.20
0.26
0.20
0.14
0.14
0.26
0.37
0.34
0.33
0.33
0.26
0.05
0.20
0.20
0.35
0.56
0.58
0.43
0.64
0.79
0.85
0.89
0.88
0.90
0.90
0.82
0.39
0.39
0.37
0.24
0.20
0.25
0.29
0.22
0.22
0.25
0.20
0.20
0.20
0.20
0.20
0.20
0.20
0.20
0.20
0.20
0.20
0.20
0.20
0.20
0.20
0.22
0.29
0.20
0.20
0.22
0.22
0.20
0.20
0.29
0.34
0.29
0.37
0.39
0.46
0.55
0.58
0.62
0.62
0.55
0.58
0.55
0.42
0.37
0.22
0.20
0.20
0.37
0.41
0.39
0.33
0.14
0.05
0.09
0.13
0.13
0.16
0.20
0.31
0.37
0.40
0.34
0.34
0.35
0.25
0.20
0.20
0.20
0.20
0.16
0.15
0.13
0.05
0.05
0.05
0.09
0.05
0.09
0.09
0.09
0.05
0.05
0.05
0.04
0.05
0.05
0.05
0.05
0.05
0.05
0.05
0.05
0.05
0.00
0.00
0.04
0.05
0.05
0.05
0.04
0.04
0.05
0.05
0.00
0.04
0.05
0.05
0.05
0.00
0.00
0.00
0.05
0.05
0.05
0.05
0.04
0.00
0.04
0.04
0.04
0.00
0.00
0.04
0.00
0.00
0.00
0.04
0.05
0.05
0.00
0.04
0.05
0.15
0.20
0.13
0.04
0.00
0.00
0.00
0.00
0.00
0.00
0.00
0.00
0.00
0.00
0.00
0.00
0.13
0.35
0.35
0.46
0.63
0.65
0.61
0.66
0.78
0.84
0.87
0.89
0.92
0.98
0.87
0.48
0.09
0.41
0.34
0.27
0.25
0.24
0.20
0.20
0.20
0.20
0.20
0.24
0.24
0.20
0.20
0.24
0.20
0.24
0.25
0.24
0.24
0.24
0.20
0.20
0.20
0.24
0.25
0.20
0.20
0.27
0.20
0.25
0.25
0.37
0.37
0.29
0.42
0.47
0.62
0.55
0.47
0.62
0.67
0.55
0.51
0.47
0.34
0.20
0.29
0.20
0.34
0.41
0.41
0.39
0.20
0.04
0.09
0.13
0.09
0.09
0.16
0.20
0.20
0.20
0.20
0.16
0.16
0.15
0.13
0.15
0.15
0.05
0.09
0.16
0.09
0.04
0.05
0.05
0.05
0.05
0.05
0.05
0.05
0.05
0.05
0.05
0.05
0.00
0.05
0.05
0.05
0.00
0.00
0.00
0.00
0.04
0.05
0.04
0.05
0.04
0.00
0.00
0.00
0.00
0.04
0.00
0.00
0.00
0.04
0.00
0.09
0.00
0.00
0.00
0.00
0.00
0.00
0.00
0.00
0.00
0.00
0.00
0.00
0.04
0.05
0.00
0.00
0.00
0.00
0.00
0.00
0.05
0.05
0.15
0.16
0.16
0.05
0.09
0.14
0.00
0.04
0.00
0.14
0.20
0.14
0.09
0.09
0.20
0.09
0.09
0.31
0.35
0.51
0.64
0.65
0.56
0.65
0.79
0.86
0.87
0.88
0.90
0.92
0.84
0.43
0.33
0.41
0.27
0.20
0.20
0.25
0.22
0.25
0.20
0.20
0.29
0.25
0.25
0.25
0.29
0.20
0.20
0.20
0.20
0.20
0.20
0.20
0.20
0.20
0.20
0.20
0.20
0.20
0.20
0.22
0.29
0.29
0.29
0.29
0.25
0.37
0.47
0.51
0.55
0.67
0.71
0.67
0.70
0.67
0.58
0.55
0.46
0.29
0.29
0.20
0.33
0.42
0.41
0.34
0.14
0.00
0.00
0.05
0.09
0.13
0.09
0.16
0.20
0.16
0.15
0.16
0.16
0.16
0.13
0.05
0.05
0.13
0.13
0.15
0.09
0.13
0.05
0.05
0.05
0.04
0.05
0.04
0.04
0.05
0.00
0.00
0.00
0.04
0.05
0.00
0.00
0.05
0.04
0.04
0.00
0.00
0.04
0.00
0.05
0.00
0.00
0.00
0.00
0.00
0.00
0.00
0.00
0.00
0.00
0.00
0.00
0.00
0.00
0.00
0.00
0.00
0.00
0.00
0.00
0.00
0.09
0.00
0.09
0.00
0.00
0.00
0.00
0.05
0.05
0.00
0.00
0.00
0.05
0.05
0.13
0.16
0.13
0.04
0.00
0.00
0.00
0.00
0.09
0.00
0.09
0.20
0.09
0.09
0.14
0.00
0.13
0.37
0.43
0.61
0.68
0.64
0.59
0.69
0.81
0.88
0.87
0.90
0.96
0.90
0.82
0.39
0.26
0.37
0.33
0.33
0.20
0.20
0.22
0.22
0.22
0.22
0.20
0.20
0.20
0.20
0.20
0.24
0.20
0.20
0.20
0.20
0.20
0.20
0.20
0.20
0.20
0.20
0.22
0.22
0.25
0.29
0.29
0.29
0.29
0.34
0.42
0.42
0.46
0.47
0.67
0.67
0.76
0.76
0.71
0.71
0.71
0.49
0.42
0.49
0.34
0.20
0.20
0.24
0.37
0.40
0.29
0.00
0.00
0.05
0.09
0.05
0.05
0.13
0.15
0.15
0.09
0.09
0.05
0.05
0.05
0.05
0.04
0.00
0.04
0.05
0.05
0.00
0.00
0.00
0.09
0.09
0.00
0.00
0.00
0.09
0.09
0.09
0.14
0.00
0.00
0.09
0.20
0.14
0.14
0.09
0.09
0.14
0.09
0.00
0.00
0.09
0.14
0.20
0.14
0.14
0.09
0.09
0.09
0.00
0.00
0.09
0.14
0.14
0.20
0.14
0.09
0.20
0.20
0.09
0.14
0.26
0.20
0.20
0.20
0.20
0.20
0.20
0.09
0.14
0.14
0.14
0.00
0.00
0.00
0.14
0.00
0.05
0.05
0.05
0.00
0.14
0.26
0.29
0.14
0.14
0.20
0.09
0.20
0.26
0.29
0.26
0.20
0.05
0.25
0.31
0.40
0.53
0.56
0.51
0.65
0.77
0.83
0.89
0.88
0.90
0.88
0.86
0.56
0.20
0.37
0.27
0.25
0.25
0.25
0.20
0.20
0.20
0.20
0.20
0.20
0.20
0.24
0.20
0.20
0.24
0.24
0.27
0.27
0.25
0.33
0.27
0.24
0.20
0.24
0.24
0.25
0.25
0.20
0.20
0.20
0.20
0.22
0.25
0.29
0.34
0.39
0.46
0.51
0.47
0.58
0.55
0.58
0.46
0.39
0.39
0.34
0.20
0.25
0.27
0.33
0.40
0.37
0.09
0.00
0.05
0.09
0.13
0.20
0.20
0.25
0.25
0.25
0.34
0.35
0.31
0.20
0.16
0.16
0.20
0.16
0.13
0.05
0.05
0.13
0.13
0.05
0.05
0.05
0.05
0.05
0.05
0.05
0.04
0.05
0.05
0.04
0.04
0.05
0.00
0.04
0.00
0.00
0.04
0.05
0.05
0.05
0.05
0.00
0.00
0.04
0.04
0.00
0.00
0.00
0.05
0.05
0.00
0.00
0.00
0.00
0.04
0.04
0.04
0.04
0.00
0.00
0.00
0.00
0.09
0.14
0.09
0.00
0.00
0.00
0.00
0.00
0.00
0.00
0.00
0.00
0.00
0.05
0.13
0.20
0.16
0.05
0.00
0.26
0.00
0.00
0.14
0.00
0.09
0.14
0.20
0.14
0.09
0.00
0.05
0.20
0.34
0.43
0.65
0.68
0.63
0.63
0.75
0.83
0.88
0.88
0.90
0.92
0.89
0.72
0.00
0.41
0.37
0.27
0.24
0.20
0.24
0.20
0.24
0.24
0.20
0.20
0.20
0.20
0.25
0.25
0.20
0.20
0.20
0.20
0.20
0.20
0.20
0.20
0.25
0.25
0.20
0.20
0.20
0.20
0.20
0.20
0.20
0.22
0.34
0.39
0.39
0.46
0.47
0.51
0.58
0.55
0.58
0.51
0.47
0.47
0.42
0.39
0.29
0.20
0.33
0.42
0.40
0.29
0.20
0.00
0.00
0.05
0.05
0.09
0.15
0.20
0.25
0.31
0.31
0.16
0.15
0.15
0.16
0.20
0.16
0.09
0.05
0.09
0.15
0.09
0.05
0.05
0.05
0.05
0.05
0.05
0.04
0.00
0.04
0.05
0.05
0.05
0.05
0.05
0.05
0.04
0.00
0.00
0.00
0.04
0.04
0.00
0.00
0.04
0.05
0.04
0.00
0.04
0.00
0.00
0.00
0.00
0.00
0.00
0.00
0.00
0.00
0.00
0.00
0.00
0.00
0.00
0.04
0.00
0.00
0.00
0.00
0.00
0.00
0.04
0.00
0.00
0.00
0.00
0.00
0.00
0.05
0.15
0.13
0.09
0.13
0.04
0.00
0.09
0.20
0.14
0.09
0.14
0.20
0.20
0.20
0.20
0.20
0.09
0.20
0.39
0.41
0.63
0.66
0.65
0.61
0.72
0.81
0.87
0.87
0.88
0.94
0.88
0.77
0.20
0.34
0.37
0.24
0.20
0.20
0.20
0.20
0.20
0.20
0.25
0.20
0.20
0.24
0.24
0.20
0.20
0.20
0.24
0.20
0.20
0.27
0.27
0.20
0.20
0.20
0.24
0.24
0.20
0.20
0.20
0.20
0.29
0.25
0.29
0.29
0.37
0.39
0.42
0.49
0.58
0.58
0.55
0.55
0.55
0.47
0.42
0.39
0.29
0.20
0.20
0.27
0.41
0.33
0.14
0.00
0.04
0.05
0.15
0.15
0.16
0.25
0.20
0.20
0.20
0.20
0.20
0.20
0.16
0.15
0.15
0.15
0.09
0.13
0.13
0.09
0.09
0.05
0.09
0.09
0.09
0.09
0.05
0.05
0.05
0.04
0.05
0.05
0.05
0.05
0.05
0.05
0.05
0.05
0.00
0.04
0.00
0.00
0.00
0.00
0.00
0.00
0.00
0.00
0.00
0.04
0.00
0.00
0.00
0.00
0.00
0.00
0.00
0.00
0.00
0.00
0.00
0.00
0.00
0.04
0.00
0.00
0.00
0.00
0.00
0.00
0.00
0.00
0.00
0.04
0.00
0.00
0.00
0.00
0.05
0.05
0.15
0.15
0.09
0.00
0.00
0.20
0.09
0.00
0.00
0.14
0.09
0.14
0.14
0.14
0.09
0.00
0.35
0.39
0.45
0.65
0.66
0.53
0.58
0.73
0.81
0.88
0.87
0.89
0.93
0.89
0.73
0.05
0.41
0.27
0.20
0.20
0.20
0.20
0.20
0.20
0.20
0.22
0.25
0.25
0.29
0.22
0.20
0.20
0.20
0.20
0.20
0.20
0.20
0.20
0.20
0.22
0.22
0.20
0.20
0.22
0.34
0.29
0.29
0.37
0.39
0.29
0.37
0.51
0.55
0.58
0.67
0.67
0.67
0.70
0.71
0.71
0.67
0.55
0.46
0.34
0.29
0.20
0.25
0.37
0.40
0.34
0.26
0.00
0.00
0.05
0.05
0.05
0.05
0.05
0.09
0.05
0.13
0.13
0.09
0.05
0.05
0.04
0.00
0.05
0.04
0.00
0.00
0.00
0.00
0.00
0.00
0.05
0.04
0.00
0.00
0.09
0.14
0.09
0.09
0.09
0.00
0.00
0.00
0.00
0.00
0.00
0.09
0.14
0.09
0.00
0.00
0.14
0.09
0.09
0.20
0.14
0.00
0.20
0.14
0.14
0.20
0.20
0.14
0.00
0.00
0.09
0.09
0.09
0.00
0.00
0.00
0.00
0.00
0.00
0.09
0.00
0.09
0.09
0.00
0.00
0.09
0.00
0.00
0.00
0.04
0.05
0.05
0.09
0.05
0.00
0.00
0.00
0.00
0.00
0.00
0.00
0.00
0.00
0.00
0.00
0.00
0.16
0.41
0.41
0.50
0.68
0.66
0.63
0.73
0.81
0.87
0.87
0.90
0.97
0.91
0.83
0.51
0.00
0.37
0.41
0.41
0.42
0.37
0.34
0.37
0.37
0.33
0.34
0.34
0.37
0.37
0.41
0.42
0.41
0.41
0.33
0.37
0.37
0.41
0.41
0.41
0.41
0.42
0.41
0.41
0.34
0.33
0.37
0.33
0.27
0.24
0.25
0.20
0.20
0.29
0.39
0.37
0.39
0.47
0.47
0.42
0.34
0.25
0.20
0.27
0.33
0.37
0.41
0.37
0.26
0.00
0.05
0.05
0.13
0.15
0.20
0.31
0.35
0.40
0.31
0.31
0.35
0.40
0.35
0.34
0.25
0.20
0.20
0.25
0.25
0.25
0.15
0.16
0.15
0.16
0.16
0.15
0.05
0.15
0.09
0.13
0.05
0.09
0.05
0.05
0.05
0.05
0.05
0.05
0.05
0.05
0.05
0.05
0.05
0.05
0.05
0.05
0.04
0.05
0.05
0.00
0.00
0.05
0.05
0.04
0.00
0.00
0.05
0.04
0.04
0.04
0.05
0.05
0.05
0.04
0.00
0.04
0.04
0.05
0.05
0.00
0.00
0.00
0.05
0.00
0.00
0.04
0.05
0.13
0.15
0.20
0.20
0.05
0.00
0.00
0.00
0.04
0.00
0.00
0.00
0.00
0.00
0.00
0.09
0.00
0.13
0.35
0.43
0.56
0.68
0.66
0.58
0.68
0.81
0.87
0.87
0.89
0.93
0.91
0.81
0.35
0.20
0.41
0.27
0.24
0.20
0.20
0.25
0.24
0.20
0.20
0.20
0.20
0.20
0.24
0.24
0.20
0.20
0.20
0.20
0.20
0.20
0.20
0.20
0.20
0.20
0.20
0.20
0.20
0.20
0.20
0.20
0.20
0.20
0.25
0.29
0.29
0.37
0.49
0.55
0.47
0.42
0.55
0.62
0.55
0.47
0.37
0.29
0.22
0.20
0.25
0.27
0.41
0.34
0.20
0.00
0.04
0.05
0.09
0.13
0.16
0.16
0.20
0.20
0.20
0.20
0.31
0.20
0.16
0.15
0.15
0.15
0.15
0.13
0.05
0.09
0.05
0.09
0.09
0.09
0.05
0.05
0.05
0.05
0.05
0.05
0.05
0.05
0.00
0.05
0.00
0.05
0.05
0.05
0.05
0.04
0.05
0.05
0.05
0.00
0.00
0.00
0.00
0.00
0.00
0.04
0.00
0.00
0.00
0.00
0.04
0.04
0.04
0.04
0.00
0.04
0.05
0.00
0.09
0.00
0.00
0.00
0.00
0.00
0.00
0.00
0.00
0.00
0.00
0.00
0.00
0.05
0.05
0.13
0.16
0.13
0.05
0.00
0.00
0.00
0.00
0.09
0.00
0.00
0.00
0.09
0.20
0.14
0.14
0.05
0.35
0.43
0.43
0.63
0.68
0.63
0.63
0.76
0.83
0.89
0.89
0.90
0.95
0.89
0.64
0.00
0.34
0.37
0.34
0.20
0.20
0.20
0.25
0.24
0.20
0.20
0.20
0.20
0.20
0.20
0.20
0.25
0.27
0.27
0.25
0.24
0.24
0.27
0.33
0.27
0.25
0.24
0.24
0.20
0.20
0.20
0.20
0.20
0.25
0.29
0.29
0.34
0.29
0.47
0.58
0.47
0.47
0.55
0.47
0.49
0.47
0.37
0.29
0.22
0.25
0.27
0.37
0.37
0.33
0.20
0.00
0.04
0.05
0.16
0.20
0.20
0.16
0.16
0.20
0.20
0.16
0.16
0.16
0.15
0.15
0.15
0.09
0.05
0.05
0.13
0.13
0.05
0.05
0.05
0.05
0.05
0.05
0.05
0.09
0.05
0.05
0.05
0.09
0.05
0.05
0.05
0.04
0.04
0.05
0.05
0.05
0.04
0.00
0.04
0.05
0.05
0.00
0.04
0.04
0.00
0.00
0.05
0.05
0.00
0.00
0.04
0.04
0.00
0.05
0.05
0.04
0.00
0.04
0.05
0.00
0.04
0.04
0.00
0.00
0.00
0.00
0.00
0.00
0.00
0.00
0.04
0.05
0.09
0.13
0.15
0.05
0.00
0.14
0.20
0.20
0.14
0.14
0.14
0.20
0.26
0.20
0.26
0.29
0.00
0.16
0.31
0.39
0.50
0.56
0.50
0.61
0.75
0.82
0.88
0.87
0.88
0.88
0.88
0.64
0.29
0.34
0.20
0.20
0.37
0.37
0.37
0.22
0.37
0.39
0.39
0.39
0.37
0.39
0.29
0.34
0.22
0.25
0.29
0.29
0.22
0.25
0.34
0.37
0.39
0.34
0.29
0.29
0.29
0.34
0.39
0.37
0.39
0.46
0.51
0.58
0.67
0.62
0.76
0.79
0.79
0.78
0.76
0.76
0.71
0.67
0.62
0.58
0.34
0.25
0.25
0.24
0.37
0.41
0.37
0.26
0.26
0.00
0.00
0.04
0.05
0.09
0.05
0.04
0.05
0.05
0.04
0.04
0.05
0.04
0.04
0.00
0.00
0.00
0.00
0.00
0.00
0.00
0.09
0.09
0.00
0.00
0.14
0.14
0.00
0.00
0.00
0.09
0.20
0.00
0.00
0.09
0.09
0.14
0.00
0.00
0.00
0.00
0.00
0.00
0.00
0.00
0.14
0.14
0.09
0.09
0.14
0.14
0.14
0.09
0.00
0.00
0.00
0.00
0.09
0.20
0.09
0.00
0.14
0.09
0.00
0.00
0.00
0.00
0.00
0.00
0.00
0.04
0.05
0.09
0.16
0.20
0.00
0.14
0.14
0.14
0.09
0.09
0.05
0.00
0.09
0.00
0.00
0.00
0.04
0.20
0.40
0.41
0.50
0.65
0.64
0.63
0.70
0.81
0.88
0.87
0.90
0.95
0.88
0.83
0.48
0.26
0.41
0.41
0.33
0.27
0.24
0.24
0.24
0.20
0.25
0.25
0.27
0.27
0.33
0.37
0.34
0.27
0.25
0.34
0.33
0.27
0.27
0.27
0.25
0.25
0.34
0.41
0.33
0.24
0.25
0.25
0.24
0.20
0.20
0.22
0.29
0.34
0.37
0.37
0.39
0.49
0.55
0.55
0.51
0.46
0.34
0.29
0.22
0.20
0.34
0.41
0.34
0.29
0.14
0.00
0.00
0.04
0.13
0.16
0.16
0.25
0.20
0.25
0.31
0.31
0.31
0.31
0.25
0.16
0.16
0.20
0.25
0.20
0.09
0.05
0.05
0.05
0.05
0.05
0.05
0.05
0.04
0.05
0.05
0.05
0.05
0.05
0.05
0.05
0.05
0.05
0.05
0.05
0.04
0.04
0.05
0.00
0.00
0.00
0.00
0.05
0.05
0.05
0.00
0.00
0.05
0.00
0.00
0.05
0.04
0.04
0.00
0.00
0.05
0.04
0.00
0.00
0.00
0.00
0.00
0.00
0.00
0.00
0.00
0.00
0.00
0.05
0.05
0.04
0.04
0.05
0.05
0.13
0.16
0.15
0.05
0.00
0.00
0.00
0.00
0.00
0.00
0.00
0.14
0.14
0.14
0.14
0.00
0.09
0.39
0.41
0.50
0.66
0.66
0.61
0.66
0.78
0.84
0.89
0.88
0.92
0.90
0.87
0.61
0.00
0.41
0.27
0.20
0.20
0.20
0.20
0.20
0.20
0.20
0.20
0.20
0.20
0.20
0.20
0.20
0.20
0.24
0.25
0.27
0.25
0.27
0.24
0.20
0.20
0.20
0.20
0.20
0.24
0.24
0.20
0.20
0.20
0.25
0.29
0.29
0.29
0.39
0.51
0.62
0.62
0.62
0.62
0.49
0.46
0.46
0.37
0.29
0.20
0.24
0.37
0.41
0.37
0.20
0.00
0.00
0.00
0.04
0.09
0.16
0.34
0.20
0.25
0.20
0.25
0.20
0.20
0.20
0.20
0.16
0.16
0.16
0.16
0.15
0.09
0.05
0.05
0.09
0.05
0.05
0.09
0.13
0.09
0.05
0.05
0.05
0.05
0.05
0.05
0.05
0.04
0.00
0.04
0.05
0.00
0.00
0.05
0.05
0.05
0.05
0.05
0.05
0.05
0.05
0.05
0.05
0.05
0.04
0.04
0.04
0.00
0.00
0.05
0.00
0.00
0.04
0.00
0.00
0.00
0.00
0.04
0.00
0.00
0.00
0.00
0.00
0.00
0.00
0.00
0.00
0.05
0.09
0.13
0.16
0.15
0.05
0.00
0.00
0.00
0.00
0.09
0.09
0.14
0.26
0.29
0.29
0.34
0.20
0.13
0.31
0.31
0.51
0.68
0.65
0.59
0.72
0.81
0.86
0.87
0.89
0.92
0.88
0.80
0.20
0.42
0.27
0.24
0.20
0.25
0.20
0.20
0.20
0.29
0.39
0.34
0.29
0.34
0.29
0.29
0.25
0.29
0.29
0.22
0.22
0.22
0.20
0.29
0.42
0.39
0.34
0.29
0.39
0.37
0.37
0.25
0.29
0.37
0.49
0.55
0.71
0.78
0.78
0.79
0.79
0.79
0.79
0.79
0.76
0.55
0.46
0.42
0.42
0.34
0.20
0.37
0.41
0.41
0.40
0.29
0.09
0.04
0.05
0.05
0.13
0.15
0.13
0.13
0.16
0.16
0.16
0.20
0.05
0.05
0.05
0.05
0.05
0.05
0.05
0.05
0.05
0.00
0.05
0.04
0.00
0.05
0.05
0.09
0.00
0.14
0.09
0.14
0.09
0.09
0.00
0.09
0.20
0.09
0.00
0.00
0.20
0.29
0.20
0.14
0.20
0.14
0.09
0.09
0.14
0.26
0.26
0.33
0.09
0.00
0.09
0.37
0.34
0.20
0.29
0.29
0.29
0.20
0.29
0.29
0.00
0.20
0.34
0.29
0.29
0.26
0.26
0.34
0.33
0.26
0.09
0.04
0.05
0.05
0.00
0.14
0.29
0.37
0.34
0.26
0.29
0.37
0.34
0.33
0.37
0.41
0.40
0.29
0.05
0.20
0.20
0.35
0.53
0.53
0.45
0.63
0.77
0.83
0.89
0.88
0.88
0.90
0.83
0.35
0.37
0.20
0.42
0.47
0.49
0.47
0.49
0.46
0.39
0.39
0.42
0.42
0.39
0.34
0.25
0.29
0.29
0.29
0.25
0.29
0.22
0.20
0.20
0.20
0.25
0.29
0.34
0.29
0.29
0.29
0.25
0.29
0.29
0.39
0.47
0.58
0.51
0.58
0.62
0.76
0.79
0.76
0.76
0.67
0.67
0.62
0.49
0.42
0.34
0.25
0.20
0.34
0.41
0.37
0.29
0.09
0.00
0.05
0.05
0.13
0.15
0.15
0.09
0.15
0.16
0.15
0.13
0.09
0.09
0.09
0.09
0.05
0.05
0.05
0.05
0.05
0.05
0.05
0.05
0.05
0.04
0.04
0.04
0.05
0.05
0.00
0.00
0.04
0.05
0.05
0.05
0.00
0.00
0.04
0.05
0.05
0.05
0.05
0.05
0.00
0.05
0.05
0.04
0.09
0.00
0.04
0.04
0.04
0.00
0.00
0.05
0.05
0.09
0.09
0.00
0.00
0.05
0.05
0.05
0.04
0.04
0.13
0.09
0.05
0.05
0.05
0.04
0.05
0.09
0.13
0.13
0.15
0.37
0.43
0.35
0.20
0.13
0.09
0.05
0.05
0.09
0.15
0.16
0.09
0.05
0.09
0.09
0.13
0.37
0.53
0.53
0.61
0.68
0.68
0.66
0.75
0.82
0.89
0.88
0.97
0.98
0.98
0.84
0.51
0.00
0.40
0.41
0.27
0.27
0.41
0.41
0.37
0.27
0.25
0.37
0.41
0.37
0.37
0.41
0.41
0.41
0.40
0.40
0.41
0.42
0.41
0.41
0.40
0.37
0.39
0.40
0.39
0.39
0.40
0.39
0.41
0.41
0.34
0.27
0.27
0.20
0.20
0.20
0.25
0.29
0.22
0.20
0.20
0.20
0.29
0.25
0.27
0.37
0.40
0.29
0.20
0.14
0.04
0.09
0.20
0.25
0.37
0.45
0.48
0.48
0.48
0.50
0.48
0.48
0.46
0.45
0.43
0.46
0.45
0.41
0.40
0.40
0.43
0.40
0.31
0.35
0.35
0.20
0.20
0.25
0.25
0.20
0.16
0.16
0.16
0.09
0.09
0.09
0.09
0.13
0.13
0.15
0.13
0.09
0.13
0.15
0.15
0.05
0.05
0.05
0.09
0.09
0.09
0.13
0.13
0.09
0.05
0.05
0.05
0.05
0.05
0.09
0.15
0.09
0.05
0.09
0.05
0.05
0.05
0.05
0.05
0.04
0.04
0.05
0.05
0.09
0.05
0.09
0.15
0.20
0.25
0.31
0.20
0.09
0.05
0.05
0.05
0.05
0.05
0.05
0.04
0.04
0.00
0.00
0.00
0.05
0.25
0.41
0.45
0.58
0.66
0.68
0.65
0.71
0.81
0.87
0.87
0.90
0.97
0.96
0.87
0.56
0.09
0.39
0.41
0.34
0.27
0.25
0.34
0.41
0.24
0.25
0.34
0.33
0.27
0.37
0.37
0.27
0.27
0.24
0.27
0.37
0.37
0.34
0.27
0.27
0.37
0.41
0.37
0.34
0.33
0.24
0.20
0.24
0.20
0.22
0.29
0.29
0.37
0.39
0.46
0.42
0.47
0.58
0.55
0.49
0.42
0.39
0.29
0.22
0.20
0.37
0.41
0.40
0.37
0.29
0.00
0.05
0.09
0.09
0.15
0.20
0.25
0.31
0.34
0.37
0.35
0.35
0.25
0.20
0.20
0.20
0.15
0.15
0.16
0.15
0.13
0.13
0.16
0.09
0.05
0.05
0.09
0.05
0.05
0.05
0.05
0.05
0.05
0.05
0.05
0.04
0.00
0.00
0.04
0.05
0.05
0.05
0.05
0.05
0.05
0.05
0.04
0.05
0.00
0.00
0.04
0.05
0.00
0.00
0.05
0.04
0.00
0.05
0.05
0.00
0.00
0.04
0.04
0.04
0.05
0.04
0.00
0.00
0.00
0.00
0.00
0.00
0.00
0.05
0.04
0.04
0.13
0.15
0.15
0.13
0.04
0.00
0.00
0.00
0.00
0.05
0.05
0.00
0.00
0.14
0.14
0.14
0.00
0.15
0.35
0.39
0.61
0.68
0.66
0.63
0.72
0.81
0.87
0.87
0.90
0.98
0.89
0.83
0.46
0.20
0.40
0.37
0.25
0.24
0.27
0.20
0.20
0.20
0.24
0.20
0.24
0.25
0.27
0.24
0.20
0.20
0.24
0.20
0.25
0.25
0.27
0.27
0.25
0.24
0.25
0.37
0.27
0.20
0.20
0.20
0.22
0.22
0.25
0.25
0.25
0.37
0.46
0.47
0.55
0.62
0.62
0.55
0.49
0.55
0.55
0.46
0.29
0.25
0.24
0.37
0.39
0.34
0.14
0.00
0.05
0.09
0.13
0.16
0.16
0.25
0.25
0.34
0.20
0.20
0.25
0.25
0.16
0.16
0.25
0.20
0.13
0.15
0.13
0.20
0.15
0.05
0.05
0.05
0.09
0.09
0.09
0.05
0.05
0.05
0.05
0.05
0.05
0.05
0.05
0.05
0.00
0.00
0.00
0.00
0.00
0.05
0.05
0.00
0.00
0.00
0.00
0.04
0.04
0.05
0.05
0.00
0.09
0.00
0.09
0.00
0.04
0.00
0.00
0.00
0.09
0.00
0.00
0.00
0.00
0.00
0.00
0.09
0.14
0.09
0.14
0.14
0.09
0.14
0.14
0.00
0.04
0.05
0.05
0.05
0.29
0.29
0.26
0.26
0.26
0.33
0.33
0.33
0.37
0.37
0.37
0.29
0.20
0.05
0.20
0.16
0.41
0.59
0.56
0.46
0.65
0.78
0.84
0.89
0.89
0.91
0.88
0.81
0.37
0.41
0.25
0.20
0.22
0.25
0.25
0.25
0.25
0.29
0.29
0.25
0.29
0.29
0.29
0.29
0.20
0.22
0.22
0.29
0.29
0.20
0.22
0.25
0.25
0.25
0.22
0.29
0.29
0.25
0.25
0.29
0.39
0.37
0.47
0.55
0.62
0.62
0.62
0.71
0.76
0.70
0.62
0.70
0.76
0.71
0.70
0.62
0.49
0.29
0.20
0.27
0.42
0.37
0.20
0.09
0.00
0.05
0.05
0.05
0.16
0.15
0.13
0.05
0.13
0.09
0.05
0.05
0.05
0.05
0.04
0.05
0.00
0.05
0.05
0.00
0.00
0.00
0.00
0.00
0.00
0.00
0.04
0.00
0.09
0.09
0.00
0.00
0.00
0.00
0.00
0.09
0.14
0.14
0.14
0.09
0.00
0.00
0.00
0.00
0.00
0.04
0.00
0.09
0.09
0.09
0.09
0.00
0.00
0.00
0.05
0.00
0.00
0.00
0.00
0.00
0.04
0.05
0.05
0.04
0.04
0.05
0.00
0.00
0.00
0.00
0.00
0.05
0.05
0.05
0.05
0.04
0.05
0.09
0.15
0.20
0.16
0.04
0.14
0.09
0.05
0.05
0.00
0.00
0.05
0.09
0.00
0.04
0.00
0.00
0.35
0.45
0.43
0.59
0.63
0.59
0.63
0.77
0.83
0.88
0.88
0.90
0.98
0.87
0.75
0.20
0.29
0.42
0.33
0.24
0.20
0.20
0.20
0.20
0.20
0.24
0.24
0.27
0.27
0.20
0.20
0.20
0.24
0.27
0.25
0.24
0.20
0.20
0.20
0.27
0.27
0.20
0.20
0.25
0.29
0.24
0.24
0.20
0.29
0.34
0.29
0.29
0.34
0.46
0.62
0.67
0.55
0.55
0.62
0.67
0.47
0.29
0.20
0.20
0.24
0.37
0.41
0.37
0.29
0.00
0.05
0.05
0.05
0.15
0.20
0.20
0.20
0.25
0.25
0.31
0.34
0.39
0.16
0.13
0.16
0.15
0.04
0.00
0.05
0.05
0.05
0.05
0.00
0.00
0.04
0.09
0.05
0.04
0.00
0.00
0.00
0.00
0.00
0.00
0.00
0.09
0.14
0.00
0.00
0.09
0.00
0.00
0.09
0.14
0.09
0.09
0.00
0.09
0.00
0.00
0.00
0.00
0.00
0.00
0.00
0.00
0.00
0.00
0.00
0.00
0.09
0.00
0.09
0.04
0.00
0.00
0.00
0.00
0.04
0.04
0.00
0.00
0.00
0.00
0.00
0.04
0.09
0.09
0.05
0.00
0.14
0.14
0.14
0.09
0.00
0.00
0.00
0.09
0.20
0.29
0.26
0.20
0.00
0.20
0.43
0.39
0.45
0.56
0.50
0.51
0.69
0.81
0.87
0.88
0.89
0.96
0.88
0.72
0.04
0.33
0.20
0.29
0.29
0.29
0.29
0.25
0.29
0.25
0.20
0.20
0.22
0.20
0.20
0.20
0.20
0.20
0.20
0.20
0.20
0.24
0.25
0.20
0.20
0.20
0.20
0.20
0.20
0.20
0.20
0.20
0.20
0.20
0.25
0.39
0.22
0.29
0.34
0.37
0.37
0.39
0.29
0.37
0.29
0.29
0.29
0.20
0.34
0.37
0.41
0.34
0.20
0.00
0.05
0.13
0.20
0.25
0.25
0.31
0.40
0.46
0.45
0.43
0.41
0.43
0.45
0.43
0.40
0.25
0.25
0.31
0.31
0.34
0.43
0.39
0.40
0.31
0.31
0.25
0.25
0.20
0.05
0.05
0.05
0.05
0.09
0.15
0.05
0.13
0.15
0.09
0.05
0.05
0.09
0.13
0.05
0.05
0.05
0.05
0.09
0.09
0.05
0.05
0.05
0.05
0.05
0.05
0.05
0.09
0.09
0.15
0.13
0.09
0.13
0.15
0.09
0.09
0.13
0.09
0.09
0.13
0.09
0.09
0.09
0.13
0.16
0.20
0.25
0.41
0.43
0.40
0.20
0.15
0.15
0.16
0.15
0.09
0.05
0.05
0.05
0.05
0.05
0.05
0.13
0.37
0.48
0.53
0.65
0.71
0.72
0.70
0.75
0.82
0.88
0.89
0.96
1.00
0.98
0.84
0.48
0.04
0.20
0.37
0.40
0.41
0.41
0.41
0.41
0.42
0.41
0.37
0.42
0.41
0.41
0.41
0.41
0.41
0.40
0.41
0.41
0.41
0.42
0.41
0.41
0.41
0.41
0.41
0.41
0.41
0.41
0.41
0.41
0.37
0.20
0.20
0.20
0.20
0.20
0.29
0.25
0.29
0.29
0.29
0.29
0.29
0.22
0.20
0.20
0.34
0.40
0.37
0.33
0.00
0.04
0.05
0.13
0.15
0.20
0.37
0.43
0.41
0.39
0.40
0.41
0.41
0.43
0.40
0.35
0.34
0.35
0.34
0.31
0.31
0.31
0.31
0.25
0.20
0.20
0.20
0.16
0.20
0.20
0.20
0.15
0.15
0.15
0.16
0.16
0.15
0.15
0.15
0.15
0.15
0.15
0.15
0.09
0.13
0.05
0.05
0.05
0.05
0.05
0.05
0.05
0.05
0.09
0.05
0.05
0.05
0.05
0.04
0.00
0.04
0.05
0.05
0.05
0.05
0.05
0.05
0.00
0.00
0.00
0.00
0.00
0.00
0.00
0.00
0.00
0.00
0.05
0.09
0.15
0.15
0.15
0.00
0.00
0.14
0.00
0.00
0.09
0.14
0.20
0.20
0.20
0.20
0.26
0.14
0.05
0.20
0.25
0.43
0.59
0.59
0.51
0.64
0.76
0.83
0.90
0.88
0.90
0.88
0.83
0.50
0.33
0.27
0.20
0.25
0.25
0.29
0.22
0.22
0.25
0.34
0.29
0.29
0.22
0.20
0.20
0.20
0.20
0.20
0.20
0.20
0.20
0.29
0.20
0.20
0.25
0.29
0.29
0.25
0.25
0.29
0.29
0.29
0.34
0.34
0.39
0.55
0.62
0.62
0.70
0.76
0.76
0.76
0.76
0.71
0.70
0.62
0.62
0.55
0.34
0.22
0.20
0.33
0.41
0.37
0.34
0.14
0.00
0.00
0.00
0.05
0.13
0.13
0.05
0.05
0.05
0.05
0.09
0.13
0.09
0.05
0.05
0.05
0.05
0.05
0.05
0.05
0.05
0.05
0.05
0.04
0.00
0.00
0.00
0.00
0.00
0.05
0.05
0.04
0.05
0.05
0.04
0.04
0.05
0.05
0.00
0.00
0.00
0.05
0.05
0.05
0.05
0.05
0.05
0.05
0.05
0.04
0.05
0.13
0.13
0.05
0.05
0.05
0.05
0.05
0.13
0.13
0.05
0.05
0.09
0.13
0.09
0.13
0.15
0.15
0.09
0.05
0.05
0.09
0.13
0.13
0.13
0.16
0.16
0.20
0.35
0.35
0.40
0.20
0.15
0.09
0.05
0.05
0.05
0.05
0.15
0.05
0.05
0.00
0.04
0.05
0.34
0.50
0.51
0.59
0.68
0.68
0.64
0.69
0.81
0.87
0.87
0.90
0.97
0.94
0.89
0.65
0.05
0.34
0.41
0.41
0.41
0.41
0.33
0.33
0.24
0.27
0.33
0.34
0.24
0.27
0.33
0.34
0.33
0.41
0.41
0.42
0.33
0.27
0.34
0.34
0.25
0.25
0.37
0.25
0.20
0.24
0.25
0.24
0.20
0.29
0.29
0.39
0.42
0.42
0.42
0.42
0.47
0.55
0.58
0.55
0.47
0.37
0.29
0.25
0.25
0.20
0.33
0.41
0.39
0.34
0.09
0.00
0.05
0.05
0.15
0.16
0.20
0.13
0.13
0.16
0.16
0.16
0.20
0.05
0.15
0.15
0.05
0.13
0.25
0.16
0.09
0.04
0.04
0.04
0.00
0.00
0.05
0.05
0.04
0.04
0.05
0.05
0.04
0.04
0.00
0.00
0.00
0.00
0.00
0.00
0.00
0.00
0.14
0.00
0.00
0.00
0.00
0.09
0.09
0.00
0.00
0.14
0.09
0.00
0.09
0.09
0.09
0.00
0.00
0.14
0.20
0.14
0.00
0.00
0.00
0.00
0.00
0.09
0.14
0.09
0.00
0.14
0.14
0.00
0.00
0.09
0.00
0.00
0.00
0.05
0.15
0.05
0.00
0.00
0.26
0.20
0.00
0.04
0.00
0.00
0.14
0.00
0.20
0.20
0.26
0.05
0.20
0.25
0.45
0.66
0.64
0.53
0.65
0.77
0.83
0.89
0.88
0.93
0.89
0.84
0.48
0.29
0.41
0.24
0.20
0.20
0.20
0.20
0.20
0.20
0.24
0.22
0.37
0.29
0.22
0.22
0.20
0.24
0.24
0.22
0.24
0.24
0.20
0.20
0.20
0.20
0.22
0.27
0.20
0.22
0.20
0.20
0.20
0.34
0.39
0.42
0.39
0.49
0.51
0.47
0.51
0.67
0.76
0.70
0.67
0.55
0.51
0.47
0.42
0.37
0.20
0.25
0.37
0.37
0.26
0.09
0.00
0.05
0.05
0.05
0.13
0.15
0.13
0.05
0.13
0.25
0.25
0.15
0.20
0.05
0.04
0.05
0.09
0.09
0.04
0.00
0.00
0.05
0.05
0.05
0.05
0.05
0.04
0.00
0.09
0.00
0.04
0.05
0.05
0.04
0.00
0.14
0.09
0.00
0.09
0.14
0.14
0.14
0.20
0.14
0.00
0.00
0.26
0.26
0.00
0.14
0.29
0.20
0.26
0.20
0.26
0.29
0.14
0.26
0.40
0.37
0.29
0.29
0.29
0.26
0.00
0.00
0.37
0.41
0.39
0.29
0.26
0.29
0.34
0.33
0.29
0.33
0.26
0.04
0.05
0.05
0.00
0.20
0.37
0.37
0.39
0.41
0.41
0.41
0.40
0.37
0.37
0.34
0.29
0.29
0.34
0.05
0.15
0.16
0.45
0.53
0.40
0.39
0.72
0.81
0.87
0.87
0.88
0.93
0.88
0.68
0.20
0.34
0.20
0.25
0.39
0.51
0.42
0.34
0.29
0.22
0.25
0.29
0.37
0.42
0.49
0.51
0.42
0.29
0.22
0.20
0.25
0.37
0.29
0.29
0.34
0.29
0.20
0.22
0.22
0.25
0.42
0.42
0.55
0.49
0.34
0.55
0.67
0.55
0.58
0.70
0.78
0.79
0.71
0.55
0.34
0.29
0.37
0.37
0.20
0.41
0.41
0.37
0.37
0.39
0.14
0.04
0.05
0.05
0.20
0.31
0.25
0.20
0.20
0.25
0.41
0.25
0.20
0.20
0.37
0.35
0.43
0.20
0.05
0.05
0.05
0.13
0.05
0.13
0.05
0.05
0.05
0.13
0.13
0.05
0.00
0.00
0.00
0.00
0.05
0.05
0.05
0.00
0.26
0.20
0.00
0.00
0.00
0.04
0.00
0.00
0.05
0.00
0.05
0.00
0.26
0.00
0.00
0.14
0.14
0.00
0.09
0.05
0.00
0.09
0.00
0.00
0.00
0.04
0.05
0.00
0.00
0.00
0.00
0.00
0.00
0.00
0.00
0.14
0.09
0.00
0.00
0.05
0.09
0.05
0.09
0.13
0.05
0.04
0.09
0.14
0.26
0.33
0.26
0.00
0.00
0.00
0.00
0.05
0.13
0.34
0.40
0.35
0.46
0.51
0.50
0.46
0.66
0.81
0.87
0.88
0.97
0.94
0.89
0.81
0.45
0.05
0.26
0.41
0.41
0.37
0.20
0.20
0.24
0.34
0.42
0.42
0.41
0.37
0.25
0.33
0.42
0.42
0.37
0.27
0.25
0.27
0.41
0.33
0.20
0.37
0.39
0.37
0.33
0.41
0.40
0.42
0.20
0.20
0.25
0.25
0.29
0.34
0.25
0.29
0.29
0.25
0.34
0.29
0.34
0.29
0.29
0.20
0.27
0.41
0.41
0.39
0.26
0.14
0.14
0.05
0.09
0.05
0.05
0.16
0.20
0.39
0.46
0.50
0.50
0.45
0.40
0.37
0.35
0.41
0.35
0.43
0.34
0.20
0.16
0.16
0.25
0.25
0.16
0.34
0.34
0.16
0.16
0.15
0.20
0.35
0.39
0.20
0.35
0.20
0.05
0.05
0.09
0.20
0.20
0.05
0.05
0.13
0.16
0.15
0.13
0.15
0.09
0.09
0.16
0.13
0.05
0.00
0.05
0.16
0.05
0.05
0.13
0.09
0.13
0.05
0.04
0.04
0.09
0.13
0.16
0.05
0.20
0.05
0.00
0.00
0.09
0.04
0.04
0.14
0.14
0.00
0.09
0.31
0.35
0.34
0.09
0.00
0.00
0.05
0.05
0.00
0.14
0.09
0.09
0.29
0.33
0.09
0.04
0.00
0.05
0.16
0.25
0.50
0.63
0.59
0.48
0.64
0.76
0.86
0.87
0.88
0.88
0.88
0.78
0.34
0.41
0.20
0.20
0.20
0.29
0.34
0.37
0.37
0.39
0.39
0.39
0.42
0.34
0.25
0.22
0.51
0.70
0.42
0.29
0.39
0.29
0.20
0.20
0.25
0.20
0.27
0.29
0.55
0.70
0.51
0.55
0.49
0.25
0.34
0.55
0.79
0.70
0.58
0.79
0.76
0.67
0.76
0.58
0.79
0.80
0.80
0.79
0.58
0.39
0.25
0.33
0.41
0.41
0.41
0.39
0.33
0.00
0.05
0.13
0.16
0.16
0.09
0.05
0.05
0.09
0.05
0.00
0.05
0.05
0.05
0.05
0.09
0.04
0.00
0.00
0.00
0.00
0.09
0.05
0.00
0.00
0.00
0.00
0.05
0.00
0.09
0.00
0.26
0.26
0.26
0.14
0.04
0.09
0.00
0.09
0.00
0.04
0.00
0.09
0.14
0.00
0.00
0.09
0.20
0.29
0.26
0.05
0.05
0.00
0.09
0.09
0.00
0.00
0.33
0.09
0.14
0.00
0.26
0.34
0.14
0.00
0.04
0.05
0.00
0.14
0.14
0.20
0.09
0.20
0.00
0.09
0.16
0.16
0.20
0.15
0.04
0.26
0.34
0.33
0.33
0.26
0.14
0.09
0.00
0.04
0.00
0.09
0.13
0.39
0.50
0.61
0.59
0.43
0.43
0.65
0.79
0.84
0.89
0.88
0.91
0.89
0.81
0.25
0.41
0.20
0.20
0.20
0.37
0.22
0.20
0.20
0.22
0.25
0.29
0.29
0.22
0.20
0.25
0.25
0.20
0.20
0.24
0.20
0.25
0.25
0.34
0.22
0.27
0.25
0.20
0.25
0.22
0.20
0.20
0.20
0.29
0.29
0.22
0.39
0.46
0.39
0.42
0.49
0.46
0.42
0.47
0.58
0.29
0.25
0.22
0.24
0.41
0.33
0.27
0.39
0.14
0.34
0.00
0.09
0.04
0.04
0.05
0.20
0.09
0.05
0.31
0.41
0.39
0.20
0.09
0.13
0.34
0.37
0.31
0.25
0.25
0.16
0.13
0.09
0.05
0.20
0.09
0.00
0.09
0.05
0.05
0.05
0.09
0.05
0.05
0.05
0.09
0.13
0.13
0.13
0.00
0.04
0.00
0.05
0.05
0.00
0.00
0.04
0.05
0.13
0.13
0.04
0.00
0.00
0.05
0.05
0.00
0.09
0.00
0.00
0.00
0.00
0.04
0.05
0.05
0.04
0.05
0.16
0.05
0.00
0.29
0.20
0.14
0.14
0.04
0.09
0.05
0.05
0.31
0.15
0.13
0.05
0.05
0.09
0.14
0.05
0.04
0.00
0.00
0.05
0.05
0.04
0.04
0.00
0.05
0.25
0.37
0.41
0.51
0.59
0.53
0.58
0.69
0.80
0.87
0.87
0.89
0.92
0.88
0.81
0.34
0.33
0.37
0.20
0.25
0.27
0.25
0.37
0.34
0.20
0.20
0.20
0.20
0.25
0.22
0.29
0.29
0.25
0.20
0.37
0.27
0.24
0.25
0.25
0.20
0.29
0.39
0.34
0.20
0.20
0.20
0.24
0.24
0.20
0.25
0.29
0.22
0.39
0.62
0.55
0.39
0.39
0.42
0.25
0.24
0.25
0.25
0.42
0.46
0.34
0.20
0.33
0.29
0.05
0.05
0.09
0.13
0.09
0.16
0.31
0.25
0.15
0.35
0.40
0.43
0.39
0.34
0.40
0.41
0.35
0.13
0.05
0.09
0.15
0.15
0.15
0.09
0.04
0.09
0.20
0.20
0.16
0.16
0.15
0.13
0.16
0.13
0.05
0.13
0.09
0.04
0.13
0.25
0.09
0.05
0.15
0.09
0.05
0.05
0.09
0.00
0.00
0.15
0.20
0.16
0.05
0.20
0.00
0.09
0.05
0.05
0.09
0.05
0.05
0.05
0.00
0.14
0.00
0.05
0.05
0.00
0.05
0.05
0.20
0.26
0.00
0.04
0.00
0.00
0.00
0.00
0.04
0.05
0.05
0.16
0.05
0.04
0.04
0.13
0.04
0.40
0.33
0.40
0.09
0.05
0.00
0.05
0.14
0.26
0.05
0.35
0.20
0.05
0.43
0.58
0.51
0.61
0.72
0.81
0.87
0.87
0.92
0.97
0.87
0.79
0.20
0.37
0.20
0.25
0.33
0.20
0.24
0.20
0.29
0.24
0.41
0.20
0.27
0.41
0.41
0.29
0.37
0.20
0.20
0.20
0.34
0.41
0.33
0.20
0.20
0.24
0.20
0.20
0.24
0.41
0.41
0.27
0.20
0.37
0.58
0.55
0.49
0.39
0.34
0.39
0.39
0.42
0.34
0.37
0.46
0.29
0.37
0.42
0.24
0.41
0.39
0.37
0.34
0.37
0.00
0.05
0.09
0.15
0.20
0.34
0.34
0.39
0.40
0.34
0.43
0.43
0.39
0.41
0.35
0.50
0.39
0.13
0.13
0.20
0.16
0.09
0.09
0.15
0.15
0.13
0.05
0.15
0.16
0.05
0.04
0.04
0.05
0.13
0.05
0.00
0.05
0.05
0.05
0.05
0.05
0.09
0.04
0.00
0.00
0.05
0.20
0.20
0.04
0.05
0.05
0.00
0.00
0.09
0.09
0.00
0.05
0.05
0.16
0.20
0.05
0.09
0.00
0.05
0.15
0.15
0.05
0.04
0.05
0.05
0.00
0.04
0.04
0.00
0.00
0.04
0.05
0.05
0.16
0.25
0.20
0.25
0.15
0.00
0.00
0.05
0.20
0.09
0.00
0.14
0.26
0.14
0.00
0.00
0.05
0.09
0.34
0.45
0.58
0.65
0.58
0.59
0.63
0.70
0.80
0.86
0.88
0.92
0.97
0.87
0.76
0.25
0.37
0.40
0.41
0.24
0.20
0.20
0.20
0.24
0.20
0.29
0.20
0.20
0.25
0.20
0.29
0.20
0.20
0.20
0.20
0.24
0.27
0.25
0.42
0.25
0.20
0.20
0.20
0.20
0.22
0.29
0.34
0.37
0.22
0.39
0.39
0.29
0.37
0.29
0.37
0.62
0.78
0.71
0.70
0.47
0.22
0.42
0.62
0.42
0.20
0.37
0.37
0.14
0.00
0.00
0.05
0.15
0.04
0.04
0.05
0.15
0.16
0.25
0.15
0.20
0.15
0.15
0.04
0.13
0.20
0.05
0.00
0.05
0.09
0.15
0.16
0.05
0.05
0.05
0.05
0.04
0.05
0.09
0.04
0.00
0.00
0.00
0.05
0.00
0.09
0.04
0.05
0.00
0.00
0.09
0.14
0.26
0.14
0.04
0.05
0.00
0.00
0.00
0.00
0.00
0.14
0.20
0.00
0.00
0.00
0.00
0.05
0.00
0.14
0.14
0.00
0.09
0.05
0.05
0.20
0.34
0.20
0.05
0.09
0.04
0.00
0.09
0.13
0.31
0.20
0.05
0.00
0.00
0.09
0.20
0.09
0.09
0.14
0.09
0.14
0.20
0.00
0.05
0.00
0.16
0.41
0.43
0.53
0.66
0.58
0.48
0.64
0.81
0.88
0.88
0.88
0.96
0.90
0.83
0.48
0.39
0.25
0.22
0.20
0.22
0.37
0.40
0.33
0.20
0.24
0.24
0.25
0.37
0.27
0.29
0.37
0.20
0.24
0.20
0.24
0.37
0.40
0.40
0.33
0.20
0.20
0.41
0.41
0.22
0.37
0.29
0.29
0.20
0.20
0.29
0.29
0.25
0.20
0.34
0.62
0.51
0.37
0.55
0.67
0.55
0.29
0.20
0.41
0.41
0.41
0.34
0.33
0.33
0.09
0.09
0.13
0.09
0.09
0.16
0.25
0.34
0.41
0.41
0.20
0.16
0.20
0.20
0.16
0.05
0.05
0.05
0.13
0.00
0.00
0.16
0.15
0.09
0.05
0.05
0.13
0.05
0.04
0.04
0.05
0.00
0.14
0.00
0.09
0.04
0.05
0.05
0.00
0.05
0.05
0.00
0.00
0.04
0.05
0.00
0.00
0.05
0.05
0.09
0.14
0.00
0.05
0.05
0.09
0.09
0.00
0.09
0.05
0.00
0.05
0.05
0.09
0.26
0.20
0.00
0.26
0.14
0.00
0.05
0.05
0.05
0.04
0.00
0.00
0.00
0.13
0.00
0.05
0.04
0.20
0.05
0.15
0.05
0.00
0.09
0.20
0.14
0.05
0.05
0.00
0.20
0.14
0.20
0.29
0.14
0.05
0.34
0.43
0.43
0.51
0.61
0.43
0.56
0.75
0.83
0.88
0.87
0.89
0.97
0.89
0.66
0.00
0.27
0.24
0.27
0.20
0.22
0.20
0.20
0.20
0.34
0.37
0.25
0.20
0.20
0.25
0.34
0.27
0.20
0.20
0.20
0.20
0.20
0.25
0.34
0.29
0.20
0.42
0.41
0.29
0.51
0.39
0.25
0.20
0.20
0.20
0.42
0.47
0.51
0.20
0.55
0.71
0.55
0.67
0.47
0.29
0.25
0.29
0.20
0.41
0.41
0.37
0.37
0.41
0.09
0.04
0.04
0.04
0.13
0.20
0.13
0.13
0.35
0.35
0.35
0.43
0.37
0.13
0.09
0.20
0.35
0.20
0.05
0.05
0.09
0.20
0.31
0.13
0.04
0.04
0.15
0.05
0.09
0.05
0.05
0.05
0.09
0.05
0.05
0.00
0.09
0.09
0.04
0.00
0.05
0.05
0.05
0.09
0.14
0.00
0.00
0.00
0.09
0.00
0.05
0.09
0.05
0.05
0.00
0.09
0.00
0.00
0.00
0.00
0.00
0.00
0.05
0.00
0.00
0.09
0.05
0.15
0.05
0.33
0.34
0.05
0.05
0.00
0.14
0.04
0.00
0.09
0.09
0.31
0.20
0.05
0.09
0.04
0.14
0.00
0.00
0.00
0.00
0.09
0.14
0.05
0.15
0.05
0.20
0.33
0.20
0.05
0.20
0.31
0.39
0.50
0.56
0.63
0.69
0.78
0.84
0.90
0.88
0.90
0.93
0.84
0.48
0.14
0.29
0.27
0.24
0.20
0.29
0.25
0.41
0.33
0.20
0.20
0.37
0.33
0.34
0.25
0.20
0.25
0.24
0.41
0.41
0.37
0.37
0.34
0.41
0.37
0.20
0.22
0.20
0.24
0.24
0.20
0.20
0.25
0.20
0.46
0.58
0.51
0.37
0.29
0.39
0.49
0.42
0.46
0.42
0.29
0.29
0.29
0.22
0.24
0.41
0.40
0.29
0.04
0.04
0.05
0.15
0.04
0.09
0.16
0.40
0.40
0.43
0.43
0.37
0.39
0.35
0.20
0.35
0.35
0.13
0.13
0.16
0.05
0.09
0.15
0.09
0.05
0.05
0.04
0.13
0.25
0.13
0.00
0.09
0.00
0.05
0.05
0.09
0.09
0.04
0.00
0.05
0.05
0.05
0.15
0.05
0.00
0.00
0.09
0.14
0.00
0.00
0.05
0.13
0.15
0.05
0.05
0.05
0.05
0.14
0.09
0.00
0.04
0.05
0.04
0.00
0.05
0.05
0.00
0.09
0.00
0.09
0.14
0.05
0.05
0.04
0.04
0.05
0.13
0.00
0.00
0.13
0.15
0.13
0.09
0.05
0.15
0.04
0.00
0.05
0.00
0.14
0.00
0.09
0.09
0.00
0.09
0.26
0.14
0.09
0.34
0.43
0.41
0.41
0.48
0.46
0.53
0.68
0.76
0.83
0.90
0.88
0.96
0.90
0.83
0.51
0.14
0.34
0.33
0.41
0.25
0.29
0.58
0.25
0.24
0.29
0.20
0.25
0.25
0.24
0.34
0.42
0.25
0.29
0.25
0.20
0.20
0.24
0.33
0.25
0.20
0.24
0.25
0.20
0.29
0.25
0.20
0.20
0.29
0.29
0.20
0.20
0.25
0.39
0.47
0.70
0.71
0.79
0.67
0.46
0.20
0.20
0.29
0.29
0.22
0.41
0.20
0.34
0.37
0.29
0.00
0.05
0.05
0.15
0.40
0.25
0.20
0.31
0.37
0.35
0.31
0.20
0.15
0.05
0.04
0.09
0.34
0.35
0.15
0.05
0.09
0.05
0.00
0.00
0.05
0.05
0.00
0.00
0.05
0.13
0.20
0.05
0.00
0.00
0.00
0.04
0.04
0.34
0.00
0.00
0.05
0.09
0.05
0.09
0.00
0.09
0.05
0.00
0.05
0.04
0.20
0.05
0.15
0.05
0.14
0.09
0.00
0.05
0.05
0.04
0.00
0.04
0.00
0.09
0.00
0.09
0.00
0.00
0.05
0.05
0.05
0.26
0.20
0.09
0.09
0.14
0.05
0.05
0.09
0.04
0.13
0.13
0.15
0.37
0.05
0.04
0.14
0.29
0.33
0.04
0.05
0.26
0.34
0.26
0.00
0.14
0.14
0.13
0.40
0.41
0.40
0.46
0.48
0.46
0.63
0.75
0.82
0.89
0.88
0.92
0.91
0.90
0.68
0.14
0.41
0.27
0.24
0.20
0.20
0.22
0.20
0.24
0.24
0.25
0.25
0.29
0.37
0.42
0.20
0.22
0.24
0.24
0.24
0.27
0.24
0.24
0.20
0.20
0.20
0.24
0.20
0.22
0.20
0.20
0.37
0.33
0.29
0.37
0.42
0.34
0.29
0.51
0.62
0.62
0.62
0.62
0.55
0.29
0.25
0.27
0.25
0.20
0.24
0.41
0.41
0.40
0.29
0.09
0.05
0.05
0.15
0.16
0.25
0.39
0.39
0.35
0.37
0.40
0.25
0.13
0.09
0.20
0.20
0.20
0.16
0.05
0.04
0.05
0.05
0.05
0.13
0.16
0.05
0.00
0.00
0.05
0.05
0.04
0.00
0.04
0.05
0.00
0.05
0.05
0.04
0.00
0.04
0.09
0.04
0.05
0.04
0.00
0.00
0.04
0.04
0.04
0.05
0.00
0.14
0.09
0.00
0.05
0.05
0.05
0.00
0.00
0.09
0.09
0.14
0.09
0.00
0.00
0.05
0.05
0.00
0.09
0.14
0.09
0.29
0.37
0.33
0.09
0.05
0.05
0.00
0.04
0.00
0.00
0.05
0.05
0.05
0.00
0.05
0.00
0.00
0.00
0.09
0.14
0.29
0.14
0.09
0.26
0.20
0.14
0.04
0.20
0.25
0.35
0.46
0.58
0.59
0.68
0.77
0.83
0.89
0.87
0.90
0.90
0.89
0.68
0.14
0.41
0.37
0.27
0.20
0.27
0.20
0.25
0.20
0.20
0.20
0.20
0.20
0.20
0.20
0.20
0.34
0.33
0.24
0.27
0.37
0.27
0.20
0.33
0.25
0.20
0.20
0.25
0.24
0.25
0.24
0.20
0.20
0.24
0.20
0.34
0.42
0.37
0.49
0.58
0.55
0.55
0.51
0.39
0.37
0.39
0.29
0.33
0.41
0.27
0.33
0.41
0.34
0.00
0.00
0.00
0.05
0.15
0.15
0.20
0.20
0.25
0.34
0.31
0.16
0.31
0.39
0.31
0.25
0.16
0.15
0.16
0.20
0.15
0.09
0.16
0.25
0.20
0.20
0.25
0.09
0.00
0.00
0.09
0.00
0.05
0.05
0.05
0.04
0.05
0.00
0.00
0.00
0.05
0.05
0.09
0.00
0.14
0.00
0.00
0.00
0.00
0.04
0.04
0.05
0.00
0.09
0.00
0.00
0.20
0.20
0.00
0.00
0.05
0.04
0.00
0.00
0.00
0.00
0.00
0.00
0.00
0.00
0.14
0.26
0.00
0.05
0.00
0.00
0.14
0.00
0.00
0.20
0.14
0.13
0.05
0.00
0.05
0.05
0.04
0.00
0.00
0.09
0.14
0.14
0.05
0.26
0.20
0.20
0.29
0.09
0.04
0.05
0.37
0.35
0.37
0.45
0.45
0.40
0.61
0.76
0.83
0.88
0.87
0.88
0.90
0.90
0.72
0.05
0.39
0.37
0.24
0.20
0.20
0.20
0.20
0.20
0.20
0.25
0.25
0.29
0.20
0.24
0.33
0.37
0.25
0.24
0.20
0.20
0.34
0.41
0.20
0.20
0.24
0.37
0.37
0.20
0.20
0.27
0.20
0.20
0.24
0.20
0.29
0.34
0.34
0.37
0.47
0.51
0.42
0.37
0.34
0.25
0.27
0.41
0.24
0.20
0.27
0.40
0.29
0.37
0.00
0.00
0.15
0.15
0.20
0.16
0.16
0.35
0.51
0.48
0.46
0.45
0.41
0.41
0.34
0.25
0.25
0.35
0.15
0.09
0.09
0.05
0.05
0.05
0.13
0.16
0.13
0.05
0.04
0.04
0.05
0.05
0.09
0.15
0.05
0.04
0.04
0.09
0.16
0.16
0.13
0.04
0.00
0.04
0.09
0.04
0.00
0.00
0.05
0.05
0.05
0.05
0.05
0.05
0.05
0.13
0.05
0.05
0.20
0.05
0.05
0.00
0.09
0.00
0.05
0.05
0.13
0.09
0.00
0.00
0.04
0.04
0.00
0.04
0.05
0.09
0.09
0.04
0.00
0.00
0.05
0.13
0.20
0.34
0.35
0.05
0.05
0.05
0.05
0.04
0.05
0.13
0.00
0.20
0.14
0.14
0.00
0.09
0.34
0.43
0.34
0.41
0.58
0.63
0.59
0.69
0.81
0.87
0.88
0.88
0.95
0.88
0.81
0.45
0.09
0.42
0.24
0.20
0.25
0.25
0.25
0.27
0.25
0.20
0.25
0.27
0.20
0.20
0.25
0.37
0.20
0.22
0.24
0.25
0.25
0.27
0.27
0.25
0.37
0.24
0.20
0.20
0.20
0.24
0.24
0.20
0.20
0.20
0.25
0.29
0.29
0.34
0.39
0.37
0.34
0.46
0.55
0.62
0.55
0.37
0.20
0.20
0.24
0.37
0.40
0.26
0.29
0.26
0.00
0.05
0.05
0.13
0.25
0.37
0.31
0.34
0.31
0.34
0.34
0.16
0.20
0.20
0.20
0.39
0.16
0.15
0.15
0.16
0.15
0.15
0.20
0.16
0.05
0.05
0.13
0.16
0.20
0.16
0.15
0.15
0.16
0.13
0.13
0.16
0.16
0.25
0.35
0.13
0.05
0.05
0.09
0.13
0.05
0.13
0.15
0.16
0.15
0.05
0.05
0.05
0.20
0.16
0.13
0.05
0.05
0.05
0.05
0.05
0.16
0.13
0.05
0.09
0.13
0.09
0.13
0.20
0.15
0.05
0.04
0.05
0.15
0.09
0.05
0.09
0.09
0.13
0.20
0.20
0.35
0.35
0.16
0.09
0.05
0.09
0.15
0.15
0.09
0.13
0.05
0.00
0.04
0.04
0.05
0.09
0.43
0.48
0.48
0.66
0.72
0.65
0.63
0.75
0.83
0.89
0.88
0.90
0.98
0.87
0.81
0.43
0.04
0.20
0.40
0.41
0.37
0.37
0.41
0.41
0.40
0.37
0.34
0.37
0.41
0.41
0.40
0.37
0.41
0.41
0.41
0.40
0.41
0.41
0.41
0.37
0.37
0.37
0.41
0.41
0.37
0.34
0.20
0.20
0.27
0.20
0.20
0.20
0.20
0.20
0.25
0.37
0.39
0.29
0.20
0.20
0.20
0.20
0.20
0.20
0.33
0.41
0.33
0.14
0.00
0.05
0.09
0.09
0.20
0.40
0.43
0.35
0.16
0.31
0.39
0.43
0.35
0.40
0.31
0.31
0.31
0.31
0.34
0.25
0.25
0.31
0.20
0.15
0.16
0.20
0.16
0.20
0.25
0.15
0.15
0.15
0.15
0.13
0.09
0.05
0.05
0.15
0.20
0.16
0.09
0.09
0.13
0.15
0.13
0.16
0.20
0.13
0.05
0.05
0.13
0.15
0.13
0.04
0.05
0.09
0.15
0.13
0.13
0.13
0.20
0.13
0.09
0.15
0.15
0.05
0.15
0.13
0.05
0.09
0.13
0.15
0.15
0.15
0.16
0.20
0.15
0.05
0.05
0.16
0.25
0.37
0.43
0.39
0.25
0.13
0.05
0.05
0.05
0.09
0.05
0.05
0.04
0.05
0.05
0.05
0.05
0.16
0.39
0.50
0.50
0.68
0.68
0.64
0.64
0.76
0.83
0.89
0.89
0.92
0.98
0.87
0.75
0.20
0.26
0.41
0.34
0.27
0.37
0.33
0.27
0.33
0.27
0.33
0.34
0.33
0.25
0.25
0.27
0.27
0.33
0.34
0.34
0.37
0.37
0.27
0.27
0.33
0.41
0.41
0.25
0.25
0.27
0.24
0.20
0.20
0.20
0.20
0.22
0.29
0.34
0.39
0.42
0.46
0.49
0.58
0.62
0.49
0.42
0.39
0.29
0.20
0.27
0.27
0.41
0.37
0.26
0.09
0.00
0.05
0.05
0.09
0.15
0.16
0.20
0.20
0.20
0.20
0.34
0.25
0.20
0.15
0.05
0.09
0.13
0.05
0.05
0.09
0.15
0.15
0.15
0.15
0.05
0.05
0.13
0.05
0.05
0.09
0.13
0.05
0.04
0.00
0.04
0.05
0.05
0.05
0.04
0.05
0.04
0.00
0.05
0.05
0.04
0.00
0.00
0.00
0.00
0.00
0.05
0.05
0.05
0.05
0.04
0.04
0.09
0.00
0.00
0.09
0.09
0.00
0.00
0.04
0.04
0.00
0.00
0.04
0.05
0.00
0.09
0.09
0.09
0.00
0.04
0.05
0.04
0.05
0.05
0.05
0.05
0.05
0.05
0.05
0.05
0.05
0.04
0.00
0.00
0.00
0.00
0.00
0.00
0.00
0.00
0.00
0.05
0.43
0.72
0.77
0.43
0.37
0.33
0.24
0.29
0.71
0.80
0.80
0.78
0.20
0.34
0.00
0.00
0.04
0.05
0.05
0.05
0.05
0.05
0.05
0.05
0.05
0.05
0.05
0.05
0.05
0.05
0.05
0.05
0.05
0.05
0.05
0.05
0.05
0.05
0.05
0.05
0.05
0.05
0.05
0.05
0.05
0.05
0.05
0.04
0.00
0.00
0.00
0.00
0.00
0.09
0.20
0.26
0.29
0.33
0.33
0.34
0.34
0.37
0.39
0.37
0.33
0.33
0.29
0.20
0.09
0.00
0.00
0.00
0.00
0.04
0.05
0.05
0.05
0.09
0.09
0.09
0.05
0.05
0.05
0.20
0.16
0.16
0.20
0.20
0.13
0.16
0.20
0.09
0.09
0.05
0.09
0.05
0.04
0.04
0.15
0.13
0.05
0.05
0.05
0.05
0.13
0.15
0.15
0.05
0.05
0.04
0.05
0.05
0.05
0.05
0.05
0.05
0.05
0.05
0.05
0.05
0.09
0.05
0.04
0.00
0.04
0.05
0.05
0.05
0.05
0.05
0.05
0.05
0.09
0.13
0.09
0.00
0.00
0.05
0.05
0.05
0.05
0.05
0.04
0.04
0.00
0.05
0.05
0.13
0.16
0.31
0.31
0.15
0.05
0.05
0.00
0.00
0.04
0.05
0.05
0.05
0.00
0.00
0.00
0.00
0.00
0.15
0.40
0.45
0.61
0.69
0.68
0.63
0.70
0.81
0.88
0.87
0.90
0.94
0.97
0.81
0.40
0.14
0.39
0.41
0.25
0.24
0.27
0.34
0.37
0.37
0.27
0.20
0.20
0.24
0.24
0.24
0.33
0.27
0.27
0.33
0.34
0.27
0.33
0.37
0.37
0.33
0.24
0.24
0.25
0.27
0.20
0.20
0.20
0.20
0.20
0.25
0.29
0.29
0.39
0.46
0.39
0.39
0.49
0.55
0.47
0.42
0.37
0.29
0.25
0.20
0.27
0.34
0.41
0.29
0.00
0.00
0.04
0.05
0.09
0.13
0.16
0.20
0.25
0.25
0.25
0.25
0.25
0.31
0.31
0.20
0.20
0.16
0.20
0.16
0.20
0.20
0.15
0.16
0.15
0.09
0.09
0.13
0.13
0.09
0.09
0.05
0.05
0.05
0.05
0.05
0.05
0.09
0.09
0.13
0.05
0.05
0.09
0.13
0.05
0.05
0.05
0.05
0.05
0.05
0.05
0.05
0.05
0.05
0.09
0.13
0.13
0.05
0.05
0.05
0.09
0.05
0.00
0.00
0.04
0.00
0.05
0.05
0.05
0.05
0.00
0.05
0.05
0.05
0.05
0.04
0.05
0.05
0.05
0.05
0.05
0.15
0.20
0.20
0.16
0.09
0.04
0.00
0.05
0.04
0.04
0.00
0.00
0.00
0.00
0.00
0.00
0.04
0.05
0.34
0.41
0.53
0.65
0.68
0.63
0.65
0.76
0.83
0.89
0.88
0.91
0.96
0.89
0.63
0.20
0.41
0.41
0.33
0.20
0.20
0.20
0.20
0.24
0.24
0.24
0.27
0.27
0.25
0.20
0.20
0.27
0.27
0.24
0.25
0.34
0.34
0.25
0.25
0.27
0.25
0.24
0.24
0.24
0.20
0.25
0.20
0.20
0.25
0.25
0.29
0.29
0.42
0.42
0.47
0.51
0.58
0.55
0.55
0.47
0.42
0.39
0.37
0.20
0.20
0.34
0.41
0.37
0.33
0.20
0.00
0.00
0.05
0.09
0.13
0.16
0.20
0.20
0.25
0.25
0.20
0.15
0.15
0.16
0.16
0.13
0.09
0.13
0.15
0.05
0.05
0.05
0.04
0.04
0.05
0.13
0.15
0.04
0.04
0.05
0.05
0.05
0.05
0.05
0.05
0.05
0.05
0.05
0.05
0.05
0.05
0.05
0.05
0.04
0.05
0.05
0.04
0.04
0.05
0.05
0.04
0.00
0.00
0.00
0.04
0.04
0.04
0.04
0.00
0.00
0.04
0.00
0.00
0.00
0.00
0.00
0.09
0.04
0.04
0.00
0.00
0.05
0.05
0.05
0.05
0.09
0.14
0.00
0.05
0.00
0.00
0.05
0.09
0.15
0.25
0.15
0.04
0.09
0.14
0.20
0.14
0.09
0.14
0.20
0.20
0.26
0.26
0.14
0.04
0.20
0.35
0.39
0.53
0.56
0.51
0.63
0.73
0.82
0.88
0.87
0.88
0.89
0.90
0.66
0.09
0.37
0.20
0.20
0.29
0.29
0.29
0.22
0.22
0.22
0.22
0.25
0.29
0.29
0.37
0.39
0.29
0.29
0.25
0.20
0.20
0.20
0.22
0.29
0.29
0.29
0.29
0.29
0.29
0.29
0.29
0.34
0.42
0.39
0.37
0.47
0.62
0.62
0.67
0.76
0.78
0.76
0.76
0.79
0.71
0.76
0.62
0.55
0.39
0.29
0.29
0.20
0.33
0.41
0.39
0.33
0.20
0.00
0.00
0.00
0.00
0.04
0.05
0.05
0.05
0.05
0.04
0.04
0.05
0.05
0.05
0.05
0.05
0.04
0.05
0.00
0.00
0.00
0.00
0.00
0.00
0.00
0.00
0.00
0.09
0.09
0.00
0.00
0.00
0.09
0.14
0.09
0.14
0.00
0.00
0.14
0.20
0.09
0.00
0.00
0.00
0.14
0.20
0.14
0.14
0.00
0.09
0.09
0.00
0.00
0.00
0.00
0.09
0.14
0.20
0.14
0.00
0.00
0.00
0.00
0.00
0.00
0.00
0.00
0.00
0.04
0.04
0.00
0.00
0.00
0.00
0.00
0.00
0.00
0.05
0.05
0.15
0.25
0.25
0.16
0.05
0.00
0.00
0.00
0.00
0.00
0.00
0.05
0.05
0.05
0.05
0.05
0.13
0.35
0.43
0.45
0.61
0.68
0.64
0.63
0.75
0.83
0.90
0.88
0.93
0.97
0.89
0.77
0.20
0.26
0.37
0.41
0.41
0.37
0.34
0.33
0.27
0.27
0.42
0.41
0.33
0.27
0.41
0.41
0.41
0.37
0.34
0.37
0.42
0.34
0.25
0.33
0.34
0.33
0.27
0.27
0.34
0.41
0.37
0.27
0.27
0.27
0.20
0.22
0.20
0.29
0.39
0.39
0.29
0.46
0.46
0.39
0.37
0.37
0.34
0.22
0.20
0.25
0.34
0.33
0.41
0.29
0.14
0.04
0.05
0.13
0.15
0.16
0.16
0.35
0.40
0.43
0.43
0.35
0.20
0.20
0.25
0.20
0.16
0.15
0.13
0.09
0.16
0.20
0.20
0.13
0.09
0.09
0.09
0.13
0.05
0.05
0.05
0.05
0.05
0.05
0.15
0.13
0.04
0.04
0.04
0.05
0.05
0.13
0.15
0.05
0.00
0.05
0.05
0.05
0.00
0.00
0.04
0.05
0.05
0.04
0.05
0.09
0.05
0.00
0.00
0.00
0.00
0.00
0.00
0.05
0.05
0.05
0.05
0.05
0.05
0.05
0.05
0.05
0.05
0.00
0.04
0.05
0.00
0.00
0.05
0.05
0.13
0.15
0.16
0.37
0.20
0.05
0.04
0.04
0.04
0.00
0.00
0.00
0.04
0.05
0.04
0.09
0.14
0.04
0.31
0.41
0.46
0.63
0.66
0.65
0.64
0.71
0.81
0.87
0.87
0.90
0.93
0.88
0.81
0.34
0.26
0.41
0.27
0.25
0.25
0.27
0.20
0.20
0.20
0.20
0.25
0.20
0.20
0.25
0.34
0.33
0.24
0.25
0.25
0.25
0.20
0.24
0.20
0.20
0.20
0.20
0.25
0.27
0.25
0.20
0.20
0.24
0.27
0.22
0.42
0.49
0.47
0.51
0.67
0.55
0.42
0.51
0.58
0.55
0.46
0.39
0.20
0.20
0.34
0.20
0.34
0.37
0.37
0.33
0.00
0.04
0.05
0.09
0.20
0.20
0.20
0.25
0.20
0.20
0.15
0.13
0.15
0.16
0.20
0.20
0.13
0.13
0.13
0.09
0.05
0.05
0.13
0.09
0.05
0.04
0.04
0.05
0.05
0.05
0.05
0.05
0.05
0.05
0.05
0.05
0.04
0.04
0.04
0.04
0.04
0.05
0.05
0.05
0.05
0.00
0.14
0.00
0.05
0.00
0.04
0.05
0.00
0.00
0.05
0.04
0.00
0.00
0.00
0.00
0.00
0.04
0.00
0.00
0.04
0.04
0.05
0.04
0.04
0.04
0.00
0.00
0.04
0.14
0.20
0.09
0.04
0.04
0.05
0.05
0.09
0.16
0.20
0.20
0.05
0.09
0.26
0.29
0.20
0.09
0.00
0.00
0.09
0.14
0.20
0.14
0.05
0.20
0.31
0.40
0.61
0.65
0.59
0.61
0.73
0.82
0.88
0.87
0.90
0.92
0.87
0.73
0.04
0.37
0.37
0.24
0.20
0.20
0.20
0.20
0.20
0.20
0.20
0.20
0.24
0.24
0.24
0.20
0.20
0.27
0.24
0.20
0.34
0.24
0.20
0.24
0.24
0.20
0.20
0.20
0.20
0.20
0.20
0.24
0.20
0.20
0.22
0.34
0.39
0.34
0.29
0.34
0.34
0.46
0.55
0.62
0.67
0.55
0.42
0.39
0.29
0.20
0.27
0.37
0.34
0.29
0.09
0.00
0.04
0.04
0.04
0.15
0.35
0.20
0.20
0.20
0.20
0.20
0.20
0.20
0.35
0.31
0.15
0.05
0.05
0.05
0.05
0.09
0.13
0.05
0.09
0.09
0.05
0.09
0.16
0.05
0.04
0.04
0.00
0.00
0.04
0.04
0.05
0.00
0.00
0.04
0.05
0.05
0.05
0.09
0.09
0.04
0.00
0.00
0.00
0.00
0.00
0.00
0.04
0.04
0.00
0.00
0.00
0.00
0.00
0.09
0.00
0.00
0.04
0.00
0.00
0.09
0.09
0.00
0.09
0.14
0.09
0.00
0.00
0.14
0.00
0.09
0.20
0.14
0.09
0.00
0.00
0.15
0.13
0.04
0.09
0.29
0.37
0.29
0.20
0.14
0.14
0.20
0.20
0.20
0.34
0.33
0.14
0.15
0.34
0.20
0.35
0.48
0.48
0.46
0.66
0.78
0.84
0.89
0.88
0.89
0.88
0.82
0.43
0.39
0.24
0.22
0.25
0.25
0.25
0.22
0.20
0.20
0.20
0.25
0.29
0.20
0.29
0.20
0.20
0.22
0.24
0.20
0.29
0.29
0.22
0.22
0.29
0.29
0.29
0.29
0.25
0.29
0.22
0.20
0.25
0.29
0.37
0.47
0.55
0.58
0.62
0.62
0.70
0.78
0.79
0.76
0.71
0.58
0.51
0.55
0.51
0.47
0.34
0.20
0.27
0.34
0.41
0.20
0.09
0.00
0.05
0.05
0.05
0.04
0.09
0.09
0.09
0.15
0.09
0.05
0.05
0.15
0.05
0.04
0.04
0.04
0.05
0.05
0.04
0.00
0.04
0.04
0.00
0.04
0.05
0.05
0.00
0.00
0.05
0.05
0.04
0.05
0.05
0.05
0.00
0.04
0.00
0.00
0.00
0.05
0.05
0.04
0.04
0.00
0.05
0.05
0.05
0.05
0.05
0.05
0.04
0.04
0.05
0.05
0.05
0.04
0.00
0.00
0.05
0.09
0.05
0.05
0.05
0.05
0.05
0.04
0.05
0.05
0.05
0.05
0.00
0.04
0.05
0.05
0.05
0.15
0.09
0.15
0.16
0.25
0.20
0.05
0.05
0.05
0.00
0.00
0.05
0.05
0.00
0.05
0.05
0.04
0.00
0.00
0.15
0.39
0.43
0.53
0.65
0.66
0.64
0.68
0.78
0.83
0.88
0.89
0.95
0.92
0.88
0.66
0.05
0.41
0.37
0.33
0.24
0.27
0.34
0.33
0.24
0.25
0.34
0.27
0.27
0.37
0.25
0.27
0.33
0.34
0.27
0.20
0.25
0.25
0.27
0.27
0.20
0.27
0.25
0.33
0.25
0.20
0.20
0.20
0.25
0.22
0.29
0.39
0.46
0.42
0.42
0.49
0.58
0.55
0.47
0.49
0.51
0.39
0.34
0.29
0.20
0.24
0.27
0.41
0.34
0.20
0.00
0.05
0.05
0.05
0.05
0.16
0.16
0.31
0.31
0.25
0.16
0.20
0.20
0.20
0.25
0.16
0.15
0.15
0.15
0.15
0.05
0.05
0.13
0.09
0.05
0.05
0.05
0.05
0.05
0.05
0.05
0.00
0.05
0.09
0.05
0.05
0.04
0.04
0.05
0.05
0.00
0.04
0.05
0.05
0.05
0.05
0.05
0.00
0.00
0.00
0.00
0.05
0.00
0.04
0.05
0.00
0.00
0.00
0.05
0.05
0.09
0.00
0.00
0.00
0.00
0.04
0.05
0.04
0.04
0.05
0.00
0.09
0.09
0.00
0.00
0.00
0.00
0.04
0.00
0.00
0.04
0.05
0.13
0.15
0.20
0.15
0.05
0.00
0.00
0.00
0.00
0.09
0.09
0.14
0.14
0.09
0.09
0.14
0.04
0.35
0.35
0.43
0.63
0.68
0.63
0.64
0.75
0.82
0.89
0.87
0.88
0.92
0.88
0.70
0.05
0.41
0.33
0.25
0.20
0.20
0.20
0.20
0.24
0.20
0.20
0.25
0.20
0.20
0.20
0.20
0.20
0.25
0.27
0.37
0.24
0.20
0.20
0.20
0.24
0.24
0.20
0.20
0.20
0.20
0.20
0.20
0.20
0.20
0.25
0.34
0.39
0.42
0.47
0.55
0.62
0.62
0.62
0.58
0.55
0.47
0.34
0.29
0.29
0.22
0.20
0.34
0.41
0.33
0.09
0.00
0.00
0.05
0.15
0.15
0.16
0.20
0.20
0.25
0.31
0.31
0.25
0.20
0.16
0.15
0.13
0.13
0.13
0.05
0.05
0.05
0.05
0.05
0.05
0.05
0.05
0.05
0.05
0.05
0.05
0.05
0.04
0.04
0.04
0.00
0.09
0.00
0.00
0.00
0.00
0.05
0.05
0.00
0.00
0.00
0.04
0.00
0.00
0.00
0.00
0.00
0.00
0.04
0.04
0.14
0.00
0.00
0.00
0.00
0.04
0.04
0.00
0.00
0.00
0.05
0.05
0.05
0.04
0.09
0.20
0.09
0.00
0.00
0.00
0.00
0.00
0.00
0.04
0.00
0.04
0.05
0.13
0.20
0.20
0.05
0.00
0.14
0.14
0.20
0.00
0.00
0.00
0.00
0.09
0.09
0.20
0.14
0.05
0.43
0.35
0.56
0.68
0.68
0.56
0.66
0.78
0.84
0.88
0.88
0.91
0.89
0.84
0.48
0.14
0.39
0.37
0.20
0.20
0.24
0.24
0.20
0.20
0.20
0.24
0.24
0.20
0.24
0.24
0.20
0.20
0.25
0.25
0.27
0.33
0.37
0.37
0.25
0.24
0.24
0.20
0.20
0.20
0.20
0.20
0.20
0.25
0.20
0.22
0.29
0.29
0.37
0.47
0.55
0.62
0.67
0.67
0.49
0.39
0.39
0.37
0.25
0.20
0.20
0.25
0.41
0.33
0.26
0.14
0.00
0.00
0.05
0.16
0.20
0.25
0.25
0.25
0.31
0.25
0.16
0.20
0.16
0.16
0.16
0.13
0.09
0.05
0.05
0.05
0.05
0.05
0.05
0.05
0.05
0.05
0.05
0.00
0.04
0.05
0.05
0.05
0.04
0.00
0.00
0.00
0.00
0.00
0.00
0.00
0.00
0.09
0.09
0.00
0.00
0.00
0.09
0.00
0.09
0.14
0.20
0.14
0.00
0.20
0.20
0.29
0.14
0.14
0.00
0.00
0.00
0.14
0.00
0.09
0.09
0.09
0.14
0.00
0.09
0.14
0.20
0.20
0.26
0.20
0.20
0.20
0.20
0.14
0.14
0.09
0.00
0.04
0.05
0.05
0.09
0.33
0.37
0.37
0.34
0.29
0.20
0.20
0.26
0.34
0.26
0.26
0.29
0.26
0.09
0.15
0.31
0.51
0.51
0.43
0.51
0.73
0.81
0.88
0.88
0.88
0.92
0.88
0.64
0.26
0.33
0.20
0.25
0.29
0.29
0.29
0.29
0.25
0.25
0.25
0.34
0.37
0.34
0.29
0.29
0.29
0.22
0.22
0.29
0.22
0.20
0.20
0.22
0.20
0.22
0.20
0.29
0.34
0.37
0.37
0.37
0.37
0.39
0.39
0.29
0.51
0.62
0.55
0.62
0.71
0.76
0.76
0.76
0.76
0.67
0.51
0.42
0.34
0.29
0.34
0.20
0.27
0.41
0.33
0.14
0.00
0.04
0.04
0.05
0.05
0.13
0.16
0.16
0.13
0.13
0.13
0.16
0.13
0.15
0.13
0.09
0.15
0.13
0.15
0.15
0.05
0.05
0.05
0.15
0.05
0.05
0.05
0.05
0.05
0.05
0.09
0.15
0.09
0.04
0.04
0.05
0.05
0.05
0.05
0.05
0.09
0.05
0.13
0.09
0.05
0.05
0.05
0.05
0.05
0.05
0.05
0.05
0.05
0.05
0.05
0.05
0.05
0.05
0.09
0.00
0.05
0.05
0.05
0.05
0.05
0.05
0.05
0.05
0.05
0.05
0.04
0.05
0.05
0.04
0.05
0.05
0.05
0.05
0.05
0.09
0.20
0.25
0.15
0.05
0.00
0.00
0.14
0.14
0.00
0.00
0.14
0.14
0.09
0.14
0.20
0.14
0.04
0.35
0.35
0.35
0.58
0.63
0.58
0.58
0.73
0.81
0.88
0.87
0.90
0.97
0.87
0.75
0.16
0.37
0.33
0.20
0.20
0.20
0.20
0.20
0.24
0.24
0.20
0.20
0.20
0.20
0.25
0.27
0.25
0.24
0.27
0.20
0.20
0.20
0.20
0.27
0.20
0.20
0.24
0.27
0.24
0.27
0.24
0.20
0.29
0.25
0.29
0.29
0.29
0.39
0.39
0.46
0.55
0.55
0.58
0.62
0.55
0.55
0.49
0.42
0.29
0.20
0.25
0.34
0.42
0.34
0.14
0.04
0.05
0.05
0.13
0.20
0.25
0.20
0.20
0.20
0.16
0.20
0.16
0.16
0.16
0.15
0.13
0.05
0.09
0.09
0.05
0.13
0.15
0.05
0.05
0.05
0.05
0.09
0.05
0.05
0.05
0.05
0.00
0.00
0.05
0.05
0.04
0.00
0.00
0.04
0.04
0.05
0.05
0.04
0.09
0.00
0.00
0.04
0.05
0.00
0.00
0.00
0.00
0.00
0.00
0.00
0.05
0.04
0.05
0.00
0.00
0.00
0.00
0.00
0.00
0.00
0.00
0.04
0.00
0.05
0.05
0.04
0.00
0.00
0.00
0.00
0.00
0.05
0.13
0.16
0.16
0.13
0.04
0.00
0.00
0.00
0.00
0.00
0.00
0.00
0.00
0.09
0.09
0.14
0.26
0.00
0.20
0.35
0.45
0.65
0.68
0.58
0.66
0.76
0.83
0.89
0.89
0.93
0.97
0.87
0.48
0.26
0.42
0.33
0.20
0.20
0.20
0.24
0.20
0.20
0.20
0.20
0.20
0.20
0.20
0.20
0.20
0.20
0.24
0.25
0.24
0.24
0.25
0.24
0.20
0.20
0.24
0.25
0.25
0.24
0.20
0.20
0.20
0.25
0.29
0.29
0.37
0.37
0.37
0.46
0.47
0.62
0.67
0.55
0.58
0.49
0.42
0.37
0.37
0.29
0.20
0.25
0.41
0.39
0.29
0.14
0.00
0.04
0.09
0.15
0.15
0.20
0.31
0.35
0.34
0.20
0.16
0.15
0.16
0.16
0.16
0.15
0.15
0.15
0.15
0.15
0.15
0.09
0.05
0.05
0.05
0.09
0.05
0.05
0.05
0.04
0.05
0.05
0.05
0.05
0.05
0.09
0.05
0.00
0.04
0.05
0.05
0.05
0.00
0.04
0.04
0.04
0.05
0.05
0.00
0.00
0.04
0.05
0.05
0.00
0.00
0.00
0.05
0.05
0.05
0.00
0.00
0.00
0.00
0.00
0.00
0.04
0.00
0.05
0.00
0.00
0.00
0.00
0.00
0.00
0.00
0.00
0.04
0.05
0.05
0.15
0.16
0.13
0.05
0.00
0.00
0.00
0.00
0.09
0.09
0.09
0.14
0.09
0.00
0.14
0.14
0.00
0.16
0.34
0.43
0.63
0.66
0.63
0.63
0.73
0.82
0.88
0.89
0.90
0.96
0.89
0.66
0.00
0.41
0.33
0.20
0.20
0.20
0.20
0.20
0.20
0.20
0.20
0.20
0.22
0.20
0.20
0.20
0.24
0.24
0.24
0.24
0.25
0.24
0.24
0.20
0.20
0.25
0.25
0.20
0.25
0.24
0.20
0.20
0.20
0.20
0.29
0.29
0.39
0.46
0.55
0.51
0.62
0.62
0.62
0.51
0.58
0.55
0.47
0.29
0.22
0.20
0.24
0.37
0.41
0.37
0.29
0.14
0.00
0.04
0.05
0.05
0.09
0.05
0.05
0.09
0.15
0.13
0.15
0.09
0.05
0.05
0.05
0.05
0.05
0.04
0.00
0.00
0.00
0.00
0.00
0.00
0.00
0.09
0.09
0.14
0.14
0.14
0.00
0.00
0.00
0.09
0.14
0.26
0.29
0.20
0.26
0.26
0.20
0.00
0.14
0.29
0.26
0.20
0.20
0.20
0.26
0.26
0.20
0.20
0.26
0.14
0.09
0.26
0.37
0.39
0.33
0.29
0.34
0.26
0.26
0.33
0.29
0.20
0.20
0.33
0.29
0.26
0.29
0.34
0.37
0.37
0.37
0.33
0.29
0.34
0.33
0.20
0.00
0.00
0.00
0.00
0.09
0.29
0.29
0.29
0.37
0.37
0.37
0.34
0.33
0.34
0.33
0.33
0.37
0.26
0.05
0.15
0.16
0.35
0.51
0.51
0.51
0.68
0.81
0.87
0.87
0.88
0.90
0.88
0.69
0.09
0.37
0.20
0.29
0.29
0.25
0.20
0.20
0.37
0.29
0.29
0.22
0.29
0.34
0.29
0.25
0.25
0.20
0.20
0.20
0.20
0.22
0.22
0.22
0.25
0.25
0.20
0.22
0.29
0.20
0.20
0.25
0.29
0.22
0.37
0.42
0.55
0.70
0.62
0.62
0.62
0.62
0.55
0.67
0.70
0.67
0.46
0.39
0.29
0.22
0.20
0.37
0.42
0.34
0.29
0.09
0.00
0.04
0.05
0.15
0.16
0.20
0.31
0.34
0.34
0.20
0.16
0.16
0.20
0.20
0.16
0.20
0.16
0.05
0.05
0.13
0.15
0.09
0.05
0.05
0.13
0.09
0.05
0.05
0.15
0.05
0.05
0.04
0.04
0.00
0.05
0.05
0.05
0.05
0.05
0.15
0.13
0.05
0.05
0.05
0.00
0.00
0.05
0.05
0.05
0.05
0.04
0.04
0.05
0.05
0.05
0.05
0.04
0.00
0.04
0.00
0.00
0.05
0.05
0.05
0.04
0.05
0.05
0.05
0.05
0.00
0.04
0.05
0.05
0.00
0.00
0.00
0.04
0.04
0.05
0.05
0.09
0.20
0.25
0.20
0.09
0.05
0.05
0.04
0.00
0.00
0.00
0.04
0.00
0.00
0.04
0.00
0.04
0.16
0.40
0.46
0.63
0.68
0.65
0.63
0.71
0.81
0.87
0.88
0.89
0.90
0.90
0.81
0.31
0.37
0.40
0.41
0.37
0.27
0.25
0.24
0.24
0.20
0.20
0.25
0.20
0.20
0.20
0.20
0.27
0.25
0.34
0.37
0.27
0.25
0.25
0.24
0.20
0.24
0.33
0.27
0.20
0.24
0.33
0.27
0.20
0.20
0.22
0.29
0.39
0.37
0.42
0.47
0.55
0.47
0.58
0.42
0.58
0.51
0.29
0.29
0.29
0.25
0.20
0.33
0.39
0.37
0.26
0.14
0.00
0.05
0.15
0.15
0.16
0.20
0.25
0.34
0.25
0.20
0.20
0.16
0.16
0.16
0.20
0.20
0.09
0.09
0.05
0.05
0.09
0.05
0.00
0.05
0.05
0.05
0.15
0.09
0.04
0.05
0.05
0.05
0.05
0.00
0.00
0.00
0.05
0.05
0.00
0.14
0.00
0.00
0.00
0.04
0.05
0.04
0.00
0.00
0.00
0.04
0.00
0.00
0.00
0.04
0.04
0.00
0.04
0.05
0.04
0.00
0.00
0.00
0.00
0.00
0.04
0.05
0.04
0.14
0.09
0.00
0.00
0.04
0.00
0.00
0.00
0.00
0.00
0.00
0.00
0.05
0.20
0.20
0.09
0.05
0.00
0.14
0.14
0.00
0.00
0.00
0.14
0.14
0.09
0.00
0.00
0.04
0.34
0.41
0.35
0.50
0.66
0.65
0.56
0.68
0.81
0.87
0.87
0.90
0.89
0.88
0.81
0.15
0.33
0.41
0.34
0.24
0.22
0.22
0.20
0.37
0.25
0.20
0.22
0.20
0.27
0.20
0.20
0.20
0.20
0.20
0.20
0.20
0.20
0.24
0.25
0.20
0.20
0.20
0.20
0.24
0.20
0.20
0.20
0.25
0.29
0.29
0.29
0.37
0.39
0.46
0.62
0.62
0.67
0.55
0.55
0.67
0.62
0.37
0.37
0.34
0.25
0.25
0.27
0.34
0.40
0.29
0.00
0.00
0.04
0.13
0.15
0.20
0.20
0.20
0.20
0.20
0.15
0.15
0.16
0.15
0.13
0.09
0.05
0.09
0.05
0.05
0.05
0.05
0.05
0.04
0.05
0.05
0.05
0.00
0.00
0.00
0.04
0.04
0.04
0.00
0.00
0.00
0.00
0.04
0.00
0.09
0.00
0.05
0.00
0.09
0.14
0.04
0.00
0.14
0.00
0.00
0.09
0.14
0.00
0.00
0.09
0.00
0.00
0.00
0.00
0.14
0.14
0.00
0.04
0.20
0.26
0.20
0.14
0.09
0.09
0.09
0.14
0.14
0.14
0.00
0.00
0.20
0.14
0.00
0.00
0.04
0.05
0.15
0.15
0.05
0.00
0.00
0.00
0.14
0.20
0.26
0.20
0.29
0.29
0.20
0.14
0.14
0.04
0.25
0.35
0.39
0.59
0.64
0.63
0.63
0.73
0.82
0.89
0.87
0.89
0.92
0.88
0.68
0.09
0.41
0.34
0.20
0.20
0.20
0.24
0.20
0.20
0.20
0.20
0.20
0.20
0.29
0.25
0.20
0.20
0.20
0.24
0.20
0.20
0.20
0.20
0.20
0.22
0.22
0.20
0.20
0.25
0.22
0.20
0.25
0.34
0.42
0.49
0.51
0.47
0.58
0.78
0.76
0.71
0.71
0.76
0.79
0.76
0.71
0.58
0.58
0.46
0.37
0.34
0.24
0.41
0.40
0.33
0.33
0.00
0.00
0.05
0.05
0.05
0.13
0.15
0.15
0.09
0.09
0.04
0.00
0.04
0.04
0.00
0.14
0.20
0.09
0.00
0.00
0.00
0.00
0.04
0.00
0.00
0.00
0.00
0.00
0.00
0.09
0.00
0.00
0.14
0.09
0.00
0.00
0.00
0.00
0.00
0.00
0.00
0.00
0.00
0.00
0.00
0.14
0.14
0.00
0.00
0.14
0.14
0.00
0.00
0.00
0.09
0.09
0.09
0.14
0.09
0.09
0.14
0.14
0.14
0.09
0.04
0.05
0.00
0.09
0.00
0.00
0.00
0.00
0.00
0.00
0.00
0.14
0.00
0.04
0.05
0.05
0.05
0.04
0.00
0.00
0.09
0.00
0.09
0.00
0.00
0.09
0.09
0.00
0.20
0.26
0.00
0.20
0.20
0.34
0.48
0.58
0.48
0.50
0.69
0.81
0.87
0.87
0.88
0.90
0.88
0.75
0.13
0.37
0.24
0.29
0.29
0.22
0.20
0.20
0.20
0.29
0.20
0.20
0.20
0.20
0.24
0.20
0.24
0.24
0.20
0.24
0.24
0.34
0.34
0.34
0.33
0.25
0.20
0.34
0.33
0.27
0.24
0.20
0.24
0.20
0.20
0.20
0.20
0.25
0.25
0.29
0.22
0.20
0.29
0.37
0.25
0.20
0.20
0.24
0.24
0.37
0.41
0.37
0.34
0.00
0.13
0.13
0.16
0.20
0.25
0.41
0.48
0.50
0.45
0.46
0.48
0.50
0.43
0.46
0.48
0.43
0.35
0.39
0.37
0.25
0.20
0.31
0.20
0.20
0.20
0.20
0.15
0.13
0.16
0.20
0.15
0.09
0.05
0.05
0.15
0.15
0.05
0.15
0.16
0.15
0.05
0.15
0.15
0.20
0.13
0.05
0.05
0.00
0.05
0.09
0.09
0.09
0.13
0.15
0.05
0.05
0.05
0.04
0.09
0.13
0.13
0.15
0.05
0.04
0.05
0.05
0.05
0.04
0.05
0.09
0.13
0.05
0.04
0.04
0.05
0.05
0.04
0.05
0.09
0.05
0.15
0.15
0.20
0.20
0.05
0.00
0.00
0.00
0.05
0.00
0.00
0.00
0.00
0.00
0.00
0.00
0.05
0.35
0.39
0.43
0.58
0.66
0.66
0.63
0.72
0.81
0.87
0.87
0.88
0.97
0.88
0.81
0.41
0.26
0.41
0.41
0.41
0.27
0.20
0.20
0.20
0.24
0.27
0.27
0.20
0.24
0.24
0.20
0.24
0.34
0.27
0.27
0.20
0.27
0.41
0.27
0.27
0.27
0.24
0.24
0.24
0.24
0.24
0.25
0.25
0.20
0.29
0.37
0.34
0.34
0.42
0.51
0.58
0.58
0.55
0.51
0.55
0.55
0.47
0.39
0.29
0.20
0.20
0.33
0.41
0.26
0.00
0.00
0.09
0.04
0.09
0.09
0.20
0.35
0.37
0.34
0.20
0.25
0.16
0.16
0.16
0.16
0.15
0.15
0.15
0.15
0.16
0.16
0.13
0.05
0.05
0.05
0.05
0.13
0.13
0.09
0.09
0.05
0.04
0.05
0.13
0.05
0.04
0.00
0.00
0.05
0.05
0.05
0.05
0.00
0.00
0.05
0.05
0.05
0.05
0.05
0.00
0.00
0.05
0.05
0.05
0.05
0.00
0.00
0.04
0.04
0.04
0.05
0.05
0.00
0.00
0.00
0.00
0.05
0.04
0.05
0.05
0.05
0.05
0.04
0.00
0.00
0.05
0.05
0.05
0.05
0.09
0.16
0.15
0.05
0.05
0.05
0.00
0.00
0.00
0.05
0.04
0.05
0.05
0.00
0.09
0.09
0.09
0.15
0.43
0.45
0.56
0.66
0.63
0.56
0.71
0.81
0.87
0.88
0.88
0.94
0.88
0.83
0.43
0.29
0.41
0.34
0.20
0.20
0.24
0.33
0.33
0.24
0.20
0.20
0.20
0.20
0.24
0.25
0.34
0.24
0.24
0.20
0.20
0.20
0.24
0.20
0.20
0.24
0.27
0.24
0.20
0.20
0.25
0.20
0.29
0.25
0.25
0.29
0.22
0.29
0.39
0.55
0.62
0.62
0.62
0.62
0.55
0.55
0.55
0.47
0.34
0.20
0.24
0.34
0.37
0.42
0.33
0.09
0.00
0.04
0.09
0.20
0.20
0.20
0.20
0.16
0.20
0.20
0.16
0.20
0.20
0.15
0.13
0.20
0.15
0.15
0.05
0.13
0.05
0.05
0.00
0.00
0.05
0.05
0.05
0.05
0.05
0.09
0.13
0.05
0.05
0.00
0.04
0.05
0.00
0.09
0.09
0.00
0.00
0.04
0.05
0.00
0.05
0.05
0.04
0.05
0.05
0.05
0.00
0.00
0.00
0.04
0.04
0.04
0.00
0.00
0.00
0.00
0.00
0.00
0.05
0.05
0.00
0.05
0.05
0.04
0.00
0.04
0.05
0.04
0.00
0.04
0.04
0.00
0.00
0.05
0.15
0.15
0.13
0.09
0.04
0.00
0.00
0.04
0.00
0.00
0.00
0.00
0.00
0.14
0.09
0.00
0.14
0.05
0.34
0.31
0.53
0.68
0.65
0.48
0.64
0.78
0.84
0.89
0.88
0.89
0.88
0.83
0.43
0.34
0.37
0.25
0.24
0.20
0.22
0.20
0.22
0.20
0.20
0.20
0.29
0.25
0.20
0.20
0.20
0.20
0.20
0.20
0.20
0.29
0.29
0.20
0.20
0.22
0.22
0.22
0.29
0.34
0.29
0.29
0.25
0.29
0.46
0.42
0.46
0.58
0.55
0.55
0.70
0.71
0.71
0.76
0.76
0.71
0.67
0.62
0.51
0.42
0.29
0.24
0.34
0.41
0.37
0.26
0.20
0.09
0.00
0.00
0.00
0.05
0.05
0.05
0.05
0.05
0.05
0.05
0.05
0.05
0.05
0.05
0.00
0.00
0.00
0.05
0.00
0.00
0.04
0.00
0.00
0.00
0.00
0.14
0.00
0.05
0.04
0.00
0.09
0.09
0.00
0.09
0.09
0.00
0.09
0.14
0.14
0.20
0.09
0.00
0.00
0.00
0.14
0.14
0.14
0.00
0.00
0.14
0.00
0.09
0.29
0.26
0.14
0.00
0.00
0.00
0.00
0.00
0.00
0.00
0.00
0.00
0.00
0.00
0.00
0.00
0.00
0.00
0.00
0.00
0.00
0.00
0.00
0.00
0.00
0.00
0.00
0.05
0.05
0.05
0.00
0.14
0.14
0.09
0.00
0.00
0.00
0.00
0.00
0.00
0.00
0.00
0.00
0.20
0.46
0.31
0.39
0.63
0.63
0.53
0.68
0.81
0.88
0.88
0.88
0.94
0.88
0.81
0.43
0.20
0.39
0.41
0.37
0.33
0.27
0.27
0.27
0.34
0.33
0.27
0.27
0.33
0.34
0.27
0.27
0.37
0.41
0.41
0.42
0.34
0.37
0.41
0.41
0.37
0.40
0.41
0.25
0.27
0.27
0.27
0.25
0.24
0.20
0.20
0.20
0.20
0.22
0.29
0.37
0.37
0.37
0.29
0.34
0.37
0.25
0.20
0.20
0.24
0.37
0.37
0.26
0.00
0.05
0.13
0.15
0.15
0.20
0.35
0.41
0.43
0.39
0.37
0.34
0.31
0.31
0.37
0.31
0.25
0.20
0.20
0.20
0.20
0.20
0.20
0.20
0.20
0.13
0.15
0.13
0.09
0.05
0.13
0.15
0.09
0.05
0.09
0.13
0.09
0.09
0.05
0.05
0.13
0.16
0.13
0.09
0.05
0.05
0.05
0.05
0.05
0.05
0.05
0.05
0.05
0.05
0.05
0.05
0.05
0.13
0.05
0.05
0.05
0.05
0.05
0.05
0.05
0.04
0.00
0.09
0.05
0.05
0.05
0.05
0.09
0.05
0.05
0.05
0.05
0.05
0.04
0.04
0.05
0.05
0.16
0.20
0.25
0.20
0.09
0.05
0.05
0.05
0.05
0.00
0.00
0.04
0.00
0.00
0.00
0.00
0.00
0.16
0.48
0.45
0.58
0.69
0.68
0.59
0.66
0.81
0.87
0.87
0.90
0.90
0.93
0.83
0.43
0.26
0.41
0.34
0.27
0.27
0.33
0.27
0.27
0.25
0.20
0.20
0.24
0.25
0.24
0.25
0.27
0.25
0.33
0.34
0.27
0.33
0.33
0.33
0.34
0.27
0.33
0.37
0.37
0.27
0.24
0.20
0.20
0.20
0.20
0.22
0.29
0.29
0.34
0.37
0.39
0.46
0.55
0.46
0.39
0.39
0.47
0.37
0.29
0.20
0.24
0.37
0.40
0.29
0.09
0.00
0.00
0.04
0.05
0.09
0.15
0.20
0.25
0.31
0.31
0.25
0.20
0.20
0.20
0.16
0.16
0.15
0.13
0.13
0.05
0.05
0.05
0.09
0.05
0.05
0.09
0.09
0.09
0.05
0.04
0.05
0.05
0.05
0.05
0.09
0.05
0.05
0.05
0.05
0.05
0.05
0.04
0.04
0.05
0.05
0.05
0.00
0.04
0.05
0.05
0.04
0.00
0.05
0.05
0.05
0.00
0.00
0.05
0.05
0.05
0.04
0.00
0.00
0.00
0.00
0.05
0.00
0.00
0.00
0.04
0.05
0.05
0.04
0.05
0.00
0.00
0.00
0.00
0.04
0.05
0.13
0.20
0.20
0.05
0.00
0.00
0.00
0.00
0.00
0.00
0.00
0.09
0.14
0.14
0.20
0.14
0.04
0.20
0.35
0.45
0.63
0.66
0.65
0.61
0.73
0.81
0.87
0.87
0.89
0.93
0.87
0.73
0.09
0.37
0.37
0.25
0.20
0.20
0.20
0.24
0.20
0.20
0.20
0.20
0.20
0.20
0.20
0.20
0.25
0.25
0.25
0.25
0.27
0.27
0.27
0.25
0.20
0.20
0.20
0.24
0.27
0.20
0.20
0.20
0.20
0.20
0.24
0.25
0.29
0.47
0.47
0.47
0.49
0.55
0.58
0.62
0.47
0.42
0.29
0.29
0.22
0.20
0.27
0.34
0.42
0.33
0.14
0.00
0.00
0.05
0.05
0.13
0.16
0.20
0.25
0.31
0.25
0.20
0.20
0.16
0.16
0.16
0.16
0.16
0.16
0.16
0.15
0.09
0.09
0.13
0.05
0.05
0.05
0.04
0.05
0.05
0.05
0.05
0.05
0.05
0.05
0.05
0.05
0.05
0.05
0.09
0.05
0.05
0.00
0.00
0.05
0.04
0.00
0.00
0.00
0.00
0.00
0.00
0.04
0.05
0.04
0.04
0.05
0.05
0.05
0.05
0.00
0.00
0.00
0.00
0.00
0.00
0.00
0.00
0.00
0.04
0.04
0.00
0.00
0.00
0.00
0.00
0.00
0.00
0.00
0.00
0.05
0.15
0.16
0.13
0.05
0.00
0.14
0.20
0.26
0.20
0.20
0.20
0.20
0.20
0.20
0.20
0.20
0.09
0.05
0.20
0.34
0.48
0.63
0.58
0.43
0.64
0.79
0.84
0.89
0.88
0.88
0.88
0.77
0.15
0.42
0.20
0.20
0.29
0.29
0.25
0.25
0.29
0.34
0.29
0.29
0.29
0.29
0.25
0.22
0.22
0.29
0.25
0.25
0.25
0.25
0.25
0.25
0.29
0.29
0.29
0.25
0.29
0.34
0.29
0.34
0.42
0.46
0.55
0.62
0.67
0.62
0.62
0.76
0.79
0.79
0.79
0.79
0.78
0.71
0.71
0.70
0.51
0.47
0.37
0.20
0.27
0.27
0.41
0.39
0.33
0.14
0.00
0.04
0.05
0.05
0.05
0.05
0.09
0.05
0.05
0.05
0.05
0.00
0.00
0.04
0.04
0.04
0.00
0.00
0.00
0.00
0.00
0.00
0.00
0.00
0.00
0.00
0.00
0.00
0.00
0.00
0.14
0.20
0.00
0.09
0.14
0.00
0.00
0.09
0.00
0.00
0.00
0.09
0.20
0.20
0.09
0.00
0.00
0.00
0.00
0.00
0.00
0.14
0.14
0.09
0.00
0.09
0.00
0.00
0.00
0.00
0.00
0.00
0.05
0.00
0.00
0.00
0.00
0.00
0.00
0.05
0.05
0.05
0.05
0.05
0.05
0.05
0.05
0.05
0.09
0.25
0.31
0.31
0.15
0.05
0.00
0.00
0.00
0.04
0.04
0.04
0.05
0.05
0.05
0.05
0.04
0.16
0.41
0.45
0.53
0.66
0.68
0.64
0.68
0.78
0.84
0.87
0.89
0.95
0.98
0.87
0.58
0.00
0.29
0.41
0.41
0.42
0.37
0.34
0.41
0.41
0.41
0.41
0.41
0.37
0.42
0.37
0.40
0.41
0.41
0.41
0.42
0.41
0.40
0.40
0.41
0.41
0.41
0.41
0.42
0.41
0.42
0.34
0.34
0.27
0.27
0.24
0.20
0.20
0.20
0.20
0.29
0.34
0.29
0.39
0.34
0.22
0.20
0.29
0.20
0.34
0.41
0.41
0.37
0.26
0.09
0.04
0.05
0.13
0.15
0.20
0.39
0.41
0.43
0.43
0.39
0.35
0.39
0.41
0.40
0.37
0.37
0.31
0.25
0.20
0.16
0.16
0.16
0.16
0.15
0.13
0.13
0.16
0.16
0.15
0.13
0.13
0.13
0.16
0.15
0.13
0.05
0.05
0.05
0.09
0.05
0.05
0.13
0.05
0.05
0.05
0.05
0.05
0.05
0.05
0.05
0.04
0.04
0.04
0.05
0.05
0.05
0.04
0.04
0.04
0.05
0.05
0.05
0.05
0.05
0.05
0.04
0.00
0.04
0.05
0.05
0.00
0.00
0.00
0.00
0.05
0.05
0.04
0.05
0.05
0.16
0.20
0.25
0.15
0.05
0.00
0.00
0.05
0.05
0.05
0.00
0.09
0.09
0.00
0.00
0.14
0.00
0.25
0.40
0.40
0.53
0.65
0.64
0.63
0.72
0.81
0.87
0.87
0.88
0.90
0.88
0.81
0.34
0.39
0.34
0.27
0.20
0.20
0.24
0.24
0.20
0.20
0.20
0.20
0.20
0.20
0.24
0.25
0.24
0.20
0.25
0.27
0.24
0.20
0.20
0.24
0.20
0.20
0.20
0.20
0.24
0.24
0.20
0.20
0.20
0.20
0.29
0.34
0.34
0.42
0.46
0.55
0.62
0.58
0.55
0.67
0.62
0.58
0.39
0.29
0.29
0.22
0.20
0.37
0.41
0.37
0.20
0.20
0.00
0.05
0.05
0.15
0.20
0.25
0.20
0.20
0.20
0.20
0.16
0.16
0.20
0.16
0.13
0.13
0.13
0.15
0.15
0.09
0.05
0.09
0.09
0.05
0.05
0.05
0.05
0.05
0.00
0.00
0.00
0.05
0.05
0.00
0.00
0.05
0.04
0.04
0.05
0.04
0.05
0.00
0.04
0.05
0.00
0.00
0.00
0.00
0.00
0.00
0.00
0.00
0.05
0.05
0.00
0.00
0.00
0.00
0.00
0.00
0.00
0.00
0.00
0.00
0.00
0.00
0.00
0.00
0.04
0.04
0.04
0.00
0.00
0.00
0.05
0.15
0.16
0.20
0.20
0.05
0.04
0.00
0.04
0.00
0.00
0.00
0.00
0.09
0.09
0.00
0.00
0.09
0.05
0.34
0.41
0.48
0.65
0.65
0.56
0.63
0.76
0.83
0.89
0.88
0.90
0.89
0.88
0.66
0.09
0.42
0.34
0.25
0.20
0.20
0.20
0.20
0.24
0.33
0.34
0.20
0.20
0.20
0.24
0.20
0.20
0.20
0.20
0.20
0.24
0.27
0.27
0.27
0.20
0.20
0.20
0.25
0.25
0.20
0.29
0.22
0.20
0.20
0.29
0.37
0.39
0.42
0.46
0.47
0.55
0.62
0.62
0.62
0.55
0.46
0.42
0.46
0.37
0.22
0.20
0.37
0.41
0.34
0.26
0.14
0.05
0.05
0.05
0.05
0.20
0.09
0.09
0.20
0.34
0.20
0.16
0.16
0.09
0.05
0.05
0.05
0.05
0.05
0.05
0.04
0.00
0.00
0.00
0.05
0.05
0.00
0.00
0.00
0.09
0.14
0.00
0.00
0.05
0.00
0.09
0.29
0.26
0.00
0.05
0.09
0.26
0.14
0.09
0.14
0.20
0.14
0.14
0.26
0.20
0.09
0.20
0.26
0.29
0.20
0.20
0.33
0.29
0.20
0.20
0.20
0.29
0.33
0.33
0.34
0.37
0.37
0.37
0.39
0.33
0.14
0.14
0.29
0.37
0.39
0.33
0.37
0.34
0.20
0.00
0.00
0.00
0.09
0.14
0.29
0.37
0.37
0.37
0.37
0.41
0.41
0.41
0.41
0.41
0.37
0.29
0.04
0.09
0.09
0.25
0.45
0.46
0.40
0.58
0.75
0.82
0.89
0.88
0.88
0.87
0.81
0.37
0.37
0.25
0.29
0.34
0.49
0.55
0.42
0.29
0.46
0.51
0.34
0.29
0.29
0.37
0.39
0.37
0.34
0.29
0.34
0.29
0.29
0.29
0.37
0.25
0.29
0.29
0.37
0.39
0.29
0.25
0.39
0.42
0.39
0.42
0.39
0.37
0.42
0.51
0.62
0.67
0.62
0.67
0.67
0.71
0.67
0.49
0.37
0.39
0.34
0.20
0.33
0.37
0.42
0.29
0.14
0.00
0.04
0.05
0.05
0.05
0.09
0.15
0.16
0.20
0.16
0.25
0.20
0.09
0.15
0.09
0.05
0.05
0.09
0.09
0.09
0.05
0.05
0.05
0.13
0.13
0.05
0.05
0.05
0.09
0.05
0.05
0.05
0.05
0.09
0.13
0.05
0.05
0.05
0.05
0.09
0.09
0.15
0.13
0.05
0.05
0.05
0.05
0.05
0.09
0.13
0.05
0.15
0.13
0.05
0.09
0.13
0.15
0.16
0.16
0.15
0.09
0.09
0.13
0.16
0.20
0.16
0.16
0.16
0.16
0.15
0.13
0.16
0.16
0.15
0.13
0.13
0.15
0.16
0.25
0.40
0.43
0.43
0.35
0.20
0.09
0.05
0.00
0.05
0.05
0.05
0.05
0.05
0.05
0.05
0.05
0.13
0.41
0.46
0.50
0.65
0.72
0.66
0.66
0.76
0.83
0.89
0.88
0.90
0.96
0.87
0.75
0.20
0.26
0.40
0.42
0.41
0.41
0.27
0.27
0.27
0.27
0.27
0.27
0.33
0.37
0.25
0.27
0.37
0.41
0.27
0.25
0.41
0.41
0.33
0.34
0.33
0.34
0.27
0.25
0.25
0.24
0.24
0.27
0.20
0.20
0.22
0.22
0.22
0.34
0.46
0.49
0.46
0.47
0.46
0.42
0.47
0.46
0.37
0.25
0.20
0.20
0.27
0.40
0.26
0.09
0.05
0.13
0.13
0.05
0.05
0.15
0.13
0.16
0.16
0.20
0.39
0.34
0.20
0.20
0.16
0.16
0.13
0.13
0.05
0.05
0.09
0.09
0.05
0.05
0.05
0.09
0.13
0.15
0.09
0.05
0.05
0.05
0.00
0.00
0.00
0.00
0.00
0.00
0.04
0.00
0.00
0.00
0.05
0.05
0.04
0.00
0.00
0.05
0.04
0.00
0.00
0.00
0.00
0.05
0.04
0.00
0.00
0.00
0.00
0.00
0.00
0.00
0.00
0.00
0.00
0.00
0.00
0.09
0.09
0.14
0.20
0.09
0.00
0.00
0.00
0.00
0.00
0.09
0.09
0.05
0.05
0.09
0.15
0.09
0.00
0.09
0.00
0.00
0.00
0.09
0.14
0.14
0.39
0.29
0.20
0.14
0.14
0.16
0.34
0.41
0.63
0.64
0.58
0.56
0.72
0.81
0.89
0.87
0.88
0.92
0.89
0.72
0.00
0.37
0.22
0.22
0.20
0.20
0.20
0.20
0.20
0.20
0.20
0.29
0.29
0.25
0.25
0.20
0.20
0.20
0.20
0.20
0.27
0.22
0.22
0.22
0.29
0.29
0.37
0.22
0.20
0.34
0.37
0.22
0.29
0.39
0.51
0.51
0.58
0.47
0.51
0.71
0.71
0.67
0.51
0.51
0.55
0.47
0.39
0.34
0.25
0.20
0.27
0.37
0.37
0.29
0.29
0.09
0.04
0.00
0.04
0.13
0.13
0.16
0.25
0.20
0.25
0.16
0.15
0.09
0.09
0.09
0.13
0.15
0.15
0.05
0.05
0.05
0.05
0.05
0.05
0.04
0.00
0.00
0.05
0.05
0.05
0.05
0.05
0.05
0.00
0.05
0.05
0.00
0.05
0.05
0.05
0.04
0.00
0.00
0.04
0.04
0.05
0.05
0.05
0.05
0.00
0.05
0.05
0.05
0.00
0.00
0.09
0.00
0.00
0.00
0.00
0.09
0.05
0.05
0.05
0.04
0.00
0.00
0.04
0.05
0.05
0.05
0.05
0.05
0.05
0.05
0.09
0.16
0.31
0.35
0.35
0.20
0.09
0.05
0.00
0.00
0.05
0.04
0.00
0.00
0.00
0.09
0.09
0.04
0.05
0.25
0.46
0.45
0.64
0.71
0.65
0.58
0.72
0.81
0.87
0.87
0.91
0.97
0.88
0.78
0.25
0.20
0.41
0.33
0.34
0.34
0.25
0.33
0.37
0.37
0.34
0.24
0.27
0.37
0.41
0.34
0.34
0.37
0.37
0.41
0.42
0.37
0.41
0.42
0.33
0.37
0.41
0.41
0.37
0.27
0.37
0.34
0.24
0.20
0.24
0.24
0.24
0.22
0.29
0.29
0.37
0.39
0.42
0.42
0.34
0.25
0.29
0.22
0.33
0.37
0.42
0.37
0.26
0.14
0.00
0.05
0.15
0.13
0.13
0.25
0.40
0.41
0.37
0.37
0.43
0.43
0.41
0.41
0.39
0.31
0.25
0.25
0.20
0.16
0.15
0.05
0.13
0.15
0.15
0.15
0.15
0.15
0.13
0.15
0.09
0.05
0.05
0.13
0.13
0.09
0.09
0.05
0.05
0.05
0.04
0.04
0.05
0.05
0.05
0.04
0.04
0.05
0.05
0.05
0.05
0.05
0.05
0.00
0.00
0.00
0.00
0.00
0.00
0.00
0.00
0.00
0.00
0.00
0.00
0.00
0.20
0.14
0.00
0.00
0.00
0.09
0.20
0.09
0.14
0.20
0.14
0.14
0.00
0.00
0.04
0.05
0.05
0.04
0.14
0.29
0.29
0.26
0.26
0.26
0.20
0.20
0.20
0.20
0.20
0.29
0.20
0.05
0.25
0.31
0.41
0.59
0.56
0.43
0.64
0.79
0.84
0.89
0.87
0.88
0.88
0.81
0.31
0.34
0.42
0.25
0.25
0.20
0.20
0.22
0.20
0.20
0.20
0.20
0.20
0.20
0.20
0.20
0.20
0.20
0.20
0.20
0.20
0.20
0.20
0.20
0.20
0.20
0.20
0.20
0.20
0.20
0.20
0.20
0.20
0.20
0.29
0.29
0.39
0.46
0.42
0.49
0.58
0.55
0.62
0.67
0.62
0.62
0.51
0.34
0.29
0.20
0.24
0.41
0.39
0.26
0.14
0.00
0.04
0.05
0.13
0.16
0.20
0.25
0.31
0.25
0.20
0.20
0.20
0.25
0.20
0.20
0.05
0.05
0.09
0.09
0.04
0.00
0.05
0.05
0.05
0.05
0.05
0.05
0.05
0.05
0.04
0.00
0.00
0.05
0.05
0.05
0.05
0.05
0.04
0.00
0.00
0.00
0.00
0.09
0.09
0.00
0.00
0.00
0.00
0.00
0.00
0.00
0.00
0.00
0.00
0.00
0.14
0.09
0.00
0.00
0.00
0.09
0.00
0.00
0.00
0.00
0.00
0.09
0.00
0.00
0.00
0.04
0.00
0.00
0.00
0.00
0.09
0.09
0.00
0.05
0.05
0.09
0.13
0.05
0.00
0.14
0.14
0.14
0.14
0.09
0.09
0.14
0.26
0.20
0.14
0.14
0.00
0.15
0.35
0.35
0.50
0.63
0.63
0.53
0.68
0.81
0.87
0.88
0.88
0.88
0.87
0.77
0.13
0.39
0.41
0.25
0.20
0.20
0.20
0.20
0.20
0.22
0.20
0.20
0.20
0.20
0.20
0.24
0.24
0.20
0.20
0.20
0.20
0.20
0.25
0.25
0.24
0.24
0.20
0.20
0.20
0.20
0.20
0.20
0.20
0.20
0.29
0.29
0.42
0.47
0.55
0.62
0.42
0.42
0.42
0.42
0.42
0.39
0.37
0.22
0.24
0.27
0.37
0.41
0.26
0.14
0.00
0.04
0.05
0.05
0.15
0.20
0.31
0.35
0.40
0.37
0.37
0.37
0.31
0.25
0.25
0.31
0.25
0.20
0.20
0.20
0.16
0.16
0.16
0.15
0.13
0.13
0.16
0.15
0.15
0.15
0.09
0.09
0.13
0.00
0.00
0.05
0.04
0.00
0.00
0.00
0.00
0.00
0.00
0.00
0.00
0.00
0.00
0.00
0.00
0.00
0.00
0.14
0.14
0.00
0.00
0.00
0.00
0.00
0.00
0.00
0.00
0.00
0.00
0.00
0.00
0.00
0.00
0.00
0.00
0.00
0.00
0.00
0.00
0.00
0.00
0.00
0.00
0.05
0.05
0.16
0.05
0.00
0.20
0.20
0.09
0.09
0.20
0.09
0.00
0.00
0.09
0.09
0.09
0.04
0.15
0.25
0.37
0.58
0.66
0.63
0.56
0.68
0.78
0.84
0.89
0.88
0.88
0.87
0.77
0.13
0.41
0.25
0.20
0.20
0.20
0.29
0.25
0.20
0.29
0.22
0.22
0.22
0.29
0.34
0.29
0.34
0.29
0.29
0.37
0.39
0.39
0.34
0.29
0.29
0.29
0.29
0.22
0.29
0.34
0.29
0.29
0.29
0.34
0.37
0.47
0.46
0.49
0.62
0.67
0.62
0.62
0.62
0.58
0.55
0.47
0.55
0.55
0.39
0.22
0.22
0.41
0.41
0.42
0.41
0.40
0.26
0.00
0.04
0.05
0.05
0.05
0.05
0.05
0.09
0.09
0.05
0.05
0.05
0.04
0.14
0.20
0.26
0.33
0.33
0.34
0.40
0.40
0.37
0.34
0.41
0.42
0.37
0.37
0.37
0.37
0.40
0.41
0.40
0.37
0.37
0.27
0.33
0.40
0.40
0.40
0.40
0.42
0.27
0.27
0.41
0.41
0.41
0.41
0.39
0.37
0.37
0.33
0.39
0.41
0.42
0.41
0.41
0.34
0.33
0.34
0.33
0.37
0.37
0.33
0.39
0.41
0.41
0.39
0.29
0.26
0.34
0.42
0.39
0.37
0.39
0.14
0.04
0.14
0.00
0.20
0.39
0.40
0.37
0.37
0.33
0.37
0.27
0.27
0.27
0.33
0.40
0.40
0.39
0.00
0.04
0.05
0.35
0.48
0.40
0.35
0.61
0.76
0.83
0.90
0.88
0.88
0.88
0.75
0.04
0.33
0.20
0.20
0.22
0.29
0.29
0.39
0.29
0.34
0.29
0.39
0.39
0.29
0.29
0.24
0.20
0.20
0.29
0.20
0.27
0.20
0.20
0.25
0.27
0.20
0.34
0.39
0.29
0.20
0.24
0.20
0.20
0.22
0.37
0.46
0.37
0.34
0.37
0.34
0.29
0.39
0.62
0.70
0.49
0.22
0.25
0.37
0.20
0.27
0.24
0.41
0.34
0.00
0.00
0.00
0.14
0.09
0.20
0.25
0.20
0.09
0.25
0.34
0.05
0.05
0.15
0.25
0.05
0.05
0.09
0.09
0.31
0.35
0.25
0.16
0.05
0.09
0.00
0.04
0.05
0.13
0.09
0.05
0.09
0.05
0.00
0.05
0.04
0.00
0.00
0.05
0.05
0.05
0.00
0.14
0.00
0.00
0.00
0.04
0.05
0.20
0.00
0.04
0.05
0.09
0.00
0.05
0.04
0.09
0.14
0.14
0.00
0.00
0.00
0.05
0.04
0.04
0.05
0.05
0.00
0.00
0.00
0.00
0.05
0.15
0.20
0.05
0.26
0.33
0.00
0.09
0.20
0.20
0.20
0.05
0.05
0.09
0.04
0.20
0.14
0.04
0.00
0.09
0.00
0.00
0.00
0.00
0.05
0.34
0.31
0.41
0.58
0.56
0.48
0.65
0.77
0.83
0.88
0.88
0.88
0.88
0.88
0.73
0.25
0.14
0.41
0.27
0.24
0.20
0.20
0.24
0.24
0.20
0.27
0.41
0.33
0.25
0.20
0.20
0.37
0.37
0.37
0.41
0.42
0.25
0.27
0.41
0.37
0.41
0.27
0.27
0.41
0.27
0.27
0.24
0.20
0.25
0.29
0.25
0.29
0.20
0.20
0.39
0.47
0.37
0.34
0.29
0.20
0.24
0.20
0.29
0.20
0.29
0.20
0.34
0.33
0.20
0.14
0.05
0.20
0.16
0.15
0.16
0.16
0.20
0.31
0.43
0.35
0.20
0.13
0.09
0.09
0.09
0.09
0.15
0.20
0.09
0.05
0.15
0.09
0.05
0.05
0.09
0.09
0.05
0.05
0.05
0.05
0.05
0.05
0.15
0.31
0.15
0.04
0.05
0.05
0.09
0.05
0.05
0.04
0.05
0.13
0.09
0.04
0.05
0.05
0.04
0.05
0.15
0.05
0.04
0.05
0.05
0.04
0.09
0.04
0.13
0.09
0.04
0.09
0.20
0.13
0.04
0.09
0.09
0.00
0.05
0.05
0.09
0.05
0.04
0.04
0.05
0.13
0.20
0.20
0.05
0.05
0.13
0.09
0.00
0.00
0.05
0.05
0.04
0.04
0.05
0.05
0.25
0.05
0.14
0.00
0.16
0.50
0.53
0.59
0.64
0.64
0.63
0.69
0.78
0.83
0.90
0.89
0.96
0.93
0.87
0.68
0.09
0.37
0.42
0.37
0.41
0.41
0.34
0.20
0.25
0.25
0.27
0.27
0.27
0.33
0.37
0.41
0.39
0.37
0.34
0.34
0.41
0.25
0.37
0.37
0.41
0.41
0.41
0.41
0.37
0.26
0.40
0.37
0.27
0.20
0.29
0.20
0.25
0.27
0.34
0.20
0.29
0.34
0.49
0.46
0.25
0.20
0.33
0.42
0.41
0.39
0.20
0.14
0.20
0.04
0.05
0.05
0.05
0.05
0.16
0.43
0.43
0.20
0.16
0.34
0.41
0.46
0.35
0.20
0.31
0.15
0.20
0.15
0.16
0.16
0.05
0.05
0.15
0.15
0.15
0.20
0.13
0.05
0.09
0.13
0.05
0.05
0.05
0.13
0.35
0.31
0.05
0.05
0.09
0.09
0.04
0.00
0.05
0.05
0.05
0.13
0.13
0.05
0.05
0.09
0.20
0.05
0.05
0.05
0.14
0.05
0.05
0.15
0.05
0.05
0.05
0.05
0.04
0.04
0.05
0.13
0.05
0.00
0.09
0.05
0.13
0.15
0.15
0.05
0.09
0.05
0.20
0.20
0.15
0.34
0.34
0.05
0.00
0.00
0.05
0.00
0.09
0.05
0.00
0.05
0.09
0.05
0.04
0.16
0.35
0.45
0.46
0.63
0.68
0.61
0.50
0.72
0.83
0.87
0.87
0.89
0.89
0.88
0.81
0.37
0.14
0.34
0.25
0.20
0.34
0.25
0.20
0.29
0.22
0.20
0.22
0.20
0.37
0.42
0.41
0.41
0.33
0.37
0.37
0.34
0.37
0.25
0.20
0.37
0.29
0.37
0.25
0.41
0.27
0.27
0.41
0.22
0.37
0.25
0.27
0.37
0.29
0.29
0.29
0.39
0.37
0.39
0.37
0.29
0.20
0.22
0.20
0.42
0.33
0.37
0.41
0.41
0.29
0.00
0.00
0.00
0.05
0.16
0.20
0.37
0.45
0.50
0.46
0.20
0.16
0.25
0.31
0.16
0.05
0.05
0.20
0.39
0.43
0.16
0.15
0.09
0.05
0.09
0.13
0.05
0.04
0.15
0.20
0.09
0.05
0.05
0.05
0.16
0.09
0.05
0.05
0.05
0.13
0.20
0.09
0.04
0.00
0.04
0.09
0.13
0.05
0.00
0.05
0.16
0.15
0.05
0.04
0.05
0.15
0.37
0.15
0.05
0.00
0.15
0.05
0.00
0.05
0.05
0.05
0.09
0.16
0.20
0.20
0.05
0.00
0.00
0.00
0.05
0.13
0.13
0.15
0.16
0.31
0.43
0.35
0.13
0.05
0.04
0.04
0.05
0.05
0.05
0.00
0.04
0.04
0.04
0.04
0.25
0.50
0.48
0.50
0.63
0.66
0.61
0.64
0.71
0.81
0.89
0.88
0.90
1.00
0.89
0.66
0.04
0.41
0.24
0.20
0.37
0.34
0.25
0.24
0.20
0.46
0.37
0.25
0.37
0.27
0.22
0.20
0.25
0.24
0.24
0.25
0.25
0.27
0.34
0.20
0.22
0.22
0.20
0.24
0.25
0.25
0.34
0.34
0.25
0.20
0.25
0.29
0.20
0.29
0.29
0.24
0.41
0.24
0.39
0.37
0.29
0.25
0.20
0.37
0.41
0.42
0.40
0.34
0.14
0.04
0.13
0.16
0.05
0.05
0.13
0.35
0.35
0.35
0.40
0.35
0.20
0.16
0.16
0.20
0.20
0.16
0.15
0.15
0.20
0.20
0.16
0.15
0.04
0.05
0.09
0.13
0.15
0.09
0.05
0.09
0.09
0.13
0.13
0.05
0.09
0.15
0.15
0.05
0.05
0.04
0.04
0.13
0.05
0.04
0.00
0.09
0.00
0.05
0.04
0.00
0.00
0.00
0.20
0.00
0.05
0.05
0.04
0.00
0.00
0.00
0.05
0.05
0.05
0.00
0.00
0.09
0.14
0.00
0.04
0.00
0.04
0.05
0.15
0.00
0.26
0.26
0.09
0.15
0.05
0.13
0.04
0.14
0.20
0.00
0.04
0.00
0.00
0.20
0.34
0.26
0.00
0.00
0.09
0.05
