0.43
0.39
0.54
0.51
0.58
0.51
0.54
0.39
0.32
0.24
0.20
0.33
0.39
0.38
0.30
0.34
0.28
0.09
0.03
0.13
0.23
0.23
0.40
0.42
0.34
0.29
0.16
0.13
0.16
0.23
0.13
0.10
0.13
0.36
0.23
0.13
0.07
0.13
0.05
0.05
0.07
0.13
0.13
0.05
0.05
0.05
0.05
0.00
0.00
0.05
0.07
0.05
0.05
0.05
0.13
0.07
0.05
0.03
0.00
0.03
0.00
0.00
0.05
0.05
0.05
0.13
0.05
0.00
0.03
0.05
0.05
0.05
0.05
0.00
0.00
0.05
0.10
0.05
0.05
0.07
0.05
0.00
0.05
0.03
0.05
0.03
0.00
0.03
0.05
0.07
0.13
0.07
0.05
0.05
0.05
0.23
0.29
0.23
0.10
0.05
0.03
0.00
0.00
0.03
0.05
0.03
0.00
0.00
0.03
0.05
0.05
0.13
0.36
0.34
0.42
0.52
0.55
0.52
0.54
0.76
0.87
0.87
0.89
0.90
0.97
0.89
0.72
0.09
0.38
0.31
0.20
0.20
0.20
0.28
0.35
0.32
0.32
0.28
0.20
0.20
0.28
0.20
0.20
0.24
0.28
0.28
0.20
0.20
0.24
0.24
0.20
0.20
0.20
0.20
0.20
0.24
0.28
0.28
0.28
0.39
0.48
0.39
0.38
0.39
0.39
0.43
0.58
0.43
0.57
0.57
0.57
0.58
0.43
0.39
0.28
0.28
0.20
0.33
0.34
0.25
0.09
0.00
0.00
0.05
0.13
0.13
0.16
0.16
0.16
0.21
0.29
0.36
0.42
0.42
0.23
0.13
0.10
0.16
0.23
0.16
0.16
0.13
0.13
0.13
0.13
0.07
0.07
0.05
0.10
0.10
0.10
0.07
0.13
0.13
0.07
0.07
0.05
0.05
0.07
0.05
0.05
0.05
0.00
0.05
0.10
0.16
0.13
0.05
0.05
0.05
0.05
0.03
0.03
0.03
0.05
0.10
0.05
0.03
0.05
0.05
0.05
0.10
0.13
0.05
0.00
0.00
0.00
0.00
0.03
0.05
0.07
0.07
0.05
0.03
0.00
0.00
0.05
0.03
0.00
0.00
0.05
0.05
0.07
0.16
0.13
0.05
0.00
0.13
0.21
0.21
0.15
0.09
0.00
0.00
0.00
0.00
0.00
0.00
0.07
0.23
0.40
0.49
0.52
0.52
0.51
0.54
0.74
0.85
0.87
0.88
0.90
0.90
0.87
0.65
0.09
0.34
0.24
0.24
0.24
0.28
0.24
0.29
0.24
0.29
0.24
0.29
0.20
0.20
0.24
0.20
0.20
0.20
0.20
0.20
0.20
0.20
0.20
0.28
0.28
0.20
0.26
0.20
0.24
0.28
0.28
0.28
0.32
0.29
0.28
0.32
0.35
0.48
0.48
0.58
0.54
0.39
0.39
0.48
0.38
0.29
0.28
0.29
0.28
0.31
0.32
0.32
0.34
0.13
0.03
0.05
0.13
0.13
0.21
0.29
0.29
0.34
0.43
0.40
0.21
0.16
0.21
0.29
0.29
0.23
0.21
0.16
0.16
0.16
0.16
0.16
0.16
0.16
0.16
0.21
0.13
0.05
0.05
0.13
0.07
0.07
0.13
0.13
0.07
0.07
0.05
0.05
0.07
0.07
0.07
0.07
0.05
0.03
0.07
0.16
0.05
0.07
0.13
0.07
0.05
0.05
0.03
0.03
0.05
0.05
0.05
0.05
0.03
0.00
0.00
0.00
0.03
0.03
0.00
0.00
0.05
0.00
0.00
0.03
0.05
0.00
0.03
0.00
0.00
0.03
0.00
0.00
0.00
0.00
0.03
0.05
0.10
0.13
0.05
0.03
0.00
0.00
0.00
0.00
0.00
0.00
0.00
0.00
0.00
0.09
0.00
0.13
0.42
0.43
0.40
0.51
0.60
0.59
0.59
0.76
0.87
0.88
0.89
0.90
0.94
0.88
0.79
0.13
0.28
0.34
0.26
0.26
0.20
0.20
0.20
0.24
0.26
0.20
0.20
0.24
0.20
0.20
0.20
0.20
0.20
0.20
0.31
0.26
0.20
0.20
0.20
0.20
0.20
0.20
0.20
0.20
0.20
0.20
0.28
0.29
0.28
0.24
0.28
0.35
0.48
0.60
0.69
0.63
0.57
0.58
0.54
0.35
0.29
0.28
0.20
0.24
0.32
0.32
0.38
0.28
0.25
0.00
0.05
0.16
0.16
0.21
0.23
0.44
0.44
0.46
0.50
0.50
0.50
0.50
0.49
0.34
0.10
0.13
0.16
0.13
0.13
0.13
0.07
0.05
0.10
0.10
0.07
0.05
0.05
0.10
0.10
0.16
0.16
0.05
0.00
0.03
0.05
0.05
0.05
0.05
0.05
0.05
0.05
0.05
0.05
0.03
0.05
0.03
0.05
0.05
0.03
0.03
0.05
0.03
0.05
0.03
0.05
0.07
0.05
0.05
0.03
0.03
0.00
0.00
0.00
0.03
0.03
0.05
0.05
0.05
0.03
0.05
0.05
0.03
0.00
0.00
0.03
0.05
0.05
0.07
0.13
0.16
0.34
0.34
0.07
0.03
0.00
0.00
0.05
0.03
0.00
0.00
0.00
0.00
0.00
0.00
0.00
0.29
0.49
0.51
0.52
0.61
0.63
0.59
0.69
0.83
0.89
0.90
0.88
0.94
0.90
0.89
0.55
0.13
0.37
0.31
0.32
0.24
0.24
0.24
0.20
0.20
0.28
0.24
0.20
0.26
0.26
0.26
0.24
0.37
0.33
0.31
0.24
0.26
0.24
0.20
0.20
0.26
0.20
0.26
0.26
0.32
0.31
0.20
0.20
0.20
0.20
0.28
0.32
0.35
0.43
0.48
0.48
0.58
0.69
0.69
0.60
0.54
0.39
0.29
0.28
0.20
0.26
0.38
0.36
0.36
0.21
0.13
0.00
0.05
0.13
0.13
0.16
0.23
0.29
0.43
0.36
0.21
0.23
0.16
0.23
0.16
0.16
0.16
0.23
0.13
0.13
0.13
0.13
0.10
0.10
0.10
0.07
0.07
0.13
0.13
0.10
0.07
0.07
0.10
0.03
0.03
0.07
0.05
0.03
0.03
0.05
0.00
0.00
0.00
0.00
0.00
0.00
0.00
0.03
0.03
0.00
0.00
0.00
0.00
0.05
0.03
0.09
0.00
0.03
0.00
0.13
0.00
0.00
0.00
0.09
0.00
0.00
0.09
0.00
0.00
0.00
0.00
0.00
0.00
0.00
0.00
0.00
0.03
0.03
0.05
0.03
0.03
0.10
0.16
0.07
0.00
0.00
0.15
0.15
0.00
0.00
0.00
0.25
0.15
0.00
0.00
0.15
0.13
0.10
0.43
0.46
0.51
0.57
0.57
0.54
0.70
0.84
0.88
0.89
0.88
0.91
0.89
0.85
0.42
0.36
0.26
0.20
0.28
0.28
0.20
0.20
0.28
0.28
0.32
0.32
0.29
0.20
0.20
0.20
0.20
0.28
0.29
0.32
0.28
0.24
0.29
0.32
0.24
0.20
0.20
0.35
0.39
0.38
0.39
0.35
0.38
0.43
0.51
0.57
0.60
0.77
0.80
0.83
0.85
0.85
0.83
0.85
0.83
0.73
0.60
0.54
0.35
0.29
0.24
0.20
0.37
0.32
0.30
0.15
0.00
0.00
0.03
0.07
0.07
0.10
0.13
0.16
0.23
0.16
0.16
0.13
0.13
0.07
0.07
0.07
0.07
0.03
0.03
0.05
0.07
0.10
0.05
0.05
0.05
0.03
0.00
0.03
0.00
0.00
0.13
0.13
0.09
0.00
0.00
0.00
0.03
0.00
0.00
0.00
0.03
0.13
0.15
0.13
0.00
0.00
0.13
0.13
0.09
0.09
0.00
0.13
0.09
0.13
0.15
0.13
0.13
0.15
0.09
0.09
0.13
0.09
0.00
0.00
0.00
0.00
0.13
0.28
0.28
0.13
0.00
0.09
0.15
0.15
0.15
0.15
0.13
0.09
0.00
0.05
0.10
0.05
0.07
0.00
0.15
0.15
0.13
0.13
0.15
0.30
0.15
0.21
0.15
0.15
0.15
0.00
0.13
0.23
0.21
0.44
0.51
0.52
0.51
0.68
0.83
0.88
0.89
0.89
0.89
0.89
0.86
0.42
0.38
0.20
0.28
0.32
0.32
0.32
0.28
0.28
0.35
0.48
0.39
0.32
0.29
0.24
0.20
0.28
0.29
0.20
0.32
0.29
0.28
0.28
0.28
0.31
0.34
0.26
0.24
0.20
0.20
0.28
0.32
0.28
0.20
0.28
0.38
0.35
0.43
0.60
0.69
0.69
0.69
0.69
0.63
0.57
0.48
0.43
0.43
0.32
0.24
0.26
0.31
0.38
0.34
0.28
0.09
0.00
0.03
0.07
0.16
0.21
0.29
0.21
0.16
0.21
0.29
0.21
0.16
0.13
0.13
0.16
0.13
0.13
0.13
0.16
0.10
0.10
0.13
0.07
0.05
0.05
0.10
0.13
0.13
0.13
0.13
0.13
0.10
0.07
0.07
0.10
0.10
0.05
0.05
0.05
0.03
0.07
0.10
0.07
0.07
0.05
0.05
0.05
0.07
0.10
0.13
0.10
0.05
0.05
0.07
0.10
0.10
0.13
0.13
0.05
0.05
0.05
0.05
0.07
0.13
0.13
0.10
0.13
0.13
0.07
0.07
0.10
0.13
0.10
0.13
0.13
0.10
0.13
0.13
0.13
0.21
0.34
0.36
0.42
0.29
0.10
0.10
0.03
0.13
0.13
0.07
0.05
0.03
0.03
0.03
0.05
0.05
0.05
0.44
0.51
0.52
0.65
0.70
0.65
0.57
0.74
0.85
0.87
0.89
0.90
0.97
0.89
0.84
0.46
0.25
0.34
0.20
0.26
0.24
0.20
0.20
0.20
0.20
0.20
0.20
0.20
0.20
0.20
0.20
0.24
0.26
0.24
0.20
0.20
0.20
0.32
0.24
0.26
0.26
0.26
0.24
0.24
0.20
0.20
0.20
0.20
0.28
0.28
0.28
0.35
0.51
0.57
0.43
0.38
0.39
0.38
0.38
0.32
0.32
0.32
0.28
0.24
0.33
0.38
0.38
0.32
0.13
0.03
0.07
0.07
0.10
0.29
0.46
0.40
0.42
0.40
0.43
0.44
0.43
0.44
0.40
0.42
0.40
0.49
0.40
0.34
0.36
0.23
0.16
0.23
0.16
0.07
0.05
0.07
0.07
0.13
0.13
0.05
0.05
0.05
0.05
0.05
0.05
0.05
0.05
0.00
0.00
0.00
0.00
0.00
0.05
0.03
0.00
0.00
0.00
0.05
0.05
0.05
0.00
0.00
0.00
0.03
0.05
0.05
0.05
0.03
0.00
0.00
0.03
0.05
0.00
0.00
0.03
0.05
0.05
0.05
0.05
0.03
0.05
0.07
0.05
0.00
0.00
0.00
0.05
0.05
0.07
0.07
0.13
0.21
0.21
0.10
0.00
0.00
0.00
0.05
0.05
0.03
0.00
0.00
0.00
0.09
0.00
0.00
0.10
0.46
0.50
0.51
0.57
0.65
0.59
0.65
0.79
0.87
0.87
0.89
0.89
0.98
0.90
0.75
0.10
0.34
0.37
0.38
0.26
0.20
0.20
0.24
0.24
0.20
0.20
0.20
0.24
0.20
0.20
0.20
0.20
0.20
0.24
0.26
0.26
0.24
0.20
0.24
0.20
0.20
0.20
0.20
0.20
0.20
0.20
0.24
0.20
0.28
0.28
0.29
0.32
0.38
0.57
0.60
0.63
0.60
0.60
0.60
0.57
0.48
0.38
0.29
0.20
0.33
0.37
0.28
0.21
0.13
0.03
0.07
0.16
0.13
0.10
0.16
0.23
0.23
0.34
0.29
0.29
0.34
0.29
0.16
0.13
0.07
0.13
0.29
0.13
0.10
0.05
0.05
0.07
0.05
0.05
0.07
0.07
0.07
0.10
0.05
0.05
0.07
0.05
0.05
0.03
0.03
0.05
0.03
0.00
0.00
0.00
0.00
0.03
0.05
0.03
0.00
0.00
0.00
0.00
0.05
0.05
0.05
0.03
0.00
0.00
0.00
0.00
0.00
0.05
0.05
0.00
0.09
0.13
0.09
0.00
0.00
0.00
0.05
0.00
0.00
0.00
0.00
0.00
0.00
0.03
0.05
0.03
0.00
0.00
0.05
0.10
0.16
0.16
0.13
0.05
0.00
0.13
0.13
0.00
0.00
0.00
0.00
0.00
0.09
0.09
0.25
0.09
0.16
0.51
0.40
0.51
0.60
0.60
0.53
0.69
0.83
0.89
0.88
0.89
0.92
0.88
0.84
0.42
0.32
0.33
0.26
0.20
0.20
0.20
0.20
0.24
0.20
0.20
0.20
0.20
0.31
0.31
0.20
0.24
0.20
0.20
0.20
0.20
0.20
0.20
0.26
0.26
0.20
0.20
0.20
0.20
0.29
0.20
0.28
0.29
0.28
0.48
0.43
0.39
0.60
0.60
0.63
0.73
0.69
0.73
0.80
0.73
0.69
0.57
0.38
0.20
0.26
0.31
0.38
0.36
0.34
0.21
0.03
0.03
0.00
0.07
0.13
0.16
0.34
0.34
0.34
0.29
0.21
0.13
0.13
0.13
0.05
0.05
0.07
0.03
0.00
0.00
0.03
0.03
0.03
0.05
0.00
0.00
0.00
0.05
0.00
0.00
0.00
0.00
0.09
0.00
0.09
0.09
0.09
0.00
0.00
0.03
0.03
0.00
0.00
0.13
0.15
0.13
0.09
0.09
0.15
0.21
0.13
0.00
0.00
0.00
0.00
0.00
0.00
0.00
0.00
0.00
0.00
0.00
0.00
0.00
0.05
0.00
0.00
0.00
0.00
0.00
0.00
0.00
0.00
0.03
0.00
0.00
0.00
0.00
0.00
0.00
0.00
0.05
0.05
0.00
0.15
0.21
0.00
0.03
0.00
0.00
0.09
0.00
0.00
0.00
0.13
0.00
0.10
0.36
0.21
0.34
0.51
0.52
0.51
0.53
0.75
0.87
0.87
0.90
0.89
0.93
0.87
0.60
0.13
0.33
0.20
0.24
0.29
0.24
0.20
0.24
0.35
0.35
0.28
0.28
0.29
0.24
0.20
0.20
0.20
0.20
0.20
0.20
0.20
0.20
0.20
0.24
0.24
0.20
0.20
0.20
0.24
0.29
0.20
0.24
0.24
0.20
0.39
0.51
0.43
0.38
0.38
0.54
0.58
0.60
0.63
0.54
0.51
0.48
0.35
0.32
0.24
0.20
0.39
0.34
0.21
0.13
0.00
0.03
0.05
0.13
0.21
0.23
0.29
0.40
0.49
0.51
0.46
0.36
0.29
0.29
0.36
0.43
0.34
0.29
0.21
0.16
0.16
0.16
0.21
0.29
0.16
0.13
0.07
0.07
0.10
0.13
0.16
0.16
0.16
0.21
0.13
0.13
0.13
0.13
0.16
0.16
0.13
0.07
0.10
0.10
0.10
0.07
0.07
0.07
0.05
0.03
0.03
0.03
0.03
0.05
0.03
0.07
0.07
0.10
0.05
0.05
0.00
0.00
0.00
0.00
0.00
0.05
0.00
0.00
0.00
0.00
0.05
0.07
0.05
0.00
0.03
0.03
0.05
0.00
0.05
0.10
0.13
0.13
0.16
0.10
0.05
0.03
0.00
0.00
0.00
0.00
0.00
0.00
0.00
0.00
0.09
0.09
0.13
0.43
0.40
0.43
0.55
0.57
0.58
0.63
0.81
0.88
0.90
0.89
0.94
1.00
0.88
0.58
0.00
0.37
0.32
0.20
0.24
0.24
0.24
0.24
0.20
0.29
0.32
0.28
0.20
0.24
0.20
0.20
0.24
0.20
0.20
0.20
0.26
0.26
0.20
0.20
0.24
0.24
0.28
0.20
0.20
0.20
0.20
0.24
0.20
0.39
0.43
0.43
0.58
0.51
0.57
0.60
0.69
0.69
0.60
0.57
0.51
0.29
0.24
0.20
0.20
0.20
0.26
0.38
0.25
0.09
0.00
0.03
0.07
0.13
0.23
0.40
0.44
0.44
0.40
0.29
0.29
0.29
0.21
0.23
0.21
0.21
0.13
0.10
0.13
0.13
0.13
0.10
0.07
0.00
0.00
0.05
0.05
0.05
0.03
0.05
0.05
0.05
0.00
0.00
0.05
0.00
0.00
0.00
0.00
0.00
0.00
0.00
0.05
0.03
0.00
0.00
0.00
0.00
0.00
0.05
0.05
0.00
0.00
0.00
0.00
0.00
0.00
0.00
0.13
0.09
0.00
0.00
0.09
0.00
0.00
0.00
0.00
0.00
0.00
0.00
0.00
0.13
0.13
0.00
0.09
0.05
0.00
0.03
0.07
0.07
0.10
0.13
0.05
0.00
0.13
0.09
0.09
0.00
0.09
0.15
0.15
0.15
0.09
0.00
0.00
0.05
0.21
0.23
0.44
0.55
0.57
0.55
0.65
0.83
0.89
0.90
0.88
0.89
0.90
0.89
0.46
0.21
0.34
0.20
0.20
0.20
0.20
0.20
0.29
0.28
0.28
0.28
0.24
0.24
0.20
0.20
0.20
0.20
0.20
0.20
0.20
0.28
0.29
0.28
0.20
0.20
0.20
0.20
0.28
0.28
0.24
0.24
0.20
0.28
0.38
0.48
0.58
0.54
0.51
0.60
0.63
0.51
0.57
0.54
0.39
0.39
0.63
0.32
0.32
0.31
0.26
0.24
0.38
0.32
0.25
0.13
0.07
0.13
0.05
0.13
0.42
0.46
0.42
0.34
0.42
0.46
0.43
0.44
0.42
0.23
0.10
0.13
0.16
0.07
0.10
0.13
0.21
0.16
0.16
0.13
0.13
0.13
0.05
0.13
0.10
0.05
0.05
0.07
0.13
0.05
0.05
0.05
0.07
0.00
0.00
0.05
0.07
0.05
0.05
0.07
0.05
0.00
0.00
0.00
0.00
0.00
0.00
0.00
0.03
0.00
0.00
0.00
0.00
0.00
0.00
0.03
0.00
0.13
0.00
0.00
0.05
0.00
0.00
0.00
0.09
0.00
0.07
0.00
0.15
0.13
0.00
0.05
0.03
0.03
0.03
0.00
0.00
0.05
0.13
0.05
0.28
0.21
0.13
0.00
0.00
0.00
0.09
0.09
0.09
0.00
0.00
0.00
0.07
0.23
0.23
0.42
0.52
0.55
0.54
0.61
0.76
0.87
0.89
0.90
0.89
0.90
0.89
0.65
0.13
0.38
0.20
0.20
0.20
0.28
0.24
0.24
0.20
0.20
0.35
0.32
0.28
0.29
0.28
0.20
0.20
0.31
0.20
0.20
0.28
0.24
0.20
0.28
0.28
0.28
0.24
0.20
0.20
0.28
0.24
0.24
0.28
0.35
0.38
0.32
0.43
0.58
0.57
0.69
0.69
0.60
0.48
0.63
0.51
0.32
0.39
0.35
0.24
0.20
0.24
0.38
0.32
0.21
0.15
0.00
0.03
0.07
0.13
0.16
0.23
0.29
0.29
0.21
0.23
0.29
0.21
0.21
0.21
0.13
0.13
0.13
0.13
0.10
0.07
0.07
0.10
0.13
0.13
0.13
0.10
0.10
0.05
0.00
0.00
0.05
0.05
0.05
0.00
0.05
0.07
0.07
0.00
0.00
0.05
0.05
0.05
0.05
0.05
0.05
0.00
0.00
0.03
0.05
0.05
0.07
0.07
0.05
0.03
0.03
0.00
0.00
0.00
0.00
0.00
0.00
0.03
0.05
0.05
0.05
0.05
0.07
0.07
0.13
0.13
0.07
0.00
0.00
0.00
0.05
0.05
0.07
0.05
0.00
0.05
0.13
0.16
0.16
0.16
0.16
0.10
0.00
0.00
0.05
0.05
0.05
0.05
0.00
0.00
0.00
0.00
0.03
0.05
0.13
0.40
0.42
0.49
0.54
0.52
0.51
0.61
0.83
0.88
0.90
0.88
0.89
0.90
0.88
0.53
0.15
0.34
0.24
0.26
0.26
0.20
0.20
0.24
0.24
0.20
0.28
0.20
0.20
0.20
0.20
0.20
0.24
0.26
0.34
0.32
0.26
0.26
0.26
0.24
0.26
0.24
0.24
0.24
0.20
0.20
0.24
0.20
0.20
0.24
0.20
0.24
0.35
0.43
0.54
0.48
0.48
0.51
0.38
0.32
0.35
0.28
0.20
0.20
0.24
0.38
0.30
0.25
0.09
0.00
0.03
0.10
0.13
0.21
0.46
0.51
0.50
0.51
0.51
0.50
0.50
0.51
0.49
0.40
0.29
0.23
0.21
0.16
0.16
0.16
0.13
0.13
0.10
0.13
0.13
0.10
0.07
0.10
0.16
0.13
0.13
0.05
0.03
0.00
0.05
0.07
0.07
0.05
0.05
0.07
0.07
0.03
0.03
0.07
0.07
0.05
0.05
0.03
0.03
0.00
0.05
0.03
0.00
0.05
0.03
0.00
0.00
0.03
0.05
0.05
0.05
0.03
0.00
0.00
0.00
0.00
0.00
0.03
0.00
0.00
0.00
0.05
0.05
0.05
0.05
0.07
0.05
0.09
0.09
0.03
0.03
0.07
0.07
0.13
0.16
0.07
0.00
0.09
0.13
0.00
0.00
0.00
0.00
0.00
0.00
0.05
0.03
0.00
0.07
0.42
0.40
0.46
0.54
0.59
0.54
0.60
0.79
0.87
0.87
0.90
0.90
0.91
0.90
0.72
0.05
0.32
0.34
0.26
0.20
0.20
0.20
0.20
0.20
0.20
0.24
0.24
0.28
0.28
0.28
0.20
0.20
0.20
0.20
0.20
0.20
0.20
0.20
0.20
0.20
0.20
0.24
0.20
0.20
0.20
0.24
0.29
0.35
0.38
0.39
0.39
0.54
0.57
0.54
0.60
0.69
0.69
0.77
0.77
0.63
0.57
0.32
0.35
0.29
0.24
0.31
0.38
0.25
0.21
0.00
0.00
0.05
0.10
0.16
0.29
0.42
0.44
0.43
0.21
0.13
0.16
0.16
0.16
0.21
0.13
0.13
0.13
0.10
0.10
0.05
0.05
0.07
0.05
0.05
0.05
0.07
0.07
0.05
0.00
0.00
0.05
0.03
0.05
0.05
0.05
0.05
0.03
0.00
0.00
0.03
0.05
0.07
0.03
0.00
0.00
0.00
0.00
0.00
0.00
0.00
0.00
0.00
0.03
0.05
0.00
0.13
0.09
0.00
0.05
0.05
0.00
0.13
0.09
0.00
0.00
0.00
0.09
0.09
0.00
0.00
0.00
0.00
0.00
0.00
0.00
0.05
0.13
0.16
0.13
0.00
0.09
0.09
0.13
0.09
0.09
0.09
0.09
0.00
0.09
0.13
0.00
0.09
0.07
0.42
0.36
0.46
0.58
0.65
0.57
0.63
0.79
0.87
0.89
0.89
0.89
0.90
0.87
0.66
0.03
0.38
0.32
0.20
0.20
0.24
0.20
0.20
0.20
0.28
0.29
0.28
0.20
0.26
0.28
0.24
0.20
0.20
0.20
0.20
0.20
0.24
0.20
0.20
0.24
0.20
0.20
0.24
0.28
0.24
0.20
0.24
0.29
0.32
0.28
0.32
0.39
0.54
0.63
0.73
0.77
0.80
0.73
0.54
0.35
0.32
0.35
0.28
0.20
0.24
0.39
0.36
0.25
0.13
0.03
0.07
0.07
0.07
0.13
0.34
0.49
0.46
0.49
0.43
0.40
0.21
0.23
0.13
0.21
0.23
0.23
0.21
0.21
0.13
0.13
0.10
0.05
0.05
0.10
0.07
0.05
0.03
0.00
0.03
0.05
0.07
0.07
0.07
0.05
0.00
0.00
0.00
0.03
0.00
0.05
0.03
0.00
0.00
0.00
0.09
0.09
0.03
0.03
0.00
0.00
0.00
0.00
0.03
0.05
0.00
0.00
0.00
0.00
0.00
0.00
0.05
0.00
0.00
0.00
0.00
0.00
0.00
0.00
0.00
0.00
0.00
0.03
0.05
0.03
0.03
0.00
0.00
0.00
0.03
0.05
0.10
0.16
0.13
0.07
0.05
0.09
0.13
0.09
0.00
0.00
0.09
0.00
0.00
0.09
0.13
0.21
0.09
0.29
0.34
0.42
0.55
0.65
0.59
0.57
0.75
0.85
0.87
0.88
0.90
0.93
0.89
0.79
0.16
0.39
0.20
0.20
0.20
0.20
0.24
0.20
0.24
0.29
0.24
0.28
0.29
0.28
0.28
0.29
0.24
0.20
0.28
0.28
0.29
0.28
0.28
0.29
0.35
0.28
0.28
0.20
0.29
0.35
0.38
0.32
0.38
0.39
0.57
0.63
0.69
0.58
0.73
0.80
0.73
0.58
0.60
0.69
0.60
0.48
0.39
0.43
0.38
0.28
0.24
0.26
0.33
0.30
0.09
0.00
0.00
0.05
0.10
0.13
0.16
0.16
0.29
0.21
0.13
0.13
0.10
0.10
0.13
0.07
0.10
0.07
0.05
0.00
0.05
0.07
0.05
0.07
0.07
0.03
0.00
0.00
0.03
0.03
0.00
0.00
0.05
0.05
0.03
0.00
0.03
0.00
0.00
0.00
0.00
0.00
0.03
0.03
0.05
0.05
0.05
0.09
0.03
0.00
0.05
0.05
0.09
0.00
0.00
0.00
0.05
0.05
0.03
0.03
0.03
0.00
0.05
0.05
0.00
0.00
0.00
0.00
0.03
0.03
0.00
0.00
0.03
0.05
0.07
0.07
0.07
0.05
0.05
0.03
0.05
0.05
0.13
0.16
0.13
0.05
0.00
0.03
0.00
0.03
0.00
0.05
0.05
0.00
0.05
0.03
0.00
0.03
0.40
0.49
0.40
0.51
0.59
0.65
0.53
0.65
0.83
0.89
0.89
0.89
0.93
0.90
0.88
0.54
0.28
0.33
0.20
0.24
0.20
0.24
0.20
0.20
0.20
0.24
0.20
0.20
0.20
0.31
0.20
0.28
0.20
0.26
0.26
0.33
0.20
0.20
0.20
0.20
0.24
0.32
0.24
0.20
0.24
0.20
0.20
0.20
0.24
0.20
0.20
0.29
0.35
0.38
0.32
0.35
0.39
0.35
0.35
0.39
0.32
0.24
0.20
0.20
0.24
0.39
0.32
0.34
0.28
0.09
0.03
0.07
0.16
0.21
0.34
0.42
0.50
0.50
0.50
0.50
0.51
0.51
0.50
0.49
0.40
0.34
0.21
0.16
0.16
0.21
0.29
0.34
0.21
0.34
0.16
0.10
0.07
0.07
0.10
0.07
0.05
0.05
0.07
0.05
0.03
0.05
0.07
0.07
0.05
0.03
0.00
0.03
0.05
0.00
0.05
0.05
0.03
0.03
0.03
0.05
0.03
0.00
0.00
0.00
0.00
0.00
0.00
0.00
0.00
0.03
0.03
0.03
0.00
0.13
0.00
0.00
0.05
0.00
0.15
0.09
0.00
0.00
0.09
0.00
0.03
0.00
0.09
0.00
0.00
0.03
0.13
0.29
0.13
0.05
0.00
0.15
0.13
0.13
0.13
0.00
0.15
0.15
0.13
0.00
0.00
0.00
0.13
0.05
0.34
0.42
0.49
0.54
0.59
0.54
0.69
0.83
0.88
0.89
0.89
0.89
0.89
0.87
0.44
0.28
0.33
0.24
0.20
0.24
0.28
0.28
0.28
0.28
0.28
0.28
0.28
0.28
0.24
0.24
0.20
0.28
0.28
0.24
0.20
0.20
0.20
0.24
0.20
0.20
0.20
0.20
0.20
0.20
0.20
0.28
0.35
0.32
0.32
0.32
0.48
0.54
0.51
0.58
0.58
0.48
0.48
0.51
0.54
0.35
0.29
0.28
0.20
0.20
0.33
0.38
0.36
0.25
0.13
0.09
0.00
0.07
0.16
0.23
0.34
0.36
0.29
0.34
0.42
0.49
0.43
0.21
0.16
0.16
0.23
0.21
0.21
0.23
0.23
0.23
0.16
0.13
0.23
0.23
0.21
0.16
0.13
0.13
0.13
0.05
0.03
0.05
0.05
0.05
0.03
0.00
0.00
0.00
0.03
0.03
0.05
0.03
0.03
0.03
0.00
0.00
0.00
0.03
0.05
0.03
0.00
0.00
0.00
0.03
0.05
0.03
0.00
0.05
0.00
0.09
0.00
0.00
0.00
0.00
0.00
0.00
0.00
0.03
0.00
0.00
0.03
0.03
0.00
0.00
0.00
0.00
0.00
0.00
0.03
0.05
0.10
0.16
0.23
0.13
0.00
0.00
0.09
0.13
0.09
0.15
0.15
0.15
0.21
0.15
0.15
0.13
0.00
0.21
0.46
0.43
0.53
0.59
0.60
0.52
0.69
0.83
0.89
0.89
0.90
0.90
0.90
0.87
0.44
0.15
0.38
0.20
0.20
0.20
0.20
0.20
0.24
0.20
0.20
0.20
0.20
0.20
0.20
0.20
0.20
0.24
0.26
0.26
0.20
0.20
0.26
0.20
0.20
0.20
0.20
0.20
0.20
0.20
0.20
0.20
0.28
0.28
0.28
0.28
0.38
0.48
0.58
0.58
0.43
0.57
0.60
0.54
0.43
0.38
0.32
0.28
0.24
0.34
0.37
0.34
0.21
0.09
0.00
0.00
0.07
0.13
0.16
0.21
0.40
0.46
0.49
0.50
0.46
0.50
0.49
0.42
0.23
0.23
0.23
0.13
0.10
0.13
0.10
0.10
0.05
0.05
0.07
0.13
0.07
0.03
0.05
0.10
0.13
0.07
0.07
0.10
0.05
0.03
0.00
0.00
0.00
0.00
0.03
0.03
0.05
0.05
0.03
0.05
0.05
0.05
0.05
0.00
0.00
0.00
0.00
0.05
0.03
0.09
0.00
0.03
0.03
0.03
0.05
0.00
0.00
0.03
0.00
0.00
0.00
0.00
0.03
0.00
0.13
0.00
0.05
0.05
0.00
0.00
0.00
0.00
0.09
0.09
0.00
0.05
0.13
0.13
0.10
0.07
0.05
0.00
0.00
0.09
0.00
0.00
0.09
0.21
0.13
0.15
0.15
0.21
0.13
0.05
0.34
0.42
0.36
0.52
0.54
0.53
0.53
0.74
0.84
0.87
0.89
0.90
0.97
0.89
0.70
0.05
0.38
0.20
0.24
0.20
0.24
0.20
0.29
0.28
0.24
0.24
0.24
0.24
0.28
0.24
0.20
0.20
0.28
0.24
0.20
0.24
0.28
0.20
0.20
0.20
0.20
0.24
0.20
0.20
0.20
0.20
0.38
0.38
0.39
0.39
0.39
0.58
0.60
0.57
0.69
0.58
0.57
0.57
0.58
0.48
0.51
0.43
0.32
0.28
0.20
0.33
0.34
0.30
0.21
0.00
0.00
0.03
0.07
0.13
0.16
0.16
0.21
0.21
0.21
0.21
0.13
0.10
0.13
0.23
0.21
0.13
0.13
0.07
0.07
0.07
0.10
0.10
0.10
0.13
0.10
0.10
0.13
0.05
0.05
0.05
0.05
0.05
0.07
0.05
0.03
0.00
0.00
0.00
0.03
0.05
0.07
0.05
0.03
0.00
0.00
0.00
0.00
0.03
0.03
0.00
0.00
0.03
0.03
0.00
0.00
0.00
0.00
0.09
0.00
0.00
0.09
0.00
0.05
0.00
0.00
0.03
0.00
0.00
0.13
0.09
0.09
0.00
0.00
0.00
0.00
0.03
0.05
0.00
0.00
0.03
0.03
0.05
0.07
0.07
0.13
0.10
0.03
0.00
0.00
0.00
0.00
0.00
0.00
0.00
0.03
0.07
0.07
0.13
0.00
0.16
0.50
0.51
0.52
0.54
0.53
0.52
0.73
0.85
0.87
0.89
0.90
0.94
0.89
0.83
0.29
0.30
0.32
0.24
0.20
0.28
0.24
0.20
0.20
0.20
0.26
0.24
0.20
0.20
0.20
0.20
0.20
0.20
0.20
0.20
0.20
0.20
0.20
0.20
0.24
0.24
0.24
0.26
0.20
0.20
0.31
0.28
0.32
0.32
0.32
0.38
0.39
0.43
0.32
0.35
0.38
0.38
0.32
0.39
0.43
0.32
0.28
0.24
0.32
0.38
0.37
0.36
0.32
0.21
0.00
0.05
0.10
0.13
0.21
0.34
0.42
0.44
0.43
0.40
0.46
0.44
0.42
0.49
0.43
0.34
0.43
0.34
0.36
0.40
0.42
0.16
0.13
0.13
0.13
0.05
0.05
0.10
0.13
0.07
0.05
0.05
0.05
0.05
0.07
0.05
0.05
0.07
0.03
0.00
0.03
0.05
0.03
0.05
0.05
0.05
0.05
0.05
0.05
0.05
0.05
0.05
0.03
0.00
0.00
0.05
0.05
0.00
0.00
0.05
0.00
0.00
0.00
0.00
0.05
0.05
0.03
0.03
0.05
0.05
0.00
0.05
0.03
0.05
0.05
0.03
0.00
0.00
0.05
0.03
0.05
0.10
0.13
0.16
0.21
0.13
0.03
0.00
0.00
0.00
0.00
0.03
0.00
0.09
0.00
0.03
0.03
0.00
0.05
0.36
0.50
0.52
0.61
0.68
0.57
0.61
0.83
0.89
0.88
0.88
0.92
1.00
0.90
0.68
0.05
0.34
0.32
0.24
0.26
0.20
0.20
0.20
0.24
0.32
0.26
0.20
0.20
0.20
0.20
0.20
0.24
0.26
0.24
0.20
0.20
0.20
0.24
0.24
0.20
0.26
0.26
0.20
0.20
0.20
0.20
0.24
0.24
0.24
0.32
0.39
0.39
0.38
0.38
0.54
0.63
0.69
0.69
0.60
0.57
0.58
0.51
0.38
0.28
0.24
0.38
0.32
0.21
0.09
0.00
0.05
0.10
0.16
0.23
0.16
0.16
0.23
0.34
0.34
0.13
0.10
0.13
0.16
0.10
0.10
0.23
0.16
0.10
0.07
0.07
0.07
0.07
0.07
0.07
0.10
0.07
0.07
0.07
0.10
0.05
0.05
0.10
0.05
0.05
0.03
0.00
0.05
0.05
0.05
0.07
0.05
0.05
0.03
0.00
0.00
0.05
0.03
0.05
0.07
0.05
0.00
0.00
0.00
0.03
0.05
0.03
0.00
0.00
0.00
0.03
0.05
0.03
0.05
0.00
0.00
0.00
0.00
0.00
0.00
0.00
0.00
0.00
0.00
0.00
0.03
0.00
0.00
0.00
0.03
0.00
0.05
0.10
0.13
0.21
0.13
0.05
0.05
0.00
0.00
0.00
0.00
0.00
0.00
0.09
0.09
0.03
0.00
0.00
0.10
0.40
0.44
0.53
0.65
0.65
0.58
0.71
0.84
0.88
0.88
0.89
0.93
0.98
0.86
0.40
0.13
0.37
0.26
0.20
0.20
0.20
0.20
0.24
0.26
0.20
0.20
0.24
0.20
0.20
0.26
0.24
0.20
0.20
0.20
0.20
0.20
0.20
0.20
0.20
0.24
0.20
0.20
0.26
0.26
0.20
0.20
0.24
0.32
0.35
0.28
0.39
0.51
0.57
0.60
0.69
0.69
0.69
0.69
0.69
0.51
0.43
0.39
0.28
0.20
0.24
0.26
0.33
0.32
0.09
0.00
0.05
0.10
0.13
0.21
0.23
0.29
0.34
0.34
0.36
0.23
0.21
0.21
0.21
0.21
0.21
0.21
0.13
0.13
0.16
0.13
0.10
0.10
0.10
0.16
0.13
0.05
0.13
0.13
0.10
0.05
0.07
0.05
0.05
0.05
0.05
0.05
0.05
0.07
0.07
0.05
0.05
0.05
0.05
0.05
0.05
0.05
0.05
0.05
0.00
0.00
0.03
0.05
0.05
0.03
0.03
0.03
0.05
0.00
0.00
0.00
0.00
0.00
0.00
0.00
0.13
0.09
0.00
0.00
0.00
0.00
0.09
0.13
0.00
0.00
0.09
0.15
0.15
0.13
0.13
0.00
0.00
0.03
0.05
0.05
0.05
0.00
0.15
0.15
0.15
0.21
0.21
0.15
0.15
0.15
0.15
0.21
0.15
0.09
0.05
0.29
0.29
0.43
0.54
0.52
0.51
0.65
0.81
0.88
0.90
0.88
0.89
0.91
0.87
0.40
0.36
0.24
0.20
0.20
0.29
0.32
0.32
0.32
0.35
0.32
0.28
0.24
0.28
0.28
0.24
0.20
0.24
0.24
0.20
0.24
0.29
0.28
0.20
0.20
0.20
0.28
0.24
0.20
0.24
0.32
0.32
0.32
0.32
0.39
0.51
0.51
0.57
0.77
0.73
0.73
0.80
0.80
0.80
0.73
0.60
0.60
0.39
0.28
0.24
0.20
0.38
0.34
0.34
0.30
0.15
0.13
0.03
0.10
0.13
0.10
0.13
0.23
0.34
0.23
0.16
0.16
0.16
0.16
0.16
0.13
0.10
0.05
0.10
0.13
0.13
0.07
0.10
0.07
0.05
0.05
0.10
0.05
0.05
0.07
0.07
0.07
0.07
0.00
0.05
0.05
0.05
0.00
0.00
0.07
0.05
0.03
0.03
0.05
0.07
0.10
0.07
0.05
0.03
0.00
0.00
0.00
0.00
0.03
0.05
0.00
0.00
0.00
0.00
0.00
0.00
0.00
0.00
0.00
0.00
0.00
0.00
0.00
0.03
0.00
0.00
0.00
0.00
0.00
0.00
0.05
0.05
0.00
0.13
0.00
0.03
0.00
0.00
0.05
0.07
0.07
0.07
0.03
0.00
0.09
0.09
0.03
0.00
0.13
0.15
0.13
0.00
0.00
0.00
0.00
0.10
0.29
0.34
0.50
0.63
0.65
0.54
0.66
0.84
0.89
0.90
0.89
0.92
0.97
0.87
0.40
0.13
0.37
0.26
0.28
0.29
0.20
0.20
0.24
0.24
0.20
0.20
0.20
0.20
0.20
0.20
0.20
0.24
0.20
0.20
0.20
0.32
0.32
0.20
0.20
0.20
0.28
0.20
0.20
0.20
0.28
0.32
0.35
0.24
0.32
0.39
0.39
0.57
0.69
0.69
0.63
0.43
0.60
0.60
0.63
0.57
0.39
0.24
0.24
0.39
0.31
0.26
0.34
0.25
0.00
0.00
0.00
0.05
0.10
0.21
0.23
0.34
0.42
0.42
0.23
0.21
0.21
0.23
0.29
0.29
0.21
0.13
0.13
0.16
0.10
0.07
0.13
0.13
0.13
0.21
0.21
0.07
0.07
0.10
0.13
0.07
0.07
0.07
0.10
0.07
0.07
0.05
0.13
0.05
0.05
0.07
0.03
0.00
0.00
0.00
0.00
0.00
0.00
0.00
0.00
0.00
0.03
0.03
0.00
0.00
0.00
0.05
0.05
0.00
0.09
0.13
0.00
0.00
0.00
0.00
0.00
0.00
0.00
0.00
0.00
0.00
0.00
0.00
0.05
0.09
0.00
0.03
0.03
0.10
0.13
0.00
0.00
0.00
0.13
0.15
0.13
0.13
0.09
0.00
0.00
0.00
0.00
0.00
0.05
0.23
0.43
0.51
0.53
0.55
0.53
0.54
0.75
0.85
0.88
0.89
0.89
0.89
0.89
0.79
0.13
0.36
0.20
0.24
0.32
0.29
0.20
0.20
0.20
0.20
0.20
0.20
0.20
0.24
0.28
0.32
0.32
0.24
0.24
0.20
0.20
0.20
0.20
0.20
0.20
0.28
0.24
0.24
0.28
0.28
0.24
0.28
0.32
0.32
0.35
0.43
0.57
0.58
0.63
0.58
0.48
0.38
0.39
0.57
0.54
0.38
0.32
0.29
0.20
0.20
0.34
0.38
0.36
0.32
0.00
0.05
0.07
0.16
0.34
0.29
0.43
0.36
0.36
0.42
0.43
0.36
0.34
0.42
0.36
0.21
0.13
0.13
0.16
0.23
0.21
0.16
0.16
0.16
0.16
0.13
0.07
0.07
0.10
0.13
0.13
0.05
0.10
0.07
0.07
0.10
0.07
0.07
0.13
0.05
0.00
0.00
0.00
0.00
0.00
0.05
0.00
0.00
0.00
0.00
0.00
0.05
0.00
0.00
0.00
0.00
0.00
0.00
0.00
0.00
0.03
0.00
0.00
0.00
0.00
0.00
0.00
0.00
0.00
0.00
0.00
0.00
0.00
0.00
0.00
0.00
0.00
0.03
0.00
0.00
0.00
0.05
0.07
0.07
0.05
0.00
0.15
0.21
0.15
0.00
0.00
0.00
0.09
0.21
0.15
0.00
0.00
0.05
0.21
0.40
0.42
0.51
0.55
0.54
0.58
0.74
0.85
0.87
0.89
0.89
0.90
0.89
0.74
0.03
0.32
0.20
0.24
0.24
0.32
0.29
0.28
0.32
0.39
0.29
0.28
0.29
0.32
0.32
0.28
0.35
0.32
0.28
0.24
0.29
0.32
0.28
0.24
0.28
0.35
0.35
0.32
0.32
0.35
0.29
0.29
0.35
0.35
0.29
0.32
0.48
0.60
0.60
0.58
0.54
0.57
0.80
0.73
0.69
0.63
0.57
0.35
0.24
0.26
0.31
0.37
0.38
0.34
0.00
0.00
0.00
0.10
0.13
0.13
0.13
0.23
0.29
0.29
0.29
0.29
0.23
0.16
0.16
0.13
0.07
0.10
0.13
0.13
0.07
0.05
0.05
0.05
0.07
0.13
0.07
0.05
0.03
0.03
0.05
0.05
0.05
0.03
0.03
0.05
0.05
0.00
0.00
0.00
0.00
0.00
0.07
0.00
0.09
0.00
0.00
0.03
0.03
0.00
0.00
0.09
0.03
0.00
0.00
0.00
0.00
0.00
0.00
0.09
0.00
0.00
0.00
0.00
0.00
0.09
0.15
0.15
0.15
0.13
0.00
0.00
0.15
0.13
0.00
0.09
0.00
0.00
0.00
0.00
0.05
0.05
0.05
0.07
0.07
0.05
0.13
0.21
0.15
0.13
0.00
0.00
0.03
0.15
0.21
0.00
0.13
0.09
0.23
0.42
0.44
0.51
0.55
0.54
0.54
0.71
0.84
0.88
0.89
0.88
0.90
0.89
0.84
0.40
0.34
0.24
0.24
0.20
0.20
0.20
0.32
0.35
0.32
0.29
0.28
0.28
0.28
0.28
0.20
0.20
0.24
0.28
0.28
0.28
0.28
0.24
0.20
0.20
0.20
0.33
0.32
0.24
0.24
0.24
0.24
0.20
0.28
0.32
0.32
0.38
0.48
0.48
0.38
0.39
0.63
0.63
0.51
0.39
0.51
0.58
0.38
0.28
0.20
0.24
0.33
0.36
0.13
0.13
0.09
0.03
0.07
0.10
0.16
0.16
0.13
0.42
0.40
0.29
0.36
0.29
0.36
0.29
0.23
0.13
0.13
0.13
0.16
0.16
0.16
0.13
0.13
0.13
0.13
0.10
0.13
0.21
0.13
0.10
0.10
0.13
0.10
0.07
0.07
0.07
0.13
0.13
0.13
0.10
0.13
0.10
0.05
0.13
0.10
0.07
0.05
0.13
0.13
0.16
0.13
0.13
0.13
0.07
0.13
0.13
0.10
0.13
0.07
0.07
0.13
0.13
0.13
0.13
0.13
0.16
0.23
0.16
0.07
0.07
0.13
0.13
0.10
0.10
0.10
0.13
0.10
0.13
0.23
0.13
0.13
0.13
0.21
0.42
0.44
0.03
0.05
0.07
0.07
0.05
0.10
0.13
0.07
0.00
0.00
0.05
0.10
0.05
0.40
0.51
0.43
0.51
0.57
0.58
0.55
0.72
0.85
0.88
0.89
0.90
0.97
0.90
0.88
0.54
0.13
0.36
0.32
0.20
0.20
0.20
0.24
0.31
0.28
0.24
0.24
0.24
0.20
0.26
0.26
0.20
0.20
0.20
0.24
0.20
0.24
0.20
0.38
0.26
0.20
0.24
0.20
0.29
0.28
0.20
0.20
0.24
0.24
0.28
0.35
0.38
0.38
0.48
0.60
0.80
0.73
0.57
0.60
0.54
0.35
0.28
0.24
0.20
0.20
0.32
0.36
0.36
0.34
0.00
0.05
0.13
0.13
0.21
0.21
0.29
0.21
0.40
0.50
0.50
0.46
0.36
0.16
0.16
0.21
0.34
0.42
0.34
0.23
0.23
0.21
0.21
0.10
0.05
0.10
0.10
0.10
0.10
0.10
0.05
0.05
0.05
0.05
0.00
0.00
0.05
0.05
0.05
0.13
0.13
0.03
0.00
0.09
0.00
0.00
0.00
0.00
0.00
0.05
0.05
0.05
0.13
0.13
0.03
0.05
0.00
0.00
0.09
0.07
0.00
0.15
0.25
0.09
0.00
0.03
0.05
0.03
0.21
0.15
0.00
0.00
0.09
0.09
0.03
0.05
0.09
0.15
0.13
0.00
0.13
0.00
0.05
0.13
0.10
0.00
0.09
0.09
0.25
0.30
0.25
0.21
0.15
0.13
0.25
0.25
0.00
0.13
0.00
0.21
0.43
0.51
0.51
0.54
0.54
0.65
0.79
0.88
0.89
0.88
0.92
0.89
0.88
0.54
0.21
0.38
0.20
0.35
0.38
0.28
0.24
0.32
0.28
0.20
0.20
0.24
0.29
0.28
0.35
0.32
0.29
0.24
0.20
0.20
0.20
0.31
0.20
0.24
0.20
0.24
0.28
0.35
0.32
0.28
0.20
0.28
0.39
0.43
0.35
0.32
0.28
0.43
0.69
0.73
0.69
0.58
0.58
0.63
0.54
0.38
0.32
0.28
0.20
0.31
0.38
0.36
0.32
0.28
0.13
0.00
0.03
0.13
0.16
0.23
0.43
0.42
0.29
0.29
0.23
0.23
0.16
0.16
0.13
0.29
0.21
0.21
0.16
0.13
0.07
0.03
0.00
0.00
0.07
0.13
0.13
0.13
0.10
0.05
0.05
0.07
0.07
0.03
0.00
0.00
0.03
0.05
0.10
0.13
0.05
0.00
0.09
0.03
0.16
0.10
0.00
0.00
0.07
0.05
0.03
0.03
0.03
0.05
0.05
0.00
0.00
0.05
0.07
0.13
0.10
0.03
0.03
0.07
0.05
0.09
0.00
0.03
0.03
0.00
0.03
0.05
0.10
0.05
0.00
0.00
0.00
0.07
0.07
0.05
0.13
0.21
0.13
0.07
0.05
0.05
0.00
0.00
0.05
0.00
0.00
0.21
0.13
0.03
0.03
0.03
0.13
0.16
0.36
0.50
0.52
0.53
0.52
0.57
0.74
0.84
0.87
0.89
0.89
0.97
0.90
0.74
0.05
0.38
0.24
0.28
0.32
0.32
0.32
0.32
0.39
0.48
0.38
0.32
0.32
0.32
0.28
0.20
0.20
0.32
0.43
0.48
0.28
0.29
0.20
0.24
0.24
0.20
0.28
0.58
0.43
0.43
0.38
0.32
0.35
0.28
0.28
0.33
0.28
0.58
0.60
0.69
0.80
0.69
0.60
0.54
0.54
0.39
0.29
0.20
0.24
0.20
0.20
0.24
0.38
0.30
0.15
0.00
0.05
0.10
0.10
0.13
0.07
0.07
0.16
0.36
0.44
0.16
0.07
0.07
0.13
0.07
0.05
0.16
0.13
0.13
0.05
0.05
0.05
0.05
0.05
0.05
0.40
0.13
0.09
0.00
0.03
0.10
0.05
0.00
0.00
0.05
0.21
0.21
0.05
0.09
0.13
0.03
0.03
0.05
0.07
0.07
0.05
0.00
0.00
0.05
0.00
0.03
0.09
0.09
0.00
0.03
0.13
0.13
0.05
0.05
0.03
0.09
0.00
0.09
0.03
0.00
0.00
0.03
0.10
0.10
0.07
0.07
0.00
0.21
0.15
0.00
0.05
0.03
0.05
0.07
0.03
0.05
0.21
0.23
0.10
0.00
0.13
0.09
0.05
0.00
0.03
0.07
0.05
0.00
0.00
0.13
0.09
0.07
0.51
0.51
0.51
0.53
0.58
0.52
0.59
0.80
0.87
0.87
0.89
0.90
0.94
0.88
0.69
0.05
0.36
0.34
0.26
0.20
0.29
0.35
0.29
0.20
0.20
0.20
0.26
0.34
0.24
0.32
0.35
0.24
0.31
0.20
0.20
0.28
0.24
0.20
0.20
0.31
0.24
0.24
0.33
0.32
0.35
0.32
0.20
0.32
0.24
0.24
0.35
0.28
0.20
0.29
0.32
0.32
0.48
0.60
0.48
0.38
0.32
0.35
0.28
0.24
0.34
0.36
0.28
0.13
0.00
0.00
0.03
0.05
0.10
0.23
0.40
0.43
0.46
0.51
0.43
0.16
0.23
0.44
0.40
0.36
0.21
0.10
0.10
0.03
0.13
0.40
0.23
0.07
0.03
0.03
0.13
0.23
0.16
0.10
0.05
0.00
0.03
0.07
0.13
0.16
0.13
0.07
0.05
0.13
0.13
0.05
0.00
0.00
0.07
0.13
0.13
0.07
0.10
0.16
0.13
0.05
0.05
0.13
0.16
0.09
0.15
0.00
0.10
0.13
0.13
0.13
0.10
0.00
0.03
0.00
0.05
0.13
0.21
0.13
0.05
0.10
0.00
0.09
0.00
0.00
0.00
0.05
0.23
0.34
0.13
0.23
0.21
0.05
0.00
0.00
0.09
0.15
0.05
0.10
0.03
0.25
0.15
0.13
0.00
0.05
0.03
0.05
0.29
0.42
0.42
0.57
0.59
0.55
0.52
0.70
0.83
0.87
0.89
0.90
0.98
0.89
0.83
0.42
0.21
0.36
0.26
0.20
0.20
0.20
0.20
0.26
0.32
0.31
0.20
0.29
0.35
0.20
0.20
0.20
0.28
0.24
0.34
0.34
0.38
0.24
0.20
0.24
0.29
0.20
0.33
0.28
0.38
0.29
0.20
0.20
0.37
0.48
0.63
0.69
0.43
0.43
0.32
0.32
0.69
0.73
0.51
0.57
0.48
0.24
0.20
0.20
0.26
0.37
0.21
0.13
0.21
0.09
0.05
0.05
0.10
0.10
0.13
0.29
0.36
0.42
0.50
0.43
0.46
0.46
0.36
0.21
0.05
0.05
0.29
0.43
0.10
0.10
0.10
0.13
0.13
0.16
0.00
0.05
0.16
0.07
0.03
0.00
0.00
0.09
0.13
0.00
0.05
0.13
0.13
0.05
0.00
0.09
0.15
0.00
0.00
0.00
0.00
0.00
0.07
0.10
0.05
0.13
0.05
0.21
0.13
0.00
0.09
0.13
0.13
0.00
0.00
0.00
0.05
0.00
0.03
0.07
0.05
0.00
0.00
0.13
0.15
0.00
0.00
0.05
0.05
0.00
0.00
0.05
0.07
0.13
0.10
0.10
0.05
0.00
0.00
0.00
0.00
0.05
0.10
0.00
0.13
0.09
0.09
0.21
0.13
0.00
0.07
0.16
0.34
0.42
0.52
0.57
0.54
0.58
0.75
0.87
0.87
0.89
0.90
1.00
0.91
0.83
0.16
0.28
0.28
0.25
0.38
0.20
0.24
0.20
0.39
0.32
0.38
0.24
0.28
0.20
0.38
0.28
0.33
0.28
0.28
0.26
0.24
0.28
0.20
0.31
0.38
0.32
0.34
0.38
0.34
0.39
0.33
0.28
0.28
0.28
0.32
0.32
0.29
0.20
0.24
0.38
0.39
0.32
0.38
0.38
0.20
0.39
0.54
0.29
0.24
0.24
0.38
0.30
0.15
0.09
0.10
0.13
0.16
0.23
0.36
0.36
0.13
0.21
0.42
0.21
0.07
0.34
0.44
0.50
0.42
0.05
0.00
0.05
0.21
0.23
0.07
0.07
0.16
0.13
0.00
0.05
0.13
0.07
0.00
0.21
0.13
0.13
0.23
0.23
0.00
0.13
0.25
0.09
0.05
0.16
0.10
0.07
0.13
0.10
0.13
0.07
0.13
0.13
0.05
0.13
0.10
0.03
0.00
0.00
0.07
0.13
0.03
0.03
0.07
0.03
0.21
0.15
0.00
0.13
0.21
0.05
0.10
0.05
0.21
0.30
0.00
0.00
0.03
0.10
0.43
0.07
0.32
0.00
0.10
0.10
0.10
0.07
0.10
0.05
0.03
0.09
0.00
0.05
0.03
0.13
0.28
0.25
0.09
0.00
0.09
0.05
0.16
0.29
0.42
0.49
0.51
0.51
0.46
0.61
0.83
0.88
0.87
0.90
0.98
0.98
0.89
0.72
0.07
0.21
0.38
0.38
0.26
0.38
0.20
0.38
0.39
0.20
0.20
0.24
0.26
0.39
0.37
0.38
0.26
0.28
0.35
0.28
0.20
0.24
0.29
0.20
0.38
0.38
0.32
0.36
0.24
0.38
0.29
0.26
0.38
0.20
0.60
0.73
0.63
0.48
0.29
0.24
0.24
0.24
0.77
0.86
0.80
0.63
0.38
0.20
0.26
0.34
0.34
0.15
0.25
0.34
0.28
0.05
0.42
0.42
0.16
0.05
0.05
0.16
0.34
0.23
0.13
0.16
0.40
0.40
0.10
0.05
0.13
0.29
0.34
0.42
0.10
0.00
0.00
0.00
0.05
0.00
0.05
0.05
0.13
0.16
0.21
0.40
0.00
0.13
0.00
0.07
0.10
0.13
0.03
0.00
0.00
0.09
0.07
0.05
0.00
0.00
0.05
0.05
0.10
0.10
0.21
0.13
0.15
0.25
0.09
0.00
0.03
0.00
0.00
0.03
0.07
0.05
0.13
0.03
0.21
0.13
0.10
0.09
0.05
0.09
0.34
0.15
0.05
0.05
0.00
0.13
0.00
0.34
0.09
0.03
0.10
0.21
0.16
0.00
0.21
0.13
0.00
0.05
0.10
0.13
0.05
0.05
0.07
0.09
0.32
0.30
0.03
0.21
0.42
0.52
0.54
0.51
0.52
0.60
0.76
0.89
0.90
0.89
0.91
0.98
0.89
0.61
0.21
0.21
0.32
0.38
0.20
0.24
0.20
0.24
0.24
0.39
0.32
0.20
0.24
0.32
0.38
0.38
0.20
0.24
0.32
0.32
0.26
0.24
0.32
0.48
0.29
0.26
0.24
0.24
0.24
0.38
0.34
0.28
0.69
0.58
0.39
0.38
0.38
0.48
0.58
0.60
0.39
0.57
0.73
0.69
0.73
0.35
0.83
0.88
0.43
0.24
0.20
0.37
0.38
0.15
0.30
0.37
0.28
0.09
0.00
0.03
0.05
0.03
0.10
0.16
0.16
0.21
0.16
0.23
0.42
0.16
0.30
0.36
0.28
0.21
0.00
0.07
0.05
0.00
0.00
0.03
0.00
0.25
0.36
0.34
0.09
0.00
0.07
0.44
0.15
0.33
0.32
0.38
0.25
0.00
0.09
0.03
0.00
0.21
0.00
0.21
0.36
0.34
0.38
0.36
0.15
0.00
0.25
0.21
0.15
0.21
0.21
0.00
0.03
0.09
0.21
0.30
0.38
0.37
0.00
0.10
0.03
0.25
0.03
0.03
0.36
0.34
0.28
0.09
0.30
0.25
0.15
0.05
0.21
0.42
0.00
0.00
0.05
0.13
0.30
0.05
0.05
0.25
0.34
0.15
0.00
0.25
0.36
0.15
0.03
0.13
0.43
0.50
0.36
0.21
0.44
0.52
0.53
0.69
0.84
0.87
0.88
0.93
0.97
0.89
0.83
0.05
0.37
0.26
0.20
0.20
0.24
0.48
0.28
0.38
0.20
0.24
0.73
0.60
0.24
0.24
0.29
0.24
0.29
0.38
0.28
0.28
0.29
0.24
0.24
0.20
0.48
0.63
0.43
0.28
0.20
0.38
0.34
0.24
0.24
0.58
0.73
0.58
0.51
0.43
0.38
0.32
0.38
0.86
0.89
0.87
0.38
0.24
0.33
0.28
0.35
0.38
0.13
0.36
0.39
0.26
0.28
0.00
0.05
0.00
0.05
0.42
0.51
0.44
0.16
0.00
0.13
0.05
0.10
0.05
0.05
0.16
0.42
0.43
0.43
0.29
0.32
0.31
0.34
0.05
0.13
0.05
0.05
0.13
0.10
0.07
0.00
0.13
0.09
0.00
0.05
0.05
0.21
0.25
0.09
0.09
0.21
0.15
0.05
0.15
0.05
0.07
0.15
0.21
0.09
0.05
0.05
0.15
0.36
0.28
0.13
0.00
0.15
0.32
0.34
0.34
0.21
0.00
0.13
0.13
0.05
0.10
0.03
0.03
0.21
0.38
0.21
0.00
0.09
0.15
0.32
0.25
0.05
0.21
0.49
0.16
0.21
0.30
0.05
0.28
0.38
0.38
0.21
0.30
0.38
0.13
0.03
0.13
0.31
0.33
0.15
0.13
0.51
0.54
0.51
0.43
0.61
0.83
0.87
0.87
0.89
0.89
0.88
0.88
0.60
0.25
0.20
0.32
0.48
0.29
0.26
0.34
0.24
0.43
0.60
0.73
0.57
0.29
0.38
0.34
0.20
0.38
0.32
0.28
0.38
0.57
0.28
0.20
0.38
0.38
0.39
0.20
0.28
0.20
0.20
0.20
0.38
0.24
0.63
0.86
0.73
0.38
0.20
0.20
0.20
0.38
0.77
0.86
0.88
0.87
0.58
0.38
0.38
0.20
0.26
0.30
0.00
0.25
0.25
0.37
0.32
0.36
0.00
0.36
0.36
0.34
0.16
0.46
0.51
0.23
0.03
0.13
0.16
0.07
0.07
0.40
0.29
0.00
0.15
0.05
0.00
0.03
0.05
0.00
0.05
0.10
0.13
0.05
0.21
0.30
0.09
0.13
0.10
0.03
0.09
0.03
0.10
0.13
0.32
0.13
0.28
0.36
0.15
0.10
0.07
0.13
0.05
0.07
0.07
0.00
0.38
0.31
0.21
0.07
0.05
0.09
0.00
0.00
0.09
0.21
0.00
0.09
0.36
0.36
0.03
0.13
0.25
0.37
0.32
0.28
0.05
0.42
0.42
0.03
0.15
0.03
0.13
0.07
0.25
0.25
0.28
0.00
0.21
0.37
0.37
0.34
0.28
0.07
0.34
0.21
0.13
0.29
0.54
0.52
0.52
0.74
0.80
0.87
0.90
0.89
0.89
0.99
0.87
0.65
0.05
0.34
0.34
0.20
0.24
0.24
0.28
0.24
0.26
0.29
0.35
0.28
0.20
0.28
0.28
0.20
0.31
0.36
0.25
0.34
0.43
0.38
0.33
0.36
0.28
0.38
0.20
0.26
0.20
0.34
0.37
0.28
0.39
0.63
0.39
0.28
0.20
0.26
0.28
0.32
0.35
0.43
0.60
0.73
0.51
0.39
0.35
0.20
0.20
0.20
0.38
0.36
0.25
0.00
0.13
0.23
0.05
0.00
0.05
0.13
0.13
0.29
0.36
0.34
0.34
0.40
0.36
0.29
0.13
0.13
0.49
0.13
0.05
0.25
0.21
0.13
0.46
0.43
0.23
0.10
0.00
0.05
0.16
0.44
0.13
0.21
0.21
0.05
0.21
0.13
0.13
0.21
0.13
0.13
0.07
0.05
0.05
0.05
0.00
0.05
0.13
0.13
0.34
0.21
0.07
0.10
0.05
0.21
0.23
0.00
0.09
0.15
0.13
0.07
0.23
0.23
0.23
0.10
0.13
0.36
0.40
0.05
0.03
0.03
0.10
0.07
0.05
0.05
0.13
0.16
0.21
0.21
0.07
0.10
0.23
0.44
0.43
0.13
0.03
0.05
0.10
0.10
0.13
0.13
0.16
0.13
0.00
0.09
0.00
0.05
0.23
0.52
0.54
0.51
0.54
0.54
0.53
0.59
0.79
0.89
0.89
0.90
0.89
0.94
0.87
0.68
0.10
0.21
0.38
0.31
0.20
0.24
0.20
0.20
0.20
0.24
0.20
0.26
0.38
0.32
0.38
0.24
0.31
0.31
0.24
0.31
0.38
0.38
0.32
0.38
0.32
0.26
0.20
0.36
0.38
0.24
0.28
0.20
0.39
0.32
0.32
0.29
0.35
0.32
0.48
0.38
0.32
0.39
0.43
0.38
0.28
0.34
0.31
0.28
0.28
0.31
0.37
0.30
0.21
0.00
0.05
0.05
0.00
0.03
0.13
0.44
0.51
0.51
0.44
0.42
0.42
0.46
0.34
0.13
0.23
0.34
0.21
0.21
0.16
0.16
0.16
0.23
0.36
0.44
0.29
0.23
0.21
0.13
0.07
0.05
0.10
0.23
0.40
0.51
0.42
0.13
0.05
0.05
0.13
0.42
0.42
0.16
0.13
0.13
0.10
0.07
0.05
0.05
0.07
0.16
0.36
0.34
0.16
0.16
0.21
0.16
0.13
0.34
0.40
0.03
0.05
0.05
0.36
0.44
0.13
0.05
0.05
0.21
0.23
0.05
0.05
0.23
0.46
0.42
0.13
0.10
0.00
0.21
0.49
0.51
0.43
0.23
0.07
0.03
0.05
0.07
0.10
0.13
0.21
0.16
0.05
0.00
0.03
0.00
0.00
0.07
0.43
0.54
0.58
0.55
0.53
0.53
0.65
0.80
0.87
0.87
0.88
0.90
1.00
0.90
0.75
0.07
0.34
0.26
0.24
0.33
0.31
0.32
0.38
0.38
0.34
0.38
0.26
0.26
0.33
0.32
0.26
0.32
0.34
0.33
0.39
0.37
0.39
0.32
0.20
0.24
0.39
0.32
0.30
0.32
0.34
0.20
0.28
0.20
0.20
0.20
0.20
0.38
0.33
0.38
0.35
0.20
0.20
0.29
0.32
0.32
0.38
0.39
0.24
0.26
0.38
0.32
0.13
0.09
0.00
0.03
0.13
0.42
0.34
0.13
0.13
0.16
0.36
0.40
0.42
0.44
0.42
0.40
0.46
0.44
0.23
0.13
0.21
0.23
0.36
0.29
0.23
0.23
0.42
0.16
0.13
0.16
0.16
0.16
0.13
0.13
0.13
0.16
0.21
0.23
0.21
0.21
0.10
0.07
0.10
0.07
0.07
0.13
0.13
0.13
0.23
0.21
0.13
0.13
0.16
0.21
0.23
0.13
0.13
0.16
0.21
0.13
0.13
0.13
0.05
0.07
0.10
0.13
0.23
0.40
0.21
0.16
0.16
0.21
0.16
0.00
0.00
0.07
0.21
0.16
0.21
0.21
0.29
0.42
0.13
0.00
0.00
0.03
0.05
0.07
0.07
0.05
0.05
0.03
0.00
0.09
0.05
0.21
0.43
0.51
0.51
0.52
0.55
0.54
0.58
0.75
0.84
0.88
0.89
0.94
0.91
0.89
0.87
0.52
0.09
0.34
0.33
0.34
0.26
0.26
0.24
0.31
0.31
0.29
0.24
0.32
0.32
0.24
0.28
0.24
0.24
0.26
0.33
0.26
0.20
0.28
0.20
0.24
0.38
0.35
0.28
0.20
0.20
0.20
0.24
0.20
0.28
0.29
0.29
0.39
0.39
0.51
0.58
0.54
0.63
0.60
0.51
0.63
0.48
0.38
0.20
0.24
0.26
0.39
0.32
0.38
0.39
0.38
0.21
0.00
0.07
0.16
0.13
0.07
0.07
0.16
0.21
0.23
0.21
0.13
0.05
0.05
0.13
0.16
0.13
0.05
0.00
0.03
0.05
0.05
0.05
0.05
0.07
0.03
0.03
0.07
0.13
0.23
0.13
0.13
0.05
0.00
0.09
0.00
0.05
0.07
0.10
0.13
0.03
0.10
0.05
0.00
0.00
0.05
0.13
0.13
0.10
0.10
0.05
0.10
0.16
0.21
0.21
0.10
0.03
0.05
0.10
0.05
0.03
0.03
0.05
0.07
0.07
0.10
0.10
0.13
0.13
0.13
0.10
0.07
0.07
0.05
0.05
0.07
0.10
0.13
0.16
0.42
0.49
0.43
0.29
0.16
0.16
0.16
0.05
0.03
0.10
0.13
0.07
0.07
0.07
0.05
0.05
0.07
0.34
0.46
0.50
0.53
0.59
0.61
0.60
0.68
0.81
0.88
0.89
0.88
0.98
0.99
0.88
0.79
0.29
0.21
0.38
0.31
0.32
0.33
0.34
0.34
0.33
0.38
0.32
0.38
0.39
0.32
0.36
0.38
0.32
0.36
0.32
0.38
0.37
0.38
0.30
0.32
0.36
0.32
0.36
0.37
0.34
0.32
0.34
0.38
0.37
0.38
0.31
0.24
0.24
0.20
0.20
0.24
0.24
0.28
0.24
0.20
0.20
0.20
0.20
0.26
0.32
0.32
0.30
0.21
0.00
0.05
0.07
0.07
0.13
0.23
0.29
0.42
0.44
0.49
0.50
0.50
0.46
0.40
0.36
0.44
0.44
0.40
0.34
0.29
0.29
0.29
0.29
0.29
0.29
0.29
0.34
0.36
0.21
0.13
0.13
0.16
0.13
0.13
0.13
0.16
0.16
0.29
0.29
0.16
0.13
0.13
0.13
0.13
0.13
0.13
0.13
0.13
0.07
0.07
0.07
0.13
0.16
0.10
0.10
0.05
0.05
0.05
0.03
0.05
0.07
0.07
0.05
0.05
0.07
0.10
0.07
0.07
0.05
0.05
0.07
0.05
0.03
0.05
0.07
0.07
0.10
0.10
0.13
0.10
0.07
0.07
0.16
0.16
0.16
0.16
0.16
0.07
0.07
0.05
0.05
0.05
0.07
0.07
0.05
0.05
0.07
0.05
0.05
0.13
0.43
0.51
0.51
0.58
0.65
0.63
0.63
0.76
0.85
0.87
0.89
0.91
0.97
0.88
0.86
0.44
0.13
0.37
0.31
0.34
0.33
0.34
0.33
0.38
0.39
0.39
0.24
0.24
0.24
0.39
0.38
0.31
0.37
0.38
0.31
0.24
0.26
0.34
0.39
0.37
0.33
0.38
0.33
0.26
0.34
0.33
0.24
0.20
0.24
0.24
0.24
0.32
0.29
0.29
0.38
0.39
0.38
0.39
0.38
0.35
0.39
0.35
0.28
0.20
0.31
0.38
0.32
0.34
0.30
0.15
0.00
0.03
0.05
0.13
0.21
0.29
0.29
0.29
0.29
0.29
0.29
0.34
0.23
0.16
0.16
0.21
0.23
0.13
0.13
0.10
0.07
0.07
0.07
0.10
0.13
0.13
0.10
0.05
0.03
0.00
0.00
0.00
0.00
0.00
0.03
0.05
0.05
0.05
0.05
0.07
0.05
0.00
0.09
0.00
0.00
0.00
0.00
0.00
0.03
0.03
0.09
0.00
0.03
0.00
0.00
0.00
0.00
0.00
0.00
0.00
0.09
0.00
0.00
0.00
0.00
0.00
0.00
0.00
0.00
0.00
0.09
0.15
0.15
0.13
0.09
0.09
0.09
0.05
0.05
0.05
0.07
0.10
0.13
0.00
0.25
0.25
0.21
0.21
0.15
0.13
0.13
0.15
0.15
0.15
0.15
0.25
0.03
0.21
0.36
0.51
0.54
0.53
0.51
0.60
0.80
0.87
0.89
0.89
0.89
0.90
0.88
0.54
0.28
0.38
0.24
0.20
0.28
0.28
0.28
0.24
0.24
0.29
0.24
0.28
0.24
0.20
0.24
0.28
0.28
0.20
0.20
0.20
0.20
0.20
0.20
0.24
0.20
0.20
0.20
0.20
0.20
0.20
0.24
0.28
0.32
0.32
0.35
0.39
0.43
0.48
0.51
0.57
0.63
0.80
0.73
0.58
0.43
0.38
0.29
0.28
0.24
0.20
0.31
0.39
0.30
0.25
0.25
0.00
0.05
0.13
0.13
0.21
0.16
0.16
0.16
0.13
0.13
0.16
0.16
0.16
0.10
0.10
0.13
0.13
0.13
0.13
0.05
0.07
0.13
0.07
0.07
0.07
0.07
0.07
0.05
0.05
0.05
0.05
0.05
0.05
0.05
0.00
0.05
0.05
0.05
0.03
0.07
0.00
0.00
0.00
0.00
0.03
0.03
0.05
0.00
0.00
0.05
0.05
0.00
0.00
0.03
0.05
0.00
0.00
0.00
0.00
0.00
0.05
0.07
0.03
0.09
0.00
0.00
0.00
0.00
0.05
0.05
0.03
0.00
0.00
0.00
0.03
0.05
0.05
0.00
0.05
0.05
0.05
0.07
0.16
0.16
0.07
0.09
0.09
0.00
0.00
0.00
0.00
0.00
0.00
0.00
0.09
0.00
0.00
0.05
0.42
0.46
0.49
0.55
0.63
0.54
0.57
0.75
0.86
0.87
0.89
0.90
0.94
0.89
0.79
0.16
0.32
0.34
0.20
0.20
0.20
0.24
0.24
0.20
0.28
0.20
0.20
0.24
0.24
0.24
0.24
0.26
0.26
0.20
0.20
0.24
0.20
0.24
0.31
0.20
0.20
0.20
0.26
0.20
0.20
0.20
0.20
0.20
0.20
0.28
0.35
0.39
0.43
0.43
0.57
0.58
0.57
0.51
0.51
0.60
0.54
0.29
0.28
0.24
0.32
0.37
0.32
0.36
0.34
0.21
0.00
0.10
0.13
0.13
0.23
0.16
0.36
0.34
0.34
0.34
0.34
0.36
0.21
0.21
0.21
0.16
0.16
0.13
0.10
0.10
0.13
0.16
0.21
0.10
0.10
0.13
0.10
0.05
0.05
0.05
0.10
0.10
0.07
0.05
0.05
0.07
0.07
0.13
0.13
0.05
0.05
0.05
0.05
0.05
0.05
0.05
0.07
0.05
0.03
0.07
0.07
0.05
0.05
0.07
0.05
0.07
0.13
0.13
0.03
0.00
0.00
0.03
0.05
0.05
0.03
0.05
0.07
0.05
0.03
0.05
0.05
0.05
0.05
0.05
0.10
0.05
0.05
0.05
0.05
0.16
0.21
0.13
0.05
0.00
0.00
0.00
0.00
0.00
0.00
0.00
0.00
0.13
0.13
0.00
0.09
0.03
0.42
0.51
0.49
0.52
0.55
0.53
0.63
0.79
0.87
0.89
0.89
0.89
0.97
0.89
0.69
0.05
0.38
0.26
0.24
0.20
0.20
0.24
0.20
0.24
0.24
0.20
0.24
0.20
0.20
0.20
0.20
0.20
0.24
0.26
0.20
0.20
0.20
0.20
0.20
0.20
0.28
0.20
0.20
0.20
0.20
0.24
0.28
0.28
0.28
0.29
0.38
0.48
0.43
0.54
0.63
0.69
0.69
0.69
0.69
0.69
0.54
0.35
0.32
0.28
0.20
0.26
0.39
0.32
0.21
0.13
0.03
0.05
0.05
0.05
0.05
0.16
0.29
0.23
0.16
0.13
0.16
0.16
0.16
0.21
0.10
0.07
0.07
0.13
0.07
0.07
0.07
0.13
0.07
0.07
0.07
0.05
0.05
0.05
0.05
0.07
0.07
0.07
0.05
0.00
0.05
0.07
0.05
0.03
0.00
0.03
0.05
0.05
0.05
0.10
0.07
0.05
0.05
0.05
0.03
0.03
0.05
0.07
0.05
0.00
0.05
0.05
0.07
0.07
0.05
0.05
0.07
0.05
0.00
0.03
0.10
0.13
0.10
0.05
0.00
0.03
0.05
0.10
0.07
0.05
0.03
0.05
0.07
0.07
0.07
0.07
0.13
0.29
0.23
0.16
0.07
0.05
0.03
0.05
0.03
0.00
0.00
0.03
0.00
0.00
0.00
0.05
0.07
0.29
0.49
0.51
0.53
0.60
0.59
0.57
0.75
0.85
0.87
0.89
0.89
0.98
0.88
0.86
0.51
0.00
0.38
0.26
0.20
0.20
0.20
0.26
0.31
0.26
0.20
0.24
0.20
0.31
0.34
0.38
0.32
0.24
0.24
0.31
0.38
0.31
0.31
0.20
0.20
0.20
0.26
0.26
0.20
0.24
0.24
0.24
0.20
0.20
0.24
0.28
0.29
0.39
0.43
0.43
0.48
0.43
0.43
0.43
0.39
0.39
0.39
0.32
0.20
0.24
0.32
0.39
0.34
0.28
0.25
0.00
0.03
0.07
0.13
0.16
0.29
0.36
0.42
0.34
0.23
0.36
0.29
0.16
0.16
0.16
0.16
0.13
0.16
0.16
0.10
0.07
0.07
0.13
0.10
0.05
0.05
0.07
0.07
0.07
0.05
0.10
0.05
0.03
0.03
0.05
0.05
0.05
0.05
0.05
0.05
0.07
0.05
0.05
0.03
0.00
0.00
0.03
0.05
0.05
0.13
0.05
0.03
0.05
0.05
0.03
0.03
0.03
0.07
0.07
0.03
0.00
0.00
0.03
0.05
0.05
0.05
0.05
0.03
0.05
0.05
0.00
0.05
0.05
0.05
0.00
0.03
0.05
0.13
0.16
0.23
0.23
0.13
0.05
0.00
0.00
0.00
0.00
0.00
0.00
0.13
0.09
0.00
0.00
0.00
0.13
0.49
0.52
0.52
0.66
0.69
0.55
0.55
0.76
0.87
0.89
0.89
0.89
0.99
0.88
0.79
0.21
0.30
0.36
0.34
0.20
0.20
0.26
0.24
0.26
0.24
0.20
0.20
0.24
0.24
0.26
0.26
0.33
0.34
0.32
0.32
0.32
0.34
0.20
0.24
0.26
0.20
0.20
0.24
0.24
0.24
0.20
0.26
0.20
0.20
0.20
0.24
0.29
0.32
0.48
0.48
0.43
0.54
0.51
0.43
0.38
0.38
0.32
0.28
0.24
0.24
0.34
0.36
0.28
0.13
0.00
0.05
0.10
0.13
0.21
0.29
0.29
0.34
0.40
0.43
0.42
0.29
0.34
0.29
0.13
0.13
0.16
0.21
0.13
0.10
0.13
0.13
0.13
0.13
0.13
0.13
0.13
0.13
0.13
0.13
0.07
0.10
0.13
0.10
0.07
0.05
0.07
0.10
0.07
0.10
0.10
0.05
0.03
0.03
0.05
0.05
0.05
0.03
0.05
0.07
0.10
0.13
0.05
0.05
0.07
0.07
0.05
0.05
0.00
0.07
0.10
0.07
0.07
0.23
0.05
0.00
0.00
0.00
0.00
0.05
0.03
0.05
0.05
0.07
0.07
0.05
0.05
0.05
0.05
0.07
0.13
0.21
0.21
0.13
0.07
0.05
0.05
0.05
0.00
0.00
0.00
0.00
0.00
0.00
0.00
0.00
0.05
0.16
0.36
0.46
0.52
0.65
0.65
0.55
0.70
0.84
0.89
0.89
0.92
0.97
1.00
0.89
0.51
0.13
0.36
0.31
0.26
0.26
0.20
0.20
0.20
0.24
0.20
0.24
0.20
0.20
0.20
0.24
0.24
0.31
0.31
0.24
0.20
0.20
0.20
0.24
0.20
0.20
0.20
0.24
0.31
0.20
0.24
0.20
0.20
0.24
0.28
0.28
0.28
0.38
0.38
0.48
0.63
0.60
0.57
0.57
0.43
0.43
0.32
0.32
0.32
0.28
0.20
0.34
0.36
0.28
0.09
0.05
0.07
0.07
0.10
0.16
0.29
0.29
0.29
0.29
0.23
0.34
0.34
0.29
0.21
0.16
0.13
0.10
0.13
0.23
0.16
0.13
0.05
0.05
0.07
0.07
0.10
0.10
0.10
0.07
0.07
0.10
0.05
0.05
0.05
0.05
0.05
0.03
0.03
0.05
0.05
0.03
0.00
0.00
0.03
0.03
0.00
0.00
0.00
0.05
0.05
0.00
0.00
0.03
0.00
0.00
0.03
0.05
0.00
0.00
0.00
0.00
0.09
0.00
0.00
0.00
0.09
0.00
0.00
0.15
0.09
0.13
0.13
0.00
0.09
0.09
0.03
0.13
0.09
0.00
0.05
0.07
0.07
0.13
0.10
0.00
0.15
0.15
0.15
0.25
0.15
0.09
0.13
0.21
0.15
0.21
0.21
0.15
0.05
0.21
0.23
0.42
0.53
0.51
0.51
0.66
0.84
0.89
0.89
0.90
0.92
0.89
0.81
0.13
0.37
0.26
0.24
0.28
0.29
0.32
0.32
0.32
0.28
0.29
0.32
0.32
0.28
0.28
0.24
0.20
0.28
0.28
0.28
0.28
0.28
0.29
0.28
0.20
0.20
0.28
0.32
0.32
0.32
0.32
0.32
0.32
0.38
0.51
0.51
0.60
0.73
0.73
0.80
0.85
0.83
0.83
0.83
0.83
0.73
0.60
0.39
0.48
0.39
0.20
0.26
0.32
0.38
0.34
0.25
0.21
0.09
0.03
0.05
0.05
0.07
0.10
0.13
0.16
0.16
0.10
0.05
0.05
0.07
0.07
0.07
0.13
0.10
0.00
0.03
0.05
0.03
0.05
0.03
0.03
0.05
0.03
0.00
0.03
0.05
0.05
0.00
0.00
0.05
0.05
0.05
0.07
0.10
0.03
0.00
0.05
0.07
0.07
0.05
0.10
0.13
0.05
0.00
0.05
0.05
0.05
0.07
0.10
0.07
0.07
0.05
0.05
0.05
0.05
0.07
0.07
0.05
0.05
0.03
0.03
0.07
0.07
0.13
0.07
0.05
0.05
0.07
0.10
0.10
0.07
0.07
0.07
0.05
0.13
0.13
0.21
0.29
0.23
0.07
0.00
0.09
0.00
0.05
0.03
0.03
0.00
0.13
0.09
0.00
0.00
0.13
0.44
0.51
0.51
0.57
0.61
0.55
0.65
0.83
0.88
0.90
0.89
0.93
0.98
0.89
0.70
0.09
0.38
0.34
0.26
0.24
0.20
0.20
0.20
0.24
0.20
0.20
0.31
0.20
0.29
0.24
0.20
0.20
0.20
0.20
0.20
0.20
0.20
0.24
0.20
0.20
0.20
0.24
0.24
0.28
0.29
0.28
0.28
0.28
0.28
0.28
0.32
0.32
0.38
0.63
0.77
0.77
0.77
0.69
0.63
0.48
0.43
0.43
0.32
0.24
0.24
0.31
0.37
0.34
0.32
0.13
0.13
0.03
0.10
0.13
0.07
0.13
0.21
0.34
0.21
0.10
0.10
0.10
0.07
0.13
0.13
0.13
0.13
0.07
0.05
0.07
0.10
0.13
0.13
0.05
0.03
0.03
0.05
0.05
0.05
0.03
0.05
0.03
0.03
0.05
0.03
0.05
0.05
0.05
0.00
0.00
0.00
0.00
0.00
0.00
0.00
0.05
0.03
0.00
0.03
0.00
0.03
0.05
0.03
0.00
0.00
0.05
0.05
0.03
0.09
0.00
0.03
0.00
0.00
0.00
0.05
0.05
0.05
0.03
0.13
0.00
0.00
0.00
0.03
0.03
0.05
0.05
0.03
0.03
0.13
0.21
0.16
0.13
0.10
0.07
0.00
0.00
0.00
0.00
0.00
0.00
0.00
0.00
0.00
0.00
0.03
0.10
0.34
0.43
0.51
0.59
0.61
0.54
0.57
0.75
0.87
0.87
0.88
0.94
0.97
0.89
0.80
0.13
0.34
0.32
0.31
0.24
0.28
0.28
0.32
0.20
0.20
0.20
0.20
0.20
0.20
0.20
0.20
0.24
0.32
0.24
0.20
0.20
0.20
0.20
0.24
0.31
0.26
0.20
0.20
0.20
0.20
0.20
0.20
0.20
0.20
0.28
0.35
0.39
0.48
0.57
0.54
0.58
0.54
0.51
0.48
0.39
0.39
0.29
0.28
0.20
0.20
0.20
0.38
0.25
0.21
0.13
0.00
0.10
0.13
0.13
0.21
0.21
0.21
0.23
0.16
0.21
0.21
0.23
0.34
0.34
0.21
0.16
0.21
0.13
0.05
0.07
0.07
0.07
0.10
0.13
0.13
0.13
0.07
0.03
0.00
0.00
0.00
0.05
0.05
0.00
0.00
0.00
0.03
0.03
0.05
0.03
0.00
0.03
0.00
0.00
0.05
0.05
0.05
0.00
0.00
0.00
0.03
0.00
0.00
0.03
0.03
0.00
0.00
0.00
0.00
0.03
0.00
0.09
0.03
0.05
0.00
0.03
0.05
0.00
0.00
0.00
0.00
0.00
0.00
0.00
0.00
0.03
0.05
0.13
0.13
0.21
0.21
0.10
0.03
0.09
0.00
0.00
0.05
0.00
0.03
0.09
0.00
0.00
0.13
0.13
0.03
0.16
0.29
0.43
0.59
0.69
0.63
0.61
0.77
0.87
0.87
0.89
0.93
0.98
0.88
0.79
0.13
0.32
0.31
0.20
0.20
0.20
0.20
0.20
0.20
0.20
0.20
0.20
0.20
0.20
0.20
0.24
0.20
0.26
0.26
0.20
0.20
0.24
0.24
0.20
0.24
0.20
0.24
0.20
0.20
0.20
0.20
0.20
0.28
0.32
0.32
0.32
0.38
0.43
0.51
0.57
0.60
0.54
0.48
0.58
0.57
0.51
0.38
0.38
0.38
0.28
0.26
0.39
0.30
0.21
0.09
0.00
0.05
0.07
0.13
0.16
0.16
0.13
0.13
0.13
0.21
0.29
0.23
0.13
0.07
0.07
0.10
0.13
0.13
0.10
0.13
0.10
0.05
0.05
0.07
0.10
0.05
0.03
0.03
0.00
0.00
0.00
0.00
0.00
0.00
0.03
0.00
0.00
0.00
0.00
0.00
0.03
0.03
0.00
0.05
0.00
0.00
0.00
0.00
0.00
0.09
0.00
0.03
0.00
0.09
0.09
0.00
0.00
0.00
0.00
0.09
0.00
0.00
0.00
0.00
0.03
0.00
0.00
0.09
0.15
0.13
0.09
0.00
0.09
0.09
0.09
0.00
0.00
0.00
0.03
0.07
0.13
0.03
0.00
0.00
0.15
0.21
0.21
0.13
0.13
0.13
0.15
0.25
0.21
0.15
0.00
0.21
0.21
0.43
0.54
0.54
0.51
0.57
0.79
0.87
0.87
0.89
0.89
0.89
0.87
0.65
0.00
0.37
0.24
0.24
0.28
0.32
0.32
0.32
0.32
0.32
0.29
0.28
0.29
0.28
0.28
0.28
0.29
0.28
0.28
0.29
0.28
0.20
0.20
0.20
0.24
0.28
0.28
0.29
0.32
0.32
0.32
0.32
0.32
0.32
0.35
0.51
0.60
0.69
0.69
0.69
0.69
0.73
0.80
0.85
0.80
0.63
0.43
0.43
0.43
0.28
0.20
0.34
0.36
0.36
0.25
0.09
0.00
0.05
0.05
0.05
0.07
0.13
0.13
0.13
0.16
0.29
0.13
0.13
0.10
0.10
0.13
0.13
0.13
0.10
0.13
0.16
0.13
0.13
0.13
0.05
0.03
0.05
0.07
0.05
0.05
0.07
0.07
0.10
0.07
0.07
0.07
0.07
0.05
0.07
0.05
0.03
0.05
0.07
0.05
0.05
0.07
0.07
0.07
0.05
0.05
0.05
0.05
0.07
0.07
0.05
0.05
0.05
0.05
0.07
0.07
0.07
0.05
0.00
0.03
0.05
0.05
0.05
0.05
0.05
0.05
0.05
0.07
0.13
0.05
0.00
0.00
0.03
0.03
0.05
0.13
0.21
0.16
0.34
0.40
0.07
0.00
0.00
0.00
0.05
0.05
0.00
0.00
0.00
0.00
0.00
0.00
0.00
0.23
0.46
0.50
0.57
0.66
0.61
0.59
0.75
0.85
0.87
0.89
0.93
1.00
0.88
0.85
0.43
0.28
0.34
0.24
0.26
0.26
0.26
0.26
0.20
0.24
0.20
0.20
0.20
0.20
0.20
0.20
0.20
0.26
0.24
0.34
0.20
0.20
0.20
0.20
0.20
0.24
0.24
0.20
0.20
0.20
0.20
0.24
0.24
0.20
0.20
0.28
0.32
0.39
0.58
0.60
0.54
0.58
0.73
0.69
0.69
0.63
0.48
0.29
0.28
0.20
0.24
0.32
0.38
0.28
0.15
0.13
0.09
0.00
0.10
0.10
0.10
0.21
0.34
0.29
0.23
0.23
0.13
0.13
0.10
0.13
0.10
0.13
0.10
0.05
0.05
0.05
0.05
0.05
0.05
0.05
0.07
0.03
0.00
0.00
0.00
0.00
0.00
0.00
0.03
0.00
0.00
0.09
0.09
0.00
0.00
0.00
0.00
0.00
0.00
0.00
0.00
0.00
0.00
0.00
0.09
0.09
0.00
0.00
0.00
0.09
0.00
0.03
0.00
0.00
0.00
0.00
0.00
0.00
0.00
0.00
0.00
0.00
0.00
0.00
0.03
0.03
0.00
0.00
0.00
0.00
0.03
0.00
0.00
0.05
0.13
0.16
0.16
0.07
0.03
0.00
0.09
0.13
0.09
0.00
0.00
0.00
0.09
0.09
0.00
0.09
0.13
0.29
0.36
0.42
0.55
0.65
0.57
0.58
0.74
0.85
0.88
0.89
0.89
0.97
0.88
0.80
0.16
0.34
0.33
0.20
0.20
0.20
0.20
0.20
0.20
0.20
0.20
0.24
0.28
0.24
0.20
0.20
0.20
0.20
0.20
0.26
0.20
0.20
0.20
0.20
0.20
0.20
0.20
0.20
0.20
0.20
0.20
0.24
0.28
0.39
0.32
0.35
0.39
0.48
0.60
0.54
0.60
0.69
0.73
0.69
0.57
0.43
0.35
0.35
0.32
0.20
0.24
0.38
0.34
0.28
0.15
0.13
0.00
0.05
0.07
0.13
0.13
0.21
0.16
0.23
0.34
0.29
0.23
0.23
0.23
0.16
0.16
0.07
0.07
0.07
0.07
0.07
0.05
0.05
0.07
0.07
0.07
0.07
0.05
0.05
0.05
0.07
0.07
0.05
0.05
0.07
0.10
0.05
0.00
0.00
0.03
0.00
0.00
0.05
0.05
0.00
0.03
0.05
0.03
0.03
0.03
0.00
0.05
0.05
0.00
0.03
0.07
0.00
0.00
0.00
0.03
0.03
0.05
0.05
0.05
0.05
0.05
0.05
0.00
0.00
0.03
0.00
0.00
0.00
0.00
0.03
0.03
0.05
0.13
0.23
0.23
0.16
0.07
0.00
0.09
0.09
0.00
0.03
0.00
0.13
0.15
0.15
0.13
0.00
0.00
0.07
0.36
0.46
0.52
0.65
0.66
0.53
0.57
0.81
0.89
0.90
0.88
0.89
0.98
0.87
0.57
0.00
0.38
0.24
0.20
0.20
0.20
0.20
0.20
0.20
0.20
0.28
0.29
0.24
0.20
0.20
0.20
0.20
0.20
0.26
0.26
0.24
0.20
0.20
0.26
0.20
0.20
0.20
0.20
0.20
0.20
0.20
0.24
0.28
0.29
0.32
0.39
0.43
0.43
0.58
0.63
0.60
0.63
0.69
0.60
0.69
0.57
0.39
0.35
0.28
0.20
0.24
0.33
0.37
0.34
0.25
0.13
0.00
0.03
0.05
0.13
0.16
0.21
0.16
0.13
0.13
0.10
0.07
0.13
0.13
0.07
0.05
0.00
0.00
0.03
0.05
0.07
0.03
0.00
0.05
0.05
0.03
0.00
0.05
0.03
0.05
0.00
0.00
0.00
0.00
0.00
0.00
0.03
0.03
0.09
0.09
0.00
0.00
0.00
0.00
0.09
0.13
0.09
0.09
0.13
0.13
0.13
0.13
0.09
0.09
0.15
0.13
0.09
0.09
0.13
0.13
0.00
0.09
0.13
0.09
0.00
0.00
0.00
0.21
0.15
0.15
0.13
0.13
0.09
0.09
0.13
0.15
0.15
0.13
0.13
0.09
0.00
0.03
0.07
0.05
0.00
0.15
0.15
0.21
0.15
0.13
0.13
0.21
0.32
0.30
0.28
0.28
0.21
0.05
0.23
0.21
0.40
0.54
0.54
0.50
0.61
0.83
0.88
0.90
0.89
0.89
0.89
0.86
0.43
0.34
0.33
0.20
0.20
0.28
0.32
0.28
0.28
0.28
0.24
0.24
0.20
0.20
0.24
0.20
0.20
0.20
0.20
0.20
0.24
0.20
0.20
0.20
0.20
0.28
0.29
0.24
0.20
0.28
0.28
0.24
0.24
0.32
0.35
0.32
0.38
0.39
0.48
0.60
0.63
0.69
0.69
0.60
0.63
0.60
0.43
0.38
0.28
0.20
0.20
0.33
0.37
0.34
0.28
0.13
0.05
0.10
0.13
0.13
0.16
0.21
0.34
0.42
0.44
0.36
0.36
0.42
0.29
0.21
0.21
0.21
0.21
0.16
0.13
0.13
0.07
0.07
0.07
0.10
0.07
0.10
0.10
0.10
0.05
0.05
0.05
0.03
0.05
0.07
0.05
0.05
0.07
0.05
0.05
0.07
0.05
0.00
0.00
0.03
0.05
0.07
0.05
0.03
0.03
0.05
0.05
0.00
0.03
0.05
0.05
0.05
0.00
0.00
0.00
0.05
0.05
0.05
0.05
0.03
0.00
0.03
0.03
0.03
0.00
0.00
0.03
0.00
0.00
0.00
0.03
0.05
0.05
0.00
0.03
0.07
0.13
0.23
0.13
0.03
0.00
0.00
0.00
0.00
0.00
0.00
0.00
0.00
0.00
0.00
0.00
0.00
0.13
0.40
0.42
0.51
0.57
0.63
0.58
0.65
0.83
0.89
0.89
0.90
0.90
0.98
0.89
0.51
0.09
0.38
0.32
0.26
0.24
0.20
0.20
0.20
0.20
0.20
0.20
0.20
0.20
0.20
0.20
0.20
0.20
0.20
0.24
0.20
0.20
0.20
0.24
0.24
0.20
0.20
0.24
0.24
0.20
0.26
0.20
0.28
0.28
0.38
0.38
0.32
0.43
0.51
0.69
0.60
0.51
0.69
0.73
0.60
0.57
0.51
0.35
0.24
0.29
0.24
0.32
0.39
0.38
0.34
0.15
0.03
0.10
0.13
0.10
0.10
0.16
0.23
0.23
0.21
0.21
0.16
0.16
0.13
0.13
0.13
0.13
0.07
0.10
0.16
0.10
0.03
0.05
0.05
0.05
0.05
0.05
0.05
0.05
0.07
0.07
0.05
0.05
0.00
0.05
0.07
0.05
0.00
0.00
0.00
0.00
0.03
0.05
0.03
0.05
0.03
0.00
0.00
0.00
0.00
0.03
0.00
0.00
0.00
0.03
0.00
0.09
0.00
0.00
0.00
0.00
0.00
0.00
0.00
0.00
0.00
0.00
0.00
0.00
0.03
0.05
0.00
0.00
0.00
0.00
0.00
0.00
0.05
0.07
0.13
0.16
0.16
0.05
0.09
0.13
0.00
0.03
0.00
0.13
0.15
0.13
0.09
0.09
0.15
0.09
0.10
0.34
0.42
0.52
0.65
0.63
0.54
0.65
0.83
0.89
0.89
0.89
0.90
0.90
0.89
0.49
0.28
0.39
0.26
0.20
0.24
0.24
0.28
0.28
0.24
0.24
0.29
0.28
0.28
0.28
0.29
0.24
0.20
0.20
0.20
0.20
0.20
0.20
0.20
0.20
0.20
0.20
0.24
0.20
0.20
0.28
0.32
0.32
0.32
0.29
0.28
0.38
0.51
0.57
0.60
0.73
0.80
0.73
0.77
0.73
0.63
0.60
0.48
0.32
0.32
0.20
0.31
0.38
0.37
0.30
0.13
0.00
0.00
0.05
0.10
0.13
0.10
0.16
0.21
0.16
0.13
0.16
0.16
0.16
0.13
0.07
0.07
0.13
0.13
0.13
0.10
0.13
0.07
0.05
0.05
0.03
0.05
0.03
0.03
0.05
0.00
0.00
0.00
0.03
0.05
0.00
0.00
0.05
0.03
0.03
0.00
0.00
0.03
0.00
0.05
0.00
0.00
0.00
0.00
0.00
0.00
0.00
0.00
0.00
0.00
0.00
0.00
0.00
0.00
0.00
0.00
0.00
0.00
0.00
0.00
0.00
0.09
0.00
0.09
0.00
0.00
0.00
0.00
0.05
0.05
0.00
0.00
0.00
0.05
0.05
0.13
0.16
0.13
0.03
0.00
0.00
0.00
0.00
0.09
0.00
0.09
0.15
0.09
0.09
0.13
0.00
0.13
0.42
0.50
0.58
0.66
0.65
0.55
0.70
0.84
0.87
0.89
0.90
0.94
0.89
0.87
0.43
0.21
0.34
0.31
0.31
0.24
0.24
0.28
0.28
0.28
0.28
0.20
0.20
0.20
0.20
0.20
0.20
0.20
0.20
0.20
0.20
0.20
0.20
0.20
0.20
0.20
0.24
0.28
0.28
0.28
0.32
0.32
0.32
0.32
0.35
0.43
0.43
0.48
0.51
0.73
0.73
0.83
0.83
0.80
0.80
0.80
0.54
0.43
0.54
0.35
0.20
0.20
0.20
0.34
0.36
0.25
0.00
0.00
0.07
0.10
0.07
0.07
0.13
0.13
0.13
0.10
0.10
0.07
0.05
0.05
0.05
0.03
0.00
0.03
0.05
0.05
0.00
0.00
0.00
0.09
0.09
0.00
0.00
0.00
0.09
0.09
0.09
0.13
0.00
0.00
0.09
0.15
0.13
0.13
0.09
0.09
0.13
0.09
0.00
0.00
0.09
0.13
0.15
0.13
0.13
0.09
0.09
0.09
0.00
0.00
0.09
0.13
0.13
0.15
0.13
0.09
0.15
0.15
0.09
0.13
0.21
0.15
0.15
0.15
0.15
0.15
0.15
0.09
0.13
0.13
0.13
0.00
0.00
0.00
0.13
0.00
0.05
0.05
0.05
0.00
0.13
0.21
0.25
0.13
0.13
0.15
0.09
0.15
0.21
0.25
0.21
0.15
0.05
0.29
0.34
0.44
0.53
0.54
0.52
0.63
0.81
0.89
0.90
0.88
0.89
0.90
0.89
0.54
0.15
0.34
0.26
0.24
0.24
0.24
0.24
0.24
0.24
0.24
0.24
0.24
0.20
0.20
0.20
0.20
0.20
0.20
0.26
0.26
0.24
0.31
0.26
0.20
0.20
0.20
0.20
0.24
0.24
0.20
0.24
0.24
0.24
0.28
0.28
0.32
0.35
0.39
0.48
0.57
0.51
0.63
0.60
0.63
0.48
0.39
0.39
0.35
0.24
0.24
0.26
0.31
0.36
0.32
0.09
0.00
0.05
0.10
0.13
0.21
0.23
0.29
0.29
0.29
0.36
0.40
0.34
0.23
0.16
0.16
0.21
0.16
0.13
0.07
0.07
0.13
0.13
0.07
0.07
0.05
0.05
0.05
0.05
0.05
0.03
0.07
0.05
0.03
0.03
0.05
0.00
0.03
0.00
0.00
0.03
0.05
0.05
0.05
0.05
0.00
0.00
0.03
0.03
0.00
0.00
0.00
0.05
0.05
0.00
0.00
0.00
0.00
0.03
0.03
0.03
0.03
0.00
0.00
0.00
0.00
0.09
0.13
0.09
0.00
0.00
0.00
0.00
0.00
0.00
0.00
0.00
0.00
0.00
0.05
0.13
0.21
0.16
0.05
0.00
0.21
0.00
0.00
0.13
0.00
0.09
0.13
0.15
0.13
0.09
0.00
0.05
0.21
0.36
0.50
0.63
0.68
0.57
0.60
0.79
0.87
0.88
0.90
0.89
0.90
0.89
0.71
0.00
0.37
0.33
0.26
0.20
0.20
0.20
0.20
0.20
0.20
0.24
0.24
0.20
0.20
0.24
0.24
0.20
0.20
0.20
0.20
0.20
0.20
0.20
0.20
0.24
0.24
0.20
0.20
0.20
0.20
0.20
0.20
0.20
0.28
0.35
0.39
0.39
0.48
0.51
0.57
0.63
0.60
0.63
0.57
0.51
0.51
0.43
0.39
0.29
0.20
0.31
0.38
0.36
0.25
0.15
0.00
0.00
0.07
0.07
0.10
0.13
0.21
0.29
0.34
0.34
0.16
0.13
0.13
0.16
0.21
0.16
0.10
0.07
0.10
0.13
0.10
0.07
0.07
0.07
0.05
0.05
0.05
0.03
0.00
0.03
0.05
0.07
0.07
0.07
0.07
0.05
0.03
0.00
0.00
0.00
0.03
0.03
0.00
0.00
0.03
0.05
0.03
0.00
0.03
0.00
0.00
0.00
0.00
0.00
0.00
0.00
0.00
0.00
0.00
0.00
0.00
0.00
0.00
0.03
0.00
0.00
0.00
0.00
0.00
0.00
0.03
0.00
0.00
0.00
0.00
0.00
0.00
0.07
0.13
0.13
0.10
0.13
0.03
0.00
0.09
0.15
0.13
0.09
0.13
0.15
0.15
0.15
0.15
0.15
0.09
0.21
0.43
0.46
0.57
0.65
0.63
0.58
0.74
0.85
0.87
0.89
0.89
0.93
0.89
0.81
0.23
0.30
0.34
0.20
0.20
0.20
0.20
0.20
0.20
0.20
0.24
0.20
0.20
0.20
0.20
0.20
0.20
0.20
0.20
0.20
0.20
0.26
0.26
0.20
0.20
0.20
0.20
0.20
0.20
0.20
0.20
0.24
0.29
0.28
0.29
0.32
0.38
0.39
0.43
0.54
0.63
0.63
0.60
0.60
0.58
0.51
0.43
0.39
0.32
0.24
0.20
0.26
0.37
0.28
0.13
0.00
0.03
0.05
0.13
0.13
0.16
0.29
0.23
0.23
0.21
0.23
0.21
0.21
0.16
0.13
0.13
0.13
0.10
0.13
0.13
0.10
0.10
0.07
0.10
0.10
0.10
0.10
0.07
0.05
0.05
0.03
0.05
0.05
0.05
0.05
0.07
0.05
0.05
0.05
0.00
0.03
0.00
0.00
0.00
0.00
0.00
0.00
0.00
0.00
0.00
0.03
0.00
0.00
0.00
0.00
0.00
0.00
0.00
0.00
0.00
0.00
0.00
0.00
0.00
0.03
0.00
0.00
0.00
0.00
0.00
0.00
0.00
0.00
0.00
0.03
0.00
0.00
0.00
0.00
0.05
0.07
0.13
0.13
0.10
0.00
0.00
0.15
0.09
0.00
0.00
0.13
0.09
0.13
0.13
0.13
0.09
0.00
0.42
0.43
0.51
0.65
0.65
0.53
0.54
0.75
0.85
0.88
0.89
0.90
0.92
0.90
0.75
0.07
0.39
0.26
0.20
0.20
0.24
0.24
0.20
0.24
0.24
0.28
0.28
0.28
0.29
0.28
0.24
0.20
0.24
0.20
0.20
0.20
0.20
0.20
0.20
0.28
0.28
0.20
0.24
0.28
0.35
0.32
0.32
0.38
0.39
0.32
0.38
0.57
0.60
0.63
0.73
0.73
0.73
0.77
0.80
0.80
0.73
0.60
0.48
0.35
0.29
0.24
0.24
0.33
0.36
0.30
0.21
0.00
0.00
0.05
0.07
0.07
0.07
0.07
0.10
0.07
0.13
0.13
0.10
0.07
0.05
0.03
0.00
0.05
0.03
0.00
0.00
0.00
0.00
0.00
0.00
0.05
0.03
0.00
0.00
0.09
0.13
0.09
0.09
0.09
0.00
0.00
0.00
0.00
0.00
0.00
0.09
0.13
0.09
0.00
0.00
0.13
0.09
0.09
0.15
0.13
0.00
0.15
0.13
0.13
0.15
0.15
0.13
0.00
0.00
0.09
0.09
0.09
0.00
0.00
0.00
0.00
0.00
0.00
0.09
0.00
0.09
0.09
0.00
0.00
0.09
0.00
0.00
0.00
0.03
0.05
0.07
0.10
0.05
0.00
0.00
0.00
0.00
0.00
0.00
0.00
0.00
0.00
0.00
0.00
0.00
0.16
0.46
0.46
0.52
0.66
0.65
0.60
0.75
0.85
0.88
0.89
0.89
0.98
0.89
0.88
0.52
0.00
0.32
0.38
0.37
0.38
0.34
0.32
0.33
0.33
0.31
0.32
0.32
0.34
0.33
0.38
0.38
0.37
0.38
0.31
0.34
0.34
0.38
0.37
0.39
0.38
0.38
0.37
0.39
0.32
0.31
0.34
0.31
0.26
0.20
0.24
0.20
0.24
0.29
0.39
0.38
0.39
0.51
0.51
0.43
0.35
0.28
0.20
0.26
0.31
0.34
0.37
0.32
0.21
0.00
0.05
0.05
0.13
0.13
0.21
0.34
0.42
0.44
0.34
0.34
0.40
0.44
0.40
0.36
0.29
0.23
0.23
0.29
0.29
0.29
0.13
0.16
0.13
0.16
0.16
0.13
0.07
0.13
0.10
0.13
0.07
0.10
0.07
0.07
0.07
0.07
0.05
0.05
0.07
0.05
0.05
0.05
0.05
0.05
0.07
0.05
0.03
0.05
0.05
0.00
0.00
0.07
0.05
0.03
0.00
0.00
0.05
0.03
0.03
0.03
0.05
0.05
0.05
0.03
0.00
0.03
0.03
0.05
0.05
0.00
0.00
0.00
0.05
0.00
0.00
0.03
0.07
0.13
0.13
0.21
0.21
0.05
0.00
0.00
0.00
0.03
0.00
0.00
0.00
0.00
0.00
0.00
0.09
0.00
0.13
0.40
0.49
0.54
0.69
0.65
0.54
0.69
0.85
0.89
0.89
0.89
0.91
0.89
0.85
0.40
0.15
0.39
0.26
0.20
0.20
0.20
0.24
0.20
0.20
0.20
0.20
0.24
0.20
0.20
0.20
0.20
0.20
0.20
0.20
0.20
0.20
0.20
0.20
0.20
0.20
0.20
0.20
0.20
0.20
0.20
0.20
0.20
0.24
0.28
0.32
0.32
0.38
0.54
0.58
0.51
0.43
0.58
0.69
0.60
0.51
0.38
0.32
0.28
0.20
0.24
0.26
0.39
0.30
0.15
0.00
0.03
0.07
0.10
0.13
0.16
0.16
0.23
0.23
0.23
0.21
0.34
0.23
0.16
0.13
0.13
0.13
0.13
0.13
0.07
0.10
0.07
0.10
0.10
0.10
0.05
0.05
0.05
0.05
0.05
0.07
0.05
0.05
0.00
0.05
0.00
0.05
0.05
0.05
0.05
0.03
0.05
0.05
0.05
0.00
0.00
0.00
0.00
0.00
0.00
0.03
0.00
0.00
0.00
0.00
0.03
0.03
0.03
0.03
0.00
0.03
0.05
0.00
0.09
0.00
0.00
0.00
0.00
0.00
0.00
0.00
0.00
0.00
0.00
0.00
0.00
0.07
0.07
0.13
0.16
0.13
0.05
0.00
0.00
0.00
0.00
0.09
0.00
0.00
0.00
0.09
0.15
0.13
0.13
0.05
0.42
0.50
0.50
0.60
0.66
0.59
0.57
0.79
0.87
0.87
0.89
0.89
0.94
0.89
0.65
0.00
0.30
0.33
0.32
0.20
0.20
0.20
0.24
0.20
0.20
0.24
0.20
0.20
0.20
0.20
0.20
0.24
0.26
0.26
0.24
0.20
0.20
0.26
0.31
0.26
0.24
0.20
0.20
0.20
0.24
0.20
0.20
0.20
0.28
0.32
0.32
0.35
0.32
0.51
0.63
0.51
0.51
0.60
0.51
0.54
0.51
0.38
0.32
0.28
0.24
0.26
0.34
0.32
0.28
0.15
0.00
0.03
0.07
0.16
0.23
0.21
0.16
0.16
0.21
0.21
0.16
0.16
0.16
0.13
0.13
0.13
0.10
0.07
0.07
0.13
0.13
0.07
0.07
0.07
0.07
0.07
0.07
0.07
0.10
0.07
0.07
0.07
0.10
0.07
0.05
0.05
0.03
0.03
0.05
0.05
0.05
0.03
0.00
0.03
0.05
0.05
0.00
0.03
0.03
0.00
0.00
0.05
0.05
0.00
0.00
0.03
0.03
0.00
0.05
0.05
0.03
0.00
0.03
0.05
0.00
0.03
0.03
0.00
0.00
0.00
0.00
0.00
0.00
0.00
0.00
0.03
0.05
0.10
0.13
0.13
0.07
0.00
0.13
0.15
0.15
0.13
0.13
0.13
0.15
0.21
0.15
0.21
0.25
0.00
0.16
0.34
0.43
0.52
0.54
0.52
0.58
0.76
0.86
0.87
0.88
0.89
0.89
0.88
0.61
0.25
0.32
0.20
0.24
0.38
0.38
0.38
0.28
0.38
0.39
0.39
0.39
0.38
0.39
0.29
0.35
0.28
0.28
0.32
0.32
0.28
0.28
0.35
0.38
0.39
0.35
0.32
0.32
0.32
0.35
0.39
0.38
0.39
0.48
0.57
0.63
0.73
0.69
0.83
0.87
0.86
0.85
0.83
0.83
0.80
0.73
0.69
0.63
0.35
0.28
0.28
0.20
0.34
0.37
0.32
0.21
0.21
0.00
0.00
0.03
0.07
0.10
0.05
0.03
0.05
0.05
0.03
0.03
0.05
0.03
0.03
0.00
0.00
0.00
0.00
0.00
0.00
0.00
0.09
0.09
0.00
0.00
0.13
0.13
0.00
0.00
0.00
0.09
0.15
0.00
0.00
0.09
0.09
0.13
0.00
0.00
0.00
0.00
0.00
0.00
0.00
0.00
0.13
0.13
0.09
0.09
0.13
0.13
0.13
0.09
0.00
0.00
0.00
0.00
0.09
0.15
0.09
0.00
0.13
0.09
0.00
0.00
0.00
0.00
0.00
0.00
0.00
0.03
0.05
0.10
0.16
0.21
0.00
0.13
0.13
0.13
0.09
0.09
0.05
0.00
0.09
0.00
0.00
0.00
0.03
0.23
0.44
0.46
0.52
0.63
0.61
0.59
0.71
0.84
0.87
0.88
0.90
0.94
0.88
0.87
0.51
0.21
0.37
0.39
0.31
0.26
0.20
0.20
0.20
0.20
0.24
0.24
0.26
0.26
0.31
0.34
0.32
0.26
0.24
0.32
0.31
0.26
0.26
0.26
0.24
0.24
0.32
0.39
0.31
0.20
0.24
0.24
0.20
0.20
0.20
0.28
0.32
0.35
0.38
0.38
0.39
0.54
0.60
0.60
0.57
0.48
0.35
0.29
0.28
0.20
0.32
0.38
0.30
0.25
0.13
0.00
0.00
0.03
0.13
0.16
0.16
0.29
0.21
0.29
0.34
0.34
0.34
0.34
0.29
0.16
0.16
0.21
0.29
0.21
0.10
0.07
0.07
0.07
0.07
0.07
0.05
0.05
0.03
0.05
0.05
0.05
0.05
0.05
0.05
0.05
0.05
0.05
0.05
0.05
0.03
0.03
0.05
0.00
0.00
0.00
0.00
0.07
0.07
0.05
0.00
0.00
0.05
0.00
0.00
0.05
0.03
0.03
0.00
0.00
0.05
0.03
0.00
0.00
0.00
0.00
0.00
0.00
0.00
0.00
0.00
0.00
0.00
0.05
0.05
0.03
0.03
0.05
0.05
0.13
0.16
0.13
0.05
0.00
0.00
0.00
0.00
0.00
0.00
0.00
0.13
0.13
0.13
0.13
0.00
0.10
0.43
0.46
0.52
0.65
0.65
0.58
0.65
0.83
0.88
0.90
0.88
0.90
0.89
0.88
0.58
0.00
0.37
0.26
0.20
0.20
0.20
0.20
0.20
0.20
0.20
0.20
0.20
0.20
0.20
0.20
0.20
0.20
0.20
0.24
0.26
0.24
0.26
0.20
0.20
0.20
0.20
0.20
0.20
0.20
0.20
0.20
0.24
0.20
0.28
0.32
0.32
0.32
0.39
0.57
0.69
0.69
0.69
0.69
0.54
0.48
0.48
0.38
0.32
0.24
0.20
0.33
0.37
0.32
0.15
0.00
0.00
0.00
0.03
0.10
0.16
0.36
0.23
0.29
0.23
0.29
0.23
0.21
0.21
0.21
0.16
0.16
0.16
0.16
0.13
0.10
0.07
0.07
0.10
0.07
0.07
0.10
0.13
0.10
0.07
0.07
0.05
0.05
0.05
0.05
0.05
0.03
0.00
0.03
0.05
0.00
0.00
0.05
0.05
0.05
0.07
0.05
0.05
0.05
0.05
0.05
0.05
0.05
0.03
0.03
0.03
0.00
0.00
0.05
0.00
0.00
0.03
0.00
0.00
0.00
0.00
0.03
0.00
0.00
0.00
0.00
0.00
0.00
0.00
0.00
0.00
0.05
0.10
0.13
0.16
0.13
0.05
0.00
0.00
0.00
0.00
0.09
0.09
0.13
0.21
0.25
0.25
0.30
0.15
0.13
0.34
0.34
0.52
0.66
0.63
0.55
0.71
0.83
0.89
0.89
0.90
0.90
0.90
0.83
0.23
0.38
0.26
0.20
0.20
0.28
0.24
0.20
0.24
0.32
0.39
0.35
0.32
0.35
0.32
0.29
0.28
0.32
0.29
0.28
0.28
0.28
0.24
0.32
0.43
0.39
0.35
0.32
0.39
0.38
0.38
0.28
0.29
0.38
0.54
0.58
0.80
0.85
0.85
0.86
0.88
0.88
0.88
0.87
0.83
0.60
0.48
0.43
0.43
0.35
0.24
0.33
0.38
0.38
0.36
0.25
0.09
0.03
0.07
0.07
0.13
0.13
0.13
0.13
0.16
0.16
0.16
0.21
0.07
0.07
0.07
0.05
0.05
0.05
0.05
0.05
0.05
0.00
0.05
0.03
0.00
0.05
0.05
0.09
0.00
0.13
0.09
0.13
0.09
0.09
0.00
0.09
0.15
0.09
0.00
0.00
0.15
0.25
0.15
0.13
0.15
0.13
0.09
0.09
0.13
0.21
0.21
0.28
0.09
0.00
0.09
0.32
0.30
0.15
0.25
0.25
0.25
0.15
0.25
0.25
0.00
0.15
0.30
0.25
0.25
0.21
0.21
0.30
0.28
0.21
0.09
0.03
0.05
0.05
0.00
0.13
0.25
0.32
0.30
0.21
0.25
0.32
0.30
0.28
0.32
0.38
0.36
0.25
0.05
0.23
0.23
0.42
0.53
0.53
0.51
0.59
0.80
0.88
0.89
0.89
0.88
0.90
0.86
0.42
0.34
0.24
0.43
0.51
0.54
0.51
0.54
0.48
0.39
0.39
0.43
0.43
0.39
0.35
0.28
0.29
0.32
0.29
0.28
0.29
0.28
0.24
0.24
0.24
0.28
0.29
0.35
0.32
0.32
0.29
0.28
0.32
0.32
0.39
0.51
0.63
0.57
0.63
0.69
0.83
0.86
0.83
0.83
0.73
0.73
0.69
0.54
0.43
0.35
0.28
0.20
0.32
0.37
0.32
0.25
0.09
0.00
0.05
0.07
0.13
0.13
0.13
0.10
0.13
0.16
0.13
0.13
0.10
0.10
0.10
0.10
0.07
0.05
0.07
0.05
0.05
0.07
0.07
0.05
0.05
0.03
0.03
0.03
0.05
0.07
0.00
0.00
0.03
0.05
0.07
0.05
0.00
0.00
0.03
0.05
0.05
0.05
0.07
0.05
0.00
0.05
0.07
0.03
0.09
0.00
0.03
0.03
0.03
0.00
0.00
0.05
0.07
0.10
0.10
0.00
0.00
0.05
0.05
0.05
0.03
0.03
0.13
0.10
0.07
0.05
0.05
0.03
0.05
0.10
0.13
0.13
0.13
0.42
0.49
0.42
0.21
0.13
0.10
0.07
0.07
0.10
0.13
0.16
0.10
0.05
0.10
0.10
0.13
0.42
0.53
0.53
0.58
0.69
0.69
0.65
0.76
0.87
0.87
0.89
0.97
0.98
0.98
0.89
0.52
0.00
0.36
0.38
0.26
0.26
0.37
0.37
0.33
0.26
0.24
0.33
0.37
0.34
0.34
0.39
0.38
0.37
0.36
0.36
0.38
0.38
0.38
0.39
0.36
0.32
0.34
0.36
0.34
0.34
0.36
0.34
0.37
0.38
0.32
0.26
0.26
0.20
0.20
0.20
0.28
0.29
0.28
0.24
0.24
0.24
0.29
0.24
0.26
0.34
0.36
0.25
0.15
0.13
0.03
0.10
0.21
0.29
0.42
0.51
0.51
0.51
0.51
0.52
0.51
0.51
0.51
0.51
0.50
0.51
0.51
0.46
0.44
0.44
0.50
0.44
0.34
0.40
0.42
0.23
0.23
0.29
0.29
0.23
0.16
0.16
0.16
0.10
0.10
0.10
0.10
0.13
0.13
0.13
0.13
0.10
0.13
0.13
0.13
0.05
0.05
0.05
0.10
0.10
0.10
0.13
0.13
0.10
0.07
0.07
0.07
0.07
0.07
0.10
0.13
0.10
0.07
0.10
0.07
0.07
0.07
0.07
0.05
0.03
0.03
0.07
0.07
0.10
0.05
0.10
0.13
0.21
0.29
0.34
0.23
0.10
0.05
0.05
0.05
0.07
0.05
0.05
0.03
0.03
0.00
0.00
0.00
0.05
0.29
0.46
0.51
0.54
0.65
0.66
0.63
0.73
0.85
0.87
0.89
0.90
0.97
0.94
0.88
0.54
0.09
0.34
0.39
0.32
0.26
0.24
0.32
0.39
0.20
0.24
0.32
0.31
0.26
0.34
0.33
0.26
0.26
0.20
0.26
0.33
0.34
0.32
0.26
0.26
0.33
0.39
0.33
0.32
0.31
0.20
0.20
0.20
0.20
0.28
0.29
0.29
0.38
0.39
0.48
0.43
0.51
0.63
0.58
0.54
0.43
0.39
0.29
0.28
0.20
0.33
0.38
0.36
0.32
0.25
0.00
0.05
0.10
0.10
0.13
0.21
0.29
0.34
0.36
0.42
0.40
0.40
0.29
0.21
0.21
0.21
0.13
0.13
0.16
0.13
0.13
0.13
0.16
0.10
0.05
0.07
0.10
0.05
0.07
0.07
0.05
0.05
0.07
0.05
0.05
0.03
0.00
0.00
0.03
0.05
0.05
0.05
0.05
0.05
0.07
0.05
0.03
0.05
0.00
0.00
0.03
0.05
0.00
0.00
0.05
0.03
0.00
0.05
0.05
0.00
0.00
0.03
0.03
0.03
0.05
0.03
0.00
0.00
0.00
0.00
0.00
0.00
0.00
0.07
0.03
0.03
0.13
0.13
0.13
0.13
0.03
0.00
0.00
0.00
0.00
0.05
0.05
0.00
0.00
0.13
0.13
0.13
0.00
0.13
0.42
0.43
0.58
0.68
0.65
0.60
0.72
0.84
0.88
0.89
0.90
0.98
0.90
0.88
0.51
0.15
0.36
0.33
0.24
0.20
0.26
0.20
0.20
0.20
0.20
0.20
0.20
0.24
0.26
0.20
0.20
0.20
0.20
0.20
0.24
0.24
0.26
0.26
0.24
0.20
0.24
0.33
0.26
0.20
0.20
0.24
0.28
0.28
0.28
0.28
0.28
0.38
0.48
0.51
0.60
0.69
0.69
0.58
0.54
0.60
0.58
0.48
0.32
0.28
0.20
0.33
0.34
0.30
0.13
0.00
0.05
0.10
0.13
0.16
0.16
0.29
0.29
0.36
0.21
0.21
0.29
0.29
0.16
0.16
0.29
0.21
0.13
0.13
0.13
0.21
0.13
0.05
0.05
0.07
0.10
0.10
0.10
0.07
0.05
0.05
0.05
0.07
0.07
0.05
0.05
0.05
0.00
0.00
0.00
0.00
0.00
0.05
0.07
0.00
0.00
0.00
0.00
0.03
0.03
0.05
0.05
0.00
0.09
0.00
0.09
0.00
0.03
0.00
0.00
0.00
0.09
0.00
0.00
0.00
0.00
0.00
0.00
0.09
0.13
0.09
0.13
0.13
0.09
0.13
0.13
0.00
0.03
0.05
0.07
0.07
0.25
0.25
0.21
0.21
0.21
0.28
0.28
0.28
0.32
0.32
0.32
0.25
0.15
0.05
0.21
0.16
0.46
0.55
0.54
0.51
0.65
0.83
0.89
0.90
0.89
0.89
0.89
0.85
0.42
0.38
0.24
0.20
0.28
0.28
0.28
0.28
0.28
0.32
0.32
0.28
0.32
0.32
0.32
0.29
0.24
0.28
0.28
0.32
0.29
0.20
0.28
0.28
0.28
0.28
0.28
0.29
0.32
0.28
0.28
0.29
0.39
0.38
0.51
0.60
0.69
0.69
0.69
0.80
0.83
0.77
0.69
0.77
0.83
0.80
0.77
0.69
0.54
0.29
0.20
0.26
0.38
0.32
0.15
0.09
0.00
0.07
0.07
0.07
0.16
0.13
0.13
0.07
0.13
0.10
0.07
0.07
0.07
0.05
0.03
0.05
0.00
0.05
0.05
0.00
0.00
0.00
0.00
0.00
0.00
0.00
0.03
0.00
0.09
0.09
0.00
0.00
0.00
0.00
0.00
0.09
0.13
0.13
0.13
0.09
0.00
0.00
0.00
0.00
0.00
0.03
0.00
0.09
0.09
0.09
0.09
0.00
0.00
0.00
0.05
0.00
0.00
0.00
0.00
0.00
0.03
0.05
0.05
0.03
0.03
0.05
0.00
0.00
0.00
0.00
0.00
0.05
0.07
0.07
0.05
0.03
0.05
0.10
0.13
0.21
0.16
0.03
0.13
0.09
0.05
0.05
0.00
0.00
0.05
0.09
0.00
0.03
0.00
0.00
0.42
0.51
0.50
0.55
0.57
0.55
0.57
0.80
0.87
0.88
0.90
0.89
0.98
0.89
0.79
0.21
0.25
0.38
0.31
0.20
0.20
0.20
0.20
0.20
0.20
0.20
0.20
0.26
0.26
0.20
0.20
0.20
0.20
0.26
0.24
0.20
0.20
0.20
0.20
0.26
0.26
0.20
0.20
0.28
0.29
0.20
0.20
0.20
0.29
0.35
0.32
0.32
0.35
0.48
0.69
0.73
0.58
0.60
0.69
0.73
0.51
0.29
0.24
0.20
0.20
0.33
0.37
0.32
0.25
0.00
0.05
0.07
0.07
0.13
0.23
0.21
0.21
0.29
0.29
0.34
0.36
0.43
0.16
0.13
0.16
0.13
0.03
0.00
0.05
0.07
0.05
0.05
0.00
0.00
0.03
0.10
0.07
0.03
0.00
0.00
0.00
0.00
0.00
0.00
0.00
0.09
0.13
0.00
0.00
0.09
0.00
0.00
0.09
0.13
0.09
0.09
0.00
0.09
0.00
0.00
0.00
0.00
0.00
0.00
0.00
0.00
0.00
0.00
0.00
0.00
0.09
0.00
0.09
0.03
0.00
0.00
0.00
0.00
0.03
0.03
0.00
0.00
0.00
0.00
0.00
0.03
0.10
0.10
0.05
0.00
0.13
0.13
0.13
0.09
0.00
0.00
0.00
0.09
0.15
0.25
0.21
0.15
0.00
0.23
0.49
0.43
0.51
0.54
0.52
0.52
0.70
0.84
0.88
0.89
0.90
0.94
0.89
0.72
0.03
0.31
0.20
0.29
0.32
0.32
0.32
0.28
0.32
0.28
0.24
0.24
0.28
0.24
0.20
0.20
0.20
0.20
0.24
0.20
0.20
0.20
0.24
0.20
0.24
0.24
0.20
0.20
0.20
0.20
0.20
0.20
0.24
0.24
0.28
0.39
0.28
0.32
0.35
0.38
0.38
0.39
0.32
0.38
0.32
0.32
0.32
0.24
0.32
0.34
0.38
0.30
0.15
0.00
0.05
0.13
0.23
0.29
0.29
0.34
0.44
0.51
0.51
0.49
0.46
0.50
0.51
0.50
0.44
0.29
0.29
0.34
0.34
0.36
0.49
0.43
0.44
0.34
0.34
0.29
0.29
0.21
0.07
0.07
0.07
0.07
0.10
0.13
0.07
0.13
0.13
0.10
0.07
0.07
0.10
0.13
0.07
0.07
0.07
0.07
0.10
0.10
0.07
0.07
0.07
0.07
0.07
0.07
0.07
0.10
0.10
0.13
0.13
0.10
0.13
0.13
0.10
0.10
0.13
0.10
0.10
0.13
0.10
0.10
0.10
0.13
0.16
0.23
0.29
0.46
0.50
0.44
0.23
0.13
0.13
0.16
0.13
0.10
0.05
0.05
0.05
0.05
0.05
0.07
0.13
0.42
0.51
0.53
0.63
0.73
0.72
0.71
0.79
0.86
0.87
0.89
0.97
1.00
0.98
0.89
0.51
0.03
0.15
0.32
0.36
0.37
0.37
0.37
0.37
0.38
0.39
0.33
0.38
0.37
0.37
0.37
0.37
0.38
0.36
0.37
0.37
0.38
0.38
0.37
0.37
0.37
0.37
0.37
0.38
0.38
0.37
0.39
0.39
0.33
0.20
0.20
0.20
0.24
0.24
0.29
0.28
0.32
0.32
0.32
0.32
0.29
0.28
0.20
0.20
0.32
0.36
0.32
0.28
0.00
0.03
0.05
0.13
0.13
0.23
0.42
0.49
0.46
0.43
0.44
0.46
0.46
0.49
0.44
0.40
0.36
0.40
0.36
0.34
0.34
0.34
0.34
0.29
0.21
0.21
0.21
0.16
0.21
0.23
0.21
0.13
0.13
0.13
0.16
0.16
0.13
0.13
0.13
0.13
0.13
0.13
0.13
0.10
0.13
0.07
0.07
0.07
0.07
0.05
0.05
0.07
0.07
0.10
0.07
0.05
0.05
0.05
0.03
0.00
0.03
0.05
0.05
0.05
0.07
0.05
0.05
0.00
0.00
0.00
0.00
0.00
0.00
0.00
0.00
0.00
0.00
0.05
0.10
0.13
0.13
0.13
0.00
0.00
0.13
0.00
0.00
0.09
0.13
0.15
0.15
0.15
0.15
0.21
0.13
0.07
0.21
0.29
0.49
0.55
0.55
0.52
0.61
0.80
0.88
0.89
0.90
0.90
0.88
0.89
0.52
0.28
0.26
0.20
0.28
0.28
0.29
0.28
0.28
0.28
0.35
0.32
0.29
0.28
0.24
0.24
0.20
0.24
0.24
0.24
0.20
0.20
0.29
0.24
0.24
0.28
0.32
0.32
0.28
0.28
0.32
0.32
0.32
0.35
0.35
0.39
0.58
0.69
0.69
0.77
0.83
0.83
0.83
0.83
0.80
0.77
0.69
0.69
0.60
0.35
0.28
0.20
0.31
0.39
0.32
0.30
0.13
0.00
0.00
0.00
0.07
0.13
0.13
0.07
0.07
0.07
0.07
0.10
0.13
0.10
0.05
0.07
0.07
0.07
0.07
0.07
0.05
0.05
0.07
0.05
0.03
0.00
0.00
0.00
0.00
0.00
0.05
0.05
0.03
0.07
0.05
0.03
0.03
0.05
0.05
0.00
0.00
0.00
0.05
0.05
0.07
0.05
0.05
0.05
0.07
0.07
0.03
0.07
0.13
0.13
0.07
0.07
0.07
0.05
0.05
0.13
0.13
0.07
0.07
0.10
0.13
0.10
0.13
0.13
0.13
0.10
0.07
0.07
0.10
0.13
0.13
0.13
0.16
0.16
0.21
0.40
0.40
0.44
0.21
0.13
0.10
0.07
0.07
0.07
0.07
0.13
0.07
0.05
0.00
0.03
0.05
0.36
0.52
0.52
0.55
0.66
0.69
0.61
0.70
0.83
0.89
0.89
0.89
0.97
0.93
0.87
0.65
0.05
0.30
0.37
0.39
0.37
0.38
0.31
0.31
0.20
0.26
0.31
0.32
0.20
0.26
0.31
0.32
0.31
0.39
0.37
0.38
0.31
0.26
0.32
0.32
0.24
0.24
0.33
0.24
0.20
0.20
0.24
0.20
0.24
0.29
0.32
0.39
0.43
0.43
0.43
0.43
0.51
0.58
0.63
0.58
0.51
0.38
0.29
0.28
0.28
0.20
0.31
0.39
0.34
0.30
0.09
0.00
0.07
0.07
0.13
0.16
0.21
0.13
0.13
0.16
0.16
0.16
0.21
0.07
0.13
0.13
0.07
0.13
0.29
0.16
0.10
0.03
0.03
0.03
0.00
0.00
0.05
0.05
0.03
0.03
0.05
0.05
0.03
0.03
0.00
0.00
0.00
0.00
0.00
0.00
0.00
0.00
0.13
0.00
0.00
0.00
0.00
0.09
0.09
0.00
0.00
0.13
0.09
0.00
0.09
0.09
0.09
0.00
0.00
0.13
0.15
0.13
0.00
0.00
0.00
0.00
0.00
0.09
0.13
0.09
0.00
0.13
0.13
0.00
0.00
0.09
0.00
0.00
0.00
0.05
0.13
0.05
0.00
0.00
0.21
0.15
0.00
0.03
0.00
0.00
0.13
0.00
0.15
0.15
0.21
0.05
0.23
0.29
0.51
0.65
0.65
0.53
0.65
0.81
0.88
0.89
0.89
0.91
0.90
0.89
0.51
0.25
0.38
0.20
0.20
0.20
0.24
0.20
0.20
0.20
0.20
0.28
0.38
0.29
0.28
0.28
0.24
0.20
0.20
0.28
0.20
0.20
0.20
0.20
0.20
0.20
0.28
0.26
0.24
0.28
0.24
0.20
0.20
0.35
0.39
0.43
0.39
0.54
0.57
0.51
0.57
0.73
0.83
0.77
0.73
0.60
0.57
0.51
0.43
0.38
0.24
0.24
0.34
0.32
0.21
0.09
0.00
0.07
0.07
0.07
0.13
0.13
0.13
0.07
0.13
0.29
0.29
0.13
0.21
0.05
0.03
0.07
0.10
0.10
0.03
0.00
0.00
0.05
0.05
0.05
0.05
0.05
0.03
0.00
0.09
0.00
0.03
0.05
0.05
0.03
0.00
0.13
0.09
0.00
0.09
0.13
0.13
0.13
0.15
0.13
0.00
0.00
0.21
0.21
0.00
0.13
0.25
0.15
0.21
0.15
0.21
0.25
0.13
0.21
0.36
0.32
0.25
0.25
0.25
0.21
0.00
0.00
0.32
0.38
0.34
0.25
0.21
0.25
0.30
0.28
0.25
0.28
0.21
0.03
0.05
0.05
0.00
0.15
0.32
0.32
0.34
0.38
0.38
0.38
0.36
0.32
0.32
0.30
0.25
0.25
0.30
0.05
0.13
0.16
0.51
0.53
0.44
0.43
0.71
0.86
0.88
0.89
0.88
0.91
0.88
0.68
0.15
0.32
0.20
0.28
0.39
0.57
0.43
0.35
0.32
0.28
0.28
0.32
0.38
0.43
0.54
0.57
0.43
0.29
0.28
0.20
0.28
0.38
0.32
0.32
0.35
0.29
0.24
0.28
0.28
0.28
0.43
0.43
0.58
0.54
0.35
0.58
0.73
0.58
0.63
0.77
0.85
0.86
0.80
0.60
0.35
0.29
0.38
0.38
0.24
0.38
0.37
0.34
0.34
0.34
0.13
0.03
0.05
0.07
0.21
0.34
0.29
0.23
0.23
0.29
0.46
0.29
0.21
0.23
0.42
0.40
0.49
0.23
0.05
0.05
0.07
0.13
0.07
0.13
0.07
0.07
0.05
0.13
0.13
0.05
0.00
0.00
0.00
0.00
0.05
0.07
0.05
0.00
0.21
0.15
0.00
0.00
0.00
0.03
0.00
0.00
0.05
0.00
0.05
0.00
0.21
0.00
0.00
0.13
0.13
0.00
0.10
0.07
0.00
0.09
0.00
0.00
0.00
0.03
0.07
0.00
0.00
0.00
0.00
0.00
0.00
0.00
0.00
0.13
0.09
0.00
0.00
0.05
0.10
0.07
0.10
0.13
0.07
0.03
0.09
0.13
0.21
0.28
0.21
0.00
0.00
0.00
0.00
0.05
0.13
0.36
0.44
0.40
0.51
0.52
0.52
0.51
0.65
0.84
0.87
0.89
0.97
0.93
0.89
0.85
0.51
0.05
0.21
0.38
0.38
0.33
0.20
0.20
0.20
0.32
0.38
0.38
0.37
0.34
0.24
0.31
0.38
0.38
0.33
0.26
0.24
0.26
0.37
0.28
0.15
0.32
0.34
0.34
0.31
0.38
0.36
0.38
0.20
0.20
0.24
0.24
0.29
0.35
0.28
0.29
0.32
0.28
0.35
0.32
0.35
0.32
0.32
0.20
0.26
0.38
0.37
0.34
0.21
0.13
0.13
0.05
0.10
0.05
0.07
0.16
0.23
0.43
0.51
0.52
0.52
0.51
0.44
0.42
0.42
0.46
0.42
0.49
0.36
0.21
0.16
0.16
0.29
0.29
0.16
0.36
0.36
0.16
0.16
0.13
0.23
0.42
0.43
0.23
0.40
0.21
0.05
0.05
0.10
0.21
0.21
0.07
0.05
0.13
0.16
0.13
0.13
0.13
0.10
0.10
0.16
0.13
0.07
0.00
0.05
0.16
0.07
0.07
0.13
0.10
0.13
0.05
0.03
0.03
0.10
0.13
0.16
0.07
0.21
0.05
0.00
0.00
0.09
0.03
0.03
0.13
0.13
0.00
0.10
0.34
0.42
0.36
0.10
0.00
0.00
0.05
0.05
0.00
0.13
0.09
0.09
0.25
0.28
0.09
0.03
0.00
0.07
0.16
0.29
0.52
0.57
0.55
0.51
0.61
0.80
0.89
0.89
0.89
0.90
0.89
0.83
0.36
0.37
0.24
0.20
0.20
0.29
0.35
0.38
0.38
0.39
0.39
0.39
0.43
0.35
0.28
0.28
0.57
0.77
0.43
0.32
0.39
0.32
0.24
0.20
0.28
0.24
0.26
0.29
0.58
0.77
0.57
0.60
0.54
0.28
0.35
0.58
0.88
0.77
0.63
0.88
0.83
0.73
0.83
0.63
0.86
0.89
0.89
0.86
0.63
0.39
0.28
0.31
0.38
0.39
0.38
0.34
0.28
0.00
0.07
0.13
0.16
0.16
0.10
0.07
0.07
0.10
0.05
0.00
0.05
0.07
0.05
0.05
0.10
0.03
0.00
0.00
0.00
0.00
0.09
0.05
0.00
0.00
0.00
0.00
0.07
0.00
0.09
0.00
0.21
0.21
0.21
0.13
0.03
0.09
0.00
0.09
0.00
0.03
0.00
0.09
0.13
0.00
0.00
0.09
0.15
0.25
0.21
0.05
0.05
0.00
0.09
0.09
0.00
0.00
0.28
0.09
0.13
0.00
0.21
0.30
0.13
0.00
0.03
0.07
0.00
0.13
0.13
0.15
0.09
0.15
0.00
0.10
0.16
0.16
0.21
0.13
0.03
0.21
0.30
0.28
0.28
0.21
0.13
0.09
0.00
0.03
0.00
0.09
0.13
0.43
0.52
0.58
0.55
0.49
0.50
0.65
0.83
0.89
0.89
0.89
0.89
0.90
0.84
0.29
0.37
0.20
0.20
0.24
0.38
0.28
0.20
0.24
0.28
0.28
0.29
0.32
0.28
0.24
0.24
0.24
0.24
0.20
0.20
0.20
0.28
0.28
0.35
0.28
0.26
0.24
0.20
0.28
0.28
0.20
0.20
0.24
0.32
0.32
0.28
0.39
0.48
0.39
0.43
0.54
0.48
0.43
0.51
0.63
0.29
0.28
0.28
0.20
0.39
0.31
0.26
0.34
0.13
0.30
0.00
0.10
0.03
0.03
0.07
0.21
0.10
0.05
0.34
0.46
0.43
0.21
0.10
0.13
0.36
0.42
0.34
0.29
0.29
0.16
0.13
0.10
0.07
0.21
0.10
0.00
0.09
0.05
0.07
0.07
0.10
0.05
0.05
0.05
0.10
0.13
0.13
0.13
0.00
0.03
0.00
0.05
0.05
0.00
0.00
0.03
0.05
0.13
0.13
0.03
0.00
0.00
0.05
0.05
0.00
0.09
0.00
0.00
0.00
0.00
0.03
0.07
0.07
0.03
0.05
0.16
0.05
0.00
0.25
0.15
0.13
0.13
0.03
0.10
0.05
0.05
0.34
0.13
0.13
0.07
0.07
0.09
0.13
0.05
0.03
0.00
0.00
0.05
0.05
0.03
0.03
0.00
0.05
0.29
0.42
0.46
0.52
0.55
0.53
0.54
0.70
0.83
0.88
0.89
0.90
0.90
0.89
0.85
0.36
0.28
0.33
0.24
0.24
0.26
0.28
0.38
0.35
0.20
0.20
0.20
0.20
0.24
0.28
0.29
0.32
0.28
0.20
0.33
0.26
0.20
0.24
0.24
0.20
0.29
0.39
0.35
0.20
0.20
0.24
0.20
0.20
0.20
0.28
0.29
0.28
0.39
0.69
0.60
0.39
0.39
0.43
0.28
0.20
0.24
0.28
0.43
0.48
0.35
0.20
0.31
0.25
0.05
0.05
0.10
0.13
0.10
0.16
0.34
0.29
0.13
0.42
0.44
0.49
0.43
0.36
0.44
0.46
0.40
0.13
0.05
0.10
0.13
0.13
0.13
0.10
0.03
0.10
0.23
0.21
0.16
0.16
0.13
0.13
0.16
0.13
0.07
0.13
0.10
0.03
0.13
0.29
0.10
0.07
0.13
0.10
0.05
0.07
0.10
0.00
0.00
0.13
0.21
0.16
0.05
0.15
0.00
0.10
0.07
0.05
0.10
0.07
0.07
0.05
0.00
0.13
0.00
0.07
0.05
0.00
0.05
0.05
0.15
0.21
0.00
0.03
0.00
0.00
0.00
0.00
0.03
0.05
0.07
0.16
0.07
0.03
0.03
0.13
0.03
0.36
0.28
0.36
0.09
0.07
0.00
0.07
0.13
0.21
0.05
0.42
0.21
0.07
0.50
0.54
0.52
0.58
0.74
0.84
0.88
0.88
0.90
0.97
0.89
0.83
0.21
0.33
0.20
0.24
0.31
0.20
0.20
0.24
0.29
0.20
0.38
0.20
0.26
0.38
0.37
0.32
0.38
0.24
0.20
0.20
0.32
0.37
0.31
0.20
0.20
0.20
0.20
0.20
0.20
0.39
0.37
0.26
0.24
0.38
0.63
0.58
0.54
0.39
0.35
0.39
0.39
0.43
0.35
0.38
0.48
0.32
0.33
0.38
0.20
0.38
0.34
0.34
0.32
0.32
0.00
0.07
0.10
0.13
0.23
0.36
0.36
0.43
0.44
0.36
0.50
0.49
0.43
0.46
0.40
0.52
0.43
0.13
0.13
0.21
0.16
0.10
0.10
0.13
0.13
0.13
0.07
0.13
0.16
0.05
0.03
0.03
0.05
0.13
0.05
0.00
0.05
0.05
0.07
0.05
0.07
0.10
0.03
0.00
0.00
0.07
0.23
0.23
0.03
0.05
0.05
0.00
0.00
0.09
0.09
0.00
0.05
0.05
0.16
0.21
0.05
0.09
0.00
0.05
0.13
0.13
0.05
0.03
0.05
0.05
0.00
0.03
0.03
0.00
0.00
0.03
0.05
0.07
0.16
0.29
0.23
0.29
0.13
0.00
0.00
0.05
0.21
0.10
0.00
0.13
0.21
0.13
0.00
0.00
0.05
0.10
0.36
0.51
0.54
0.63
0.54
0.55
0.57
0.71
0.83
0.89
0.89
0.90
0.97
0.89
0.80
0.29
0.32
0.36
0.38
0.20
0.20
0.20
0.20
0.20
0.24
0.29
0.20
0.20
0.24
0.20
0.32
0.20
0.20
0.20
0.24
0.20
0.26
0.24
0.38
0.24
0.20
0.20
0.20
0.20
0.28
0.29
0.35
0.38
0.28
0.39
0.39
0.32
0.38
0.32
0.38
0.69
0.85
0.80
0.77
0.51
0.28
0.43
0.69
0.43
0.20
0.34
0.32
0.13
0.00
0.00
0.05
0.13
0.03
0.03
0.07
0.13
0.16
0.29
0.13
0.21
0.13
0.13
0.03
0.13
0.21
0.07
0.00
0.05
0.10
0.13
0.16
0.07
0.05
0.07
0.05
0.03
0.05
0.10
0.03
0.00
0.00
0.00
0.05
0.00
0.09
0.03
0.05
0.00
0.00
0.09
0.13
0.21
0.13
0.03
0.05
0.00
0.00
0.00
0.00
0.00
0.13
0.15
0.00
0.00
0.00
0.00
0.07
0.00
0.13
0.13
0.00
0.09
0.07
0.05
0.15
0.30
0.15
0.05
0.10
0.03
0.00
0.09
0.13
0.34
0.23
0.05
0.00
0.00
0.09
0.15
0.09
0.09
0.13
0.09
0.13
0.15
0.00
0.07
0.00
0.16
0.46
0.50
0.53
0.65
0.54
0.51
0.61
0.84
0.87
0.89
0.90
0.94
0.89
0.87
0.51
0.34
0.24
0.28
0.20
0.28
0.33
0.36
0.31
0.24
0.20
0.20
0.24
0.34
0.26
0.32
0.38
0.24
0.20
0.20
0.20
0.33
0.36
0.36
0.31
0.20
0.20
0.38
0.39
0.28
0.38
0.32
0.29
0.24
0.20
0.32
0.32
0.28
0.20
0.35
0.69
0.57
0.38
0.58
0.73
0.60
0.32
0.20
0.38
0.38
0.38
0.30
0.28
0.28
0.09
0.10
0.13
0.10
0.10
0.16
0.29
0.36
0.46
0.46
0.21
0.16
0.21
0.21
0.16
0.07
0.05
0.07
0.13
0.00
0.00
0.16
0.13
0.10
0.07
0.07
0.13
0.07
0.03
0.03
0.07
0.00
0.13
0.00
0.09
0.03
0.05
0.07
0.00
0.05
0.05
0.00
0.00
0.03
0.05
0.00
0.00
0.05
0.05
0.09
0.13
0.00
0.05
0.05
0.09
0.09
0.00
0.10
0.05
0.00
0.05
0.05
0.09
0.21
0.15
0.00
0.21
0.13
0.00
0.05
0.05
0.05
0.03
0.00
0.00
0.00
0.13
0.00
0.05
0.03
0.15
0.05
0.13
0.07
0.00
0.09
0.15
0.13
0.05
0.07
0.00
0.15
0.13
0.15
0.25
0.13
0.05
0.36
0.50
0.50
0.52
0.58
0.49
0.54
0.77
0.88
0.87
0.88
0.89
0.97
0.90
0.65
0.00
0.26
0.20
0.26
0.20
0.28
0.24
0.24
0.24
0.35
0.38
0.28
0.20
0.20
0.24
0.32
0.26
0.20
0.24
0.24
0.20
0.24
0.28
0.35
0.32
0.20
0.38
0.38
0.32
0.57
0.39
0.28
0.20
0.20
0.24
0.43
0.51
0.57
0.24
0.60
0.80
0.60
0.73
0.51
0.32
0.28
0.29
0.20
0.38
0.38
0.34
0.34
0.37
0.09
0.03
0.03
0.03
0.13
0.21
0.13
0.13
0.40
0.42
0.42
0.49
0.42
0.13
0.10
0.23
0.42
0.23
0.07
0.05
0.10
0.23
0.34
0.13
0.03
0.03
0.13
0.05
0.10
0.07
0.07
0.07
0.10
0.07
0.05
0.00
0.09
0.09
0.03
0.00
0.05
0.07
0.05
0.09
0.13
0.00
0.00
0.00
0.09
0.00
0.05
0.10
0.07
0.05
0.00
0.09
0.00
0.00
0.00
0.00
0.00
0.00
0.05
0.00
0.00
0.09
0.05
0.13
0.05
0.28
0.30
0.05
0.07
0.00
0.13
0.03
0.00
0.09
0.10
0.34
0.21
0.05
0.10
0.03
0.13
0.00
0.00
0.00
0.00
0.09
0.13
0.05
0.13
0.05
0.15
0.28
0.15
0.05
0.21
0.34
0.43
0.52
0.54
0.59
0.70
0.83
0.89
0.89
0.89
0.89
0.91
0.89
0.51
0.13
0.25
0.26
0.20
0.20
0.29
0.28
0.38
0.31
0.20
0.20
0.34
0.31
0.32
0.24
0.24
0.28
0.20
0.39
0.39
0.34
0.34
0.32
0.38
0.34
0.24
0.28
0.20
0.20
0.20
0.20
0.20
0.24
0.20
0.48
0.63
0.57
0.38
0.32
0.39
0.54
0.43
0.48
0.43
0.32
0.32
0.32
0.28
0.20
0.37
0.36
0.25
0.03
0.03
0.05
0.13
0.03
0.09
0.16
0.44
0.44
0.49
0.50
0.42
0.43
0.40
0.21
0.42
0.42
0.13
0.13
0.16
0.07
0.10
0.13
0.10
0.05
0.07
0.03
0.13
0.29
0.13
0.00
0.09
0.00
0.05
0.05
0.10
0.10
0.03
0.00
0.05
0.05
0.05
0.13
0.05
0.00
0.00
0.09
0.13
0.00
0.00
0.05
0.13
0.13
0.07
0.05
0.07
0.05
0.13
0.09
0.00
0.03
0.07
0.03
0.00
0.05
0.07
0.00
0.09
0.00
0.09
0.13
0.05
0.05
0.03
0.03
0.05
0.13
0.00
0.00
0.13
0.13
0.13
0.10
0.05
0.13
0.03
0.00
0.05
0.00
0.13
0.00
0.09
0.09
0.00
0.09
0.21
0.13
0.10
0.36
0.49
0.46
0.46
0.51
0.51
0.53
0.68
0.80
0.87
0.89
0.88
0.94
0.89
0.89
0.52
0.13
0.30
0.28
0.37
0.24
0.32
0.63
0.28
0.20
0.29
0.24
0.24
0.24
0.20
0.32
0.38
0.28
0.32
0.28
0.24
0.24
0.20
0.31
0.24
0.20
0.20
0.24
0.24
0.32
0.28
0.20
0.20
0.32
0.32
0.20
0.20
0.28
0.39
0.51
0.77
0.80
0.86
0.73
0.48
0.24
0.24
0.32
0.29
0.28
0.38
0.15
0.30
0.32
0.25
0.00
0.05
0.07
0.13
0.44
0.29
0.21
0.34
0.42
0.40
0.34
0.21
0.13
0.07
0.03
0.10
0.36
0.40
0.13
0.07
0.10
0.07
0.00
0.00
0.05
0.05
0.00
0.00
0.05
0.13
0.21
0.07
0.00
0.00
0.00
0.03
0.03
0.30
0.00
0.00
0.05
0.10
0.05
0.09
0.00
0.10
0.05
0.00
0.05
0.03
0.15
0.05
0.13
0.05
0.13
0.09
0.00
0.05
0.07
0.03
0.00
0.03
0.00
0.09
0.00
0.09
0.00
0.00
0.05
0.07
0.07
0.21
0.15
0.09
0.09
0.13
0.05
0.05
0.09
0.03
0.13
0.13
0.13
0.42
0.07
0.03
0.13
0.25
0.28
0.03
0.05
0.21
0.30
0.21
0.00
0.13
0.13
0.13
0.44
0.46
0.44
0.51
0.51
0.51
0.59
0.77
0.87
0.87
0.90
0.90
0.89
0.89
0.66
0.13
0.39
0.26
0.20
0.20
0.20
0.28
0.20
0.20
0.20
0.28
0.28
0.29
0.34
0.38
0.20
0.28
0.20
0.20
0.20
0.26
0.20
0.20
0.20
0.24
0.20
0.20
0.20
0.28
0.24
0.20
0.34
0.31
0.29
0.38
0.43
0.35
0.29
0.57
0.69
0.69
0.69
0.69
0.60
0.32
0.28
0.26
0.24
0.24
0.20
0.38
0.38
0.36
0.25
0.09
0.05
0.07
0.13
0.16
0.29
0.43
0.43
0.40
0.42
0.44
0.29
0.13
0.10
0.23
0.23
0.21
0.16
0.07
0.03
0.05
0.07
0.05
0.13
0.16
0.05
0.00
0.00
0.05
0.05
0.03
0.00
0.03
0.05
0.00
0.07
0.07
0.03
0.00
0.03
0.09
0.03
0.07
0.03
0.00
0.00
0.03
0.03
0.03
0.07
0.00
0.13
0.09
0.00
0.05
0.05
0.05
0.00
0.00
0.09
0.09
0.13
0.09
0.00
0.00
0.05
0.05
0.00
0.09
0.13
0.09
0.25
0.32
0.28
0.09
0.05
0.05
0.00
0.03
0.00
0.00
0.05
0.05
0.05
0.00
0.05
0.00
0.00
0.00
0.09
0.13
0.25
0.13
0.09
0.21
0.15
0.13
0.03
0.21
0.29
0.40
0.51
0.54
0.55
0.68
0.81
0.87
0.87
0.89
0.89
0.89
0.87
0.66
0.13
0.38
0.34
0.26
0.20
0.26
0.20
0.24
0.20
0.20
0.24
0.20
0.20
0.20
0.20
0.20
0.32
0.31
0.20
0.26
0.34
0.26
0.20
0.31
0.24
0.24
0.20
0.24
0.20
0.24
0.20
0.20
0.20
0.20
0.20
0.35
0.43
0.38
0.54
0.63
0.60
0.60
0.57
0.39
0.38
0.39
0.32
0.31
0.37
0.26
0.31
0.39
0.30
0.00
0.00
0.00
0.07
0.13
0.13
0.21
0.23
0.29
0.36
0.34
0.16
0.34
0.43
0.34
0.29
0.16
0.13
0.16
0.21
0.13
0.10
0.16
0.29
0.21
0.23
0.29
0.10
0.00
0.00
0.09
0.00
0.05
0.05
0.05
0.03
0.05
0.00
0.00
0.00
0.05
0.05
0.10
0.00
0.13
0.00
0.00
0.00
0.00
0.03
0.03
0.05
0.00
0.09
0.00
0.00
0.15
0.15
0.00
0.00
0.05
0.03
0.00
0.00
0.00
0.00
0.00
0.00
0.00
0.00
0.13
0.21
0.00
0.05
0.00
0.00
0.13
0.00
0.00
0.15
0.13
0.13
0.07
0.00
0.07
0.05
0.03
0.00
0.00
0.09
0.13
0.13
0.05
0.21
0.15
0.15
0.25
0.09
0.03
0.05
0.42
0.42
0.42
0.51
0.51
0.44
0.58
0.80
0.88
0.88
0.88
0.89
0.89
0.89
0.72
0.07
0.34
0.34
0.20
0.20
0.20
0.20
0.20
0.20
0.20
0.24
0.24
0.29
0.20
0.20
0.31
0.34
0.24
0.20
0.20
0.20
0.30
0.38
0.20
0.24
0.20
0.33
0.34
0.20
0.20
0.26
0.20
0.20
0.20
0.20
0.29
0.35
0.35
0.38
0.51
0.57
0.43
0.38
0.35
0.28
0.26
0.39
0.20
0.20
0.26
0.36
0.25
0.32
0.00
0.00
0.13
0.13
0.23
0.16
0.16
0.40
0.52
0.51
0.51
0.51
0.46
0.46
0.36
0.29
0.29
0.40
0.13
0.10
0.10
0.07
0.05
0.07
0.13
0.16
0.13
0.05
0.03
0.03
0.07
0.07
0.10
0.13
0.05
0.03
0.03
0.10
0.16
0.16
0.13
0.03
0.00
0.03
0.10
0.03
0.00
0.00
0.07
0.07
0.05
0.05
0.05
0.05
0.05
0.13
0.05
0.05
0.21
0.07
0.05
0.00
0.09
0.00
0.05
0.05
0.13
0.10
0.00
0.00
0.03
0.03
0.00
0.03
0.05
0.10
0.10
0.03
0.00
0.00
0.05
0.13
0.21
0.36
0.40
0.05
0.05
0.05
0.05
0.03
0.05
0.13
0.00
0.15
0.13
0.13
0.00
0.10
0.36
0.49
0.36
0.46
0.54
0.57
0.55
0.70
0.85
0.87
0.89
0.88
0.94
0.88
0.85
0.51
0.09
0.38
0.20
0.20
0.24
0.24
0.24
0.26
0.24
0.20
0.24
0.26
0.20
0.20
0.24
0.33
0.24
0.28
0.20
0.24
0.24
0.26
0.26
0.24
0.34
0.20
0.20
0.20
0.20
0.20
0.20
0.20
0.20
0.20
0.28
0.32
0.32
0.35
0.39
0.38
0.35
0.48
0.60
0.69
0.60
0.38
0.24
0.24
0.20
0.34
0.36
0.21
0.25
0.21
0.00
0.05
0.05
0.13
0.29
0.42
0.34
0.36
0.34
0.36
0.36
0.16
0.23
0.23
0.23
0.43
0.16
0.13
0.13
0.16
0.13
0.13
0.21
0.16
0.07
0.05
0.13
0.16
0.21
0.16
0.13
0.13
0.16
0.13
0.13
0.16
0.16
0.29
0.40
0.13
0.05
0.05
0.10
0.13
0.07
0.13
0.13
0.16
0.13
0.07
0.07
0.07
0.21
0.16
0.13
0.07
0.07
0.07
0.07
0.07
0.16
0.13
0.07
0.10
0.13
0.10
0.13
0.21
0.13
0.05
0.03
0.05
0.13
0.10
0.05
0.10
0.10
0.13
0.21
0.23
0.40
0.42
0.16
0.10
0.07
0.10
0.13
0.13
0.10
0.13
0.05
0.00
0.03
0.03
0.07
0.10
0.50
0.51
0.51
0.65
0.74
0.63
0.60
0.76
0.87
0.87
0.89
0.89
0.98
0.89
0.84
0.49
0.03
0.15
0.36
0.38
0.33
0.34
0.39
0.38
0.36
0.34
0.32
0.33
0.39
0.39
0.36
0.32
0.38
0.37
0.38
0.36
0.39
0.39
0.38
0.32
0.32
0.32
0.38
0.38
0.33
0.32
0.20
0.20
0.26
0.20
0.20
0.20
0.20
0.20
0.28
0.38
0.39
0.29
0.24
0.20
0.24
0.24
0.20
0.20
0.31
0.37
0.28
0.13
0.00
0.05
0.10
0.10
0.23
0.44
0.50
0.42
0.16
0.34
0.43
0.49
0.40
0.44
0.34
0.34
0.34
0.34
0.36
0.29
0.29
0.34
0.21
0.13
0.16
0.23
0.16
0.23
0.29
0.13
0.13
0.13
0.13
0.13
0.10
0.07
0.07
0.13
0.23
0.16
0.10
0.10
0.13
0.13
0.13
0.16
0.23
0.13
0.07
0.07
0.13
0.13
0.13
0.03
0.05
0.10
0.13
0.13
0.13
0.13
0.21
0.13
0.10
0.13
0.13
0.07
0.13
0.13
0.05
0.10
0.13
0.13
0.13
0.13
0.16
0.21
0.13
0.07
0.07
0.16
0.29
0.42
0.50
0.43
0.29
0.13
0.05
0.05
0.07
0.10
0.07
0.05
0.03
0.05
0.07
0.07
0.07
0.16
0.43
0.52
0.52
0.68
0.68
0.61
0.65
0.80
0.88
0.89
0.89
0.90
0.98
0.89
0.76
0.21
0.21
0.37
0.32
0.26
0.33
0.31
0.26
0.31
0.26
0.31
0.32
0.31
0.24
0.24
0.26
0.26
0.31
0.32
0.32
0.34
0.34
0.26
0.26
0.31
0.38
0.39
0.24
0.24
0.26
0.20
0.20
0.20
0.20
0.52
0.52
0.54
0.55
0.57
0.59
0.60
0.63
0.65
0.66
0.63
0.59
0.57
0.54
0.51
0.49
0.49
0.42
0.16
0.07
0.03
0.00
0.13
0.21
0.25
0.30
0.32
0.36
0.36
0.36
0.36
0.38
0.38
0.36
0.30
0.21
0.25
0.28
0.21
0.21
0.25
0.30
0.30
0.30
0.30
0.21
0.21
0.28
0.21
0.21
0.25
0.28
0.13
0.09
0.00
0.09
0.15
0.15
0.13
0.09
0.13
0.09
0.00
0.13
0.15
0.09
0.00
0.00
0.00
0.00
0.00
0.13
0.13
0.15
0.15
0.09
0.09
0.25
0.00
0.00
0.03
0.03
0.00
0.00
0.09
0.09
0.00
0.00
0.09
0.13
0.00
0.03
0.03
0.03
0.00
0.09
0.13
0.09
0.13
0.21
0.30
0.32
0.21
0.00
0.05
0.03
0.03
0.05
0.00
0.00
0.00
0.00
0.00
0.03
0.00
0.25
0.39
0.37
0.34
0.35
0.57
0.48
0.60
0.89
0.89
0.91
0.91
0.91
0.91
0.89
0.38
0.00
0.29
0.42
0.42
0.46
0.51
0.51
0.42
0.42
0.44
0.50
0.52
0.51
0.51
0.50
0.49
0.49
0.50
0.50
0.49
0.50
0.46
0.43
0.42
0.44
0.46
0.51
0.51
0.49
0.50
0.51
0.51
0.44
0.49
0.51
0.53
0.54
0.55
0.58
0.57
0.59
0.63
0.65
0.57
0.57
0.58
0.53
0.51
0.51
0.50
0.46
0.40
0.16
0.05
0.00
0.09
0.21
0.32
0.36
0.36
0.38
0.31
0.31
0.31
0.32
0.37
0.36
0.34
0.34
0.36
0.21
0.16
0.16
0.21
0.21
0.13
0.16
0.21
0.10
0.10
0.07
0.10
0.07
0.03
0.03
0.13
0.13
0.07
0.05
0.05
0.07
0.13
0.13
0.13
0.07
0.05
0.03
0.05
0.07
0.07
0.07
0.05
0.05
0.07
0.05
0.05
0.07
0.10
0.05
0.03
0.00
0.03
0.05
0.05
0.05
0.07
0.07
0.07
0.07
0.10
0.13
0.10
0.00
0.00
0.05
0.05
0.05
0.05
0.07
0.03
0.03
0.00
0.05
0.07
0.13
0.16
0.34
0.34
0.13
0.07
0.05
0.00
0.00
0.03
0.05
0.05
0.05
0.00
0.00
0.00
0.00
0.00
0.13
0.44
0.51
0.58
0.70
0.66
0.59
0.71
0.84
0.87
0.89
0.90
0.93
0.97
0.85
0.44
0.13
0.34
0.38
0.24
0.20
0.26
0.32
0.34
0.34
0.26
0.20
0.20
0.20
0.20
0.20
0.31
0.26
0.26
0.31
0.32
0.26
0.31
0.34
0.34
0.31
0.20
0.20
0.24
0.26
0.20
0.20
0.24
0.20
0.20
0.28
0.32
0.32
0.39
0.48
0.39
0.39
0.54
0.58
0.51
0.43
0.38
0.32
0.28
0.20
0.26
0.32
0.37
0.25
0.00
0.00
0.03
0.05
0.10
0.13
0.16
0.23
0.29
0.29
0.29
0.29
0.29
0.34
0.34
0.23
0.23
0.16
0.21
0.16
0.21
0.21
0.13
0.16
0.13
0.10
0.10
0.13
0.13
0.10
0.10
0.07
0.07
0.07
0.07
0.07
0.07
0.10
0.10
0.13
0.07
0.07
0.10
0.13
0.07
0.05
0.05
0.05
0.07
0.07
0.07
0.07
0.07
0.07
0.10
0.13
0.13
0.05
0.05
0.07
0.10
0.07
0.00
0.00
0.03
0.00
0.05
0.05
0.05
0.05
0.00
0.05
0.05
0.05
0.05
0.03
0.05
0.05
0.05
0.05
0.05
0.13
0.21
0.23
0.16
0.10
0.03
0.00
0.05
0.03
0.03
0.00
0.00
0.00
0.00
0.00
0.00
0.03
0.07
0.36
0.46
0.53
0.65
0.66
0.59
0.65
0.80
0.89
0.89
0.89
0.89
0.97
0.87
0.57
0.15
0.37
0.38
0.31
0.20
0.20
0.20
0.20
0.20
0.20
0.20
0.26
0.26
0.24
0.20
0.20
0.26
0.26
0.20
0.24
0.32
0.32
0.24
0.24
0.26
0.24
0.20
0.20
0.20
0.20
0.24
0.20
0.20
0.28
0.28
0.32
0.32
0.43
0.43
0.51
0.57
0.63
0.60
0.60
0.51
0.43
0.39
0.38
0.20
0.20
0.32
0.38
0.32
0.28
0.15
0.00
0.00
0.05
0.10
0.13
0.16
0.23
0.23
0.29
0.29
0.21
0.13
0.13
0.16
0.16
0.13
0.10
0.13
0.13
0.07
0.05
0.05
0.03
0.03
0.07
0.13
0.13
0.03
0.03
0.05
0.05
0.05
0.05
0.05
0.05
0.07
0.05
0.05
0.05
0.05
0.05
0.05
0.05
0.03
0.05
0.05
0.03
0.03
0.05
0.05
0.03
0.00
0.00
0.00
0.03
0.03
0.03
0.03
0.00
0.00
0.03
0.00
0.00
0.00
0.00
0.00
0.09
0.03
0.03
0.00
0.00
0.05
0.05
0.05
0.05
0.09
0.13
0.00
0.05
0.00
0.00
0.07
0.10
0.13
0.29
0.13
0.03
0.09
0.13
0.15
0.13
0.09
0.13
0.15
0.15
0.21
0.21
0.13
0.03
0.23
0.42
0.43
0.53
0.54
0.52
0.57
0.75
0.87
0.88
0.88
0.89
0.90
0.89
0.65
0.09
0.33
0.20
0.20
0.29
0.32
0.32
0.28
0.28
0.28
0.28
0.28
0.29
0.32
0.38
0.39
0.32
0.32
0.28
0.20
0.20
0.20
0.28
0.32
0.32
0.32
0.32
0.32
0.32
0.32
0.32
0.35
0.43
0.39
0.38
0.51
0.69
0.69
0.73
0.83
0.85
0.83
0.83
0.86
0.80
0.83
0.69
0.60
0.39
0.32
0.32
0.20
0.31
0.39
0.34
0.28
0.15
0.00
0.00
0.00
0.00
0.03
0.05
0.05
0.05
0.05
0.03
0.03
0.05
0.05
0.05
0.05
0.05
0.03
0.05
0.00
0.00
0.00
0.00
0.00
0.00
0.00
0.00
0.00
0.09
0.09
0.00
0.00
0.00
0.09
0.13
0.09
0.13
0.00
0.00
0.13
0.15
0.09
0.00
0.00
0.00
0.13
0.15
0.13
0.13
0.00
0.09
0.09
0.00
0.00
0.00
0.00
0.09
0.13
0.15
0.13
0.00
0.00
0.00
0.00
0.00
0.00
0.00
0.00
0.00
0.03
0.03
0.00
0.00
0.00
0.00
0.00
0.00
0.00
0.05
0.07
0.13
0.29
0.29
0.16
0.05
0.00
0.00
0.00
0.00
0.00
0.00
0.05
0.07
0.05
0.05
0.05
0.13
0.42
0.50
0.51
0.58
0.68
0.65
0.60
0.76
0.87
0.89
0.89
0.91
0.97
0.89
0.80
0.23
0.21
0.32
0.37
0.39
0.33
0.32
0.31
0.26
0.26
0.38
0.38
0.31
0.26
0.38
0.38
0.38
0.33
0.32
0.34
0.38
0.32
0.24
0.31
0.32
0.31
0.26
0.26
0.32
0.38
0.34
0.26
0.26
0.26
0.20
0.28
0.24
0.32
0.39
0.39
0.32
0.48
0.48
0.39
0.38
0.38
0.35
0.28
0.20
0.24
0.32
0.31
0.38
0.25
0.13
0.03
0.05
0.13
0.13
0.16
0.16
0.40
0.44
0.49
0.50
0.40
0.21
0.23
0.29
0.21
0.16
0.13
0.13
0.10
0.16
0.23
0.23
0.13
0.10
0.10
0.10
0.13
0.05
0.05
0.07
0.05
0.05
0.05
0.13
0.13
0.03
0.03
0.03
0.05
0.07
0.13
0.13
0.05
0.00
0.05
0.05
0.05
0.00
0.00
0.03
0.05
0.05
0.03
0.05
0.10
0.07
0.00
0.00
0.00
0.00
0.00
0.00
0.05
0.05
0.07
0.05
0.05
0.05
0.05
0.05
0.05
0.07
0.00
0.03
0.05
0.00
0.00
0.07
0.07
0.13
0.13
0.16
0.42
0.21
0.05
0.03
0.03
0.03
0.00
0.00
0.00
0.03
0.05
0.03
0.09
0.13
0.03
0.34
0.46
0.51
0.59
0.65
0.63
0.61
0.73
0.83
0.88
0.89
0.89
0.91
0.88
0.83
0.36
0.21
0.39
0.26
0.24
0.24
0.26
0.20
0.24
0.24
0.20
0.24
0.20
0.20
0.24
0.32
0.31
0.20
0.24
0.24
0.24
0.20
0.20
0.20
0.24
0.20
0.20
0.24
0.26
0.24
0.20
0.24
0.20
0.26
0.28
0.43
0.54
0.51
0.57
0.73
0.60
0.43
0.57
0.63
0.58
0.48
0.39
0.20
0.20
0.35
0.20
0.32
0.32
0.32
0.28
0.00
0.03
0.05
0.10
0.23
0.23
0.23
0.29
0.23
0.23
0.13
0.13
0.13
0.16
0.21
0.21
0.13
0.13
0.13
0.10
0.07
0.07
0.13
0.10
0.05
0.03
0.03
0.05
0.05
0.07
0.07
0.07
0.05
0.05
0.05
0.05
0.03
0.03
0.03
0.03
0.03
0.05
0.05
0.07
0.07
0.00
0.13
0.00
0.05
0.00
0.03
0.05
0.00
0.00
0.05
0.03
0.00
0.00
0.00
0.00
0.00
0.03
0.00
0.00
0.03
0.03
0.05
0.03
0.03
0.03
0.00
0.00
0.03
0.13
0.15
0.09
0.03
0.03
0.05
0.07
0.10
0.16
0.23
0.21
0.05
0.09
0.21
0.25
0.15
0.09
0.00
0.00
0.09
0.13
0.15
0.13
0.05
0.21
0.34
0.44
0.58
0.63
0.55
0.58
0.75
0.86
0.88
0.88
0.89
0.90
0.89
0.75
0.03
0.32
0.34
0.20
0.20
0.20
0.20
0.24
0.20
0.20
0.24
0.24
0.20
0.20
0.20
0.20
0.20
0.26
0.20
0.20
0.32
0.20
0.20
0.20
0.20
0.20
0.20
0.20
0.20
0.20
0.20
0.20
0.20
0.20
0.28
0.35
0.39
0.35
0.32
0.35
0.35
0.48
0.60
0.69
0.73
0.58
0.43
0.39
0.29
0.20
0.26
0.33
0.30
0.25
0.09
0.00
0.03
0.03
0.03
0.13
0.40
0.23
0.23
0.21
0.23
0.23
0.23
0.21
0.40
0.34
0.13
0.07
0.07
0.07
0.07
0.10
0.13
0.07
0.10
0.10
0.05
0.10
0.16
0.07
0.03
0.03
0.00
0.00
0.03
0.03
0.05
0.00
0.00
0.03
0.05
0.05
0.07
0.10
0.10
0.03
0.00
0.00
0.00
0.00
0.00
0.00
0.03
0.03
0.00
0.00
0.00
0.00
0.00
0.09
0.00
0.00
0.03
0.00
0.00
0.09
0.09
0.00
0.09
0.13
0.09
0.00
0.00
0.13
0.00
0.09
0.15
0.13
0.09
0.00
0.00
0.13
0.13
0.03
0.09
0.25
0.32
0.25
0.15
0.13
0.13
0.15
0.15
0.15
0.30
0.28
0.13
0.13
0.36
0.23
0.42
0.51
0.51
0.51
0.65
0.83
0.89
0.90
0.89
0.90
0.90
0.87
0.49
0.34
0.20
0.28
0.28
0.28
0.28
0.28
0.24
0.24
0.24
0.28
0.29
0.24
0.29
0.24
0.20
0.28
0.20
0.20
0.29
0.32
0.28
0.28
0.29
0.32
0.32
0.32
0.28
0.29
0.28
0.24
0.28
0.32
0.38
0.51
0.58
0.63
0.69
0.69
0.77
0.85
0.86
0.83
0.80
0.63
0.57
0.58
0.57
0.51
0.35
0.24
0.26
0.32
0.38
0.15
0.09
0.00
0.05
0.05
0.07
0.03
0.10
0.10
0.10
0.13
0.10
0.07
0.07
0.13
0.07
0.03
0.03
0.03
0.05
0.05
0.03
0.00
0.03
0.03
0.00
0.03
0.05
0.05
0.00
0.00
0.05
0.05
0.03
0.05
0.05
0.05
0.00
0.03
0.00
0.00
0.00
0.05
0.05
0.03
0.03
0.00
0.07
0.05
0.05
0.07
0.05
0.05
0.03
0.03
0.07
0.07
0.05
0.03
0.00
0.00
0.05
0.10
0.07
0.07
0.05
0.05
0.05
0.03
0.05
0.05
0.05
0.05
0.00
0.03
0.05
0.05
0.07
0.13
0.10
0.13
0.16
0.29
0.21
0.05
0.05
0.07
0.00
0.00
0.07
0.07
0.00
0.05
0.05
0.03
0.00
0.00
0.13
0.43
0.50
0.53
0.65
0.65
0.61
0.68
0.83
0.88
0.90
0.90
0.94
0.90
0.87
0.65
0.05
0.38
0.34
0.31
0.20
0.26
0.32
0.31
0.20
0.24
0.32
0.26
0.26
0.34
0.24
0.26
0.31
0.32
0.26
0.20
0.24
0.24
0.26
0.26
0.20
0.26
0.24
0.31
0.24
0.20
0.20
0.20
0.28
0.28
0.29
0.39
0.48
0.43
0.43
0.54
0.63
0.60
0.51
0.54
0.57
0.39
0.35
0.29
0.24
0.20
0.26
0.38
0.30
0.15
0.00
0.05
0.05
0.05
0.05
0.16
0.16
0.34
0.34
0.29
0.16
0.21
0.23
0.23
0.29
0.16
0.13
0.13
0.13
0.13
0.05
0.07
0.13
0.10
0.07
0.05
0.05
0.07
0.07
0.07
0.05
0.00
0.05
0.10
0.05
0.05
0.03
0.03
0.05
0.05
0.00
0.03
0.05
0.07
0.07
0.05
0.05
0.00
0.00
0.00
0.00
0.05
0.00
0.03
0.05
0.00
0.00
0.00
0.05
0.05
0.09
0.00
0.00
0.00
0.00
0.03
0.05
0.03
0.03
0.05
0.00
0.09
0.09
0.00
0.00
0.00
0.00
0.03
0.00
0.00
0.03
0.07
0.13
0.13
0.21
0.13
0.05
0.00
0.00
0.00
0.00
0.09
0.09
0.13
0.13
0.09
0.09
0.13
0.03
0.42
0.40
0.49
0.60
0.68
0.59
0.61
0.76
0.87
0.87
0.89
0.90
0.90
0.88
0.71
0.05
0.37
0.31
0.24
0.20
0.24
0.24
0.20
0.20
0.20
0.24
0.28
0.20
0.20
0.20
0.20
0.20
0.24
0.26
0.34
0.20
0.20
0.20
0.20
0.20
0.20
0.20
0.20
0.20
0.20
0.20
0.24
0.24
0.24
0.28
0.35
0.39
0.43
0.51
0.60
0.69
0.69
0.69
0.63
0.60
0.51
0.35
0.32
0.32
0.28
0.20
0.32
0.37
0.28
0.09
0.00
0.00
0.05
0.13
0.13
0.16
0.21
0.21
0.29
0.34
0.34
0.29
0.21
0.16
0.13
0.13
0.13
0.13
0.05
0.05
0.07
0.05
0.05
0.05
0.05
0.07
0.05
0.05
0.05
0.07
0.05
0.03
0.03
0.03
0.00
0.09
0.00
0.00
0.00
0.00
0.05
0.05
0.00
0.00
0.00
0.03
0.00
0.00
0.00
0.00
0.00
0.00
0.03
0.03
0.13
0.00
0.00
0.00
0.00
0.03
0.03
0.00
0.00
0.00
0.05
0.05
0.05
0.03
0.09
0.15
0.09
0.00
0.00
0.00
0.00
0.00
0.00
0.03
0.00
0.03
0.07
0.13
0.21
0.21
0.05
0.00
0.13
0.13
0.15
0.00
0.00
0.00
0.00
0.09
0.09
0.15
0.13
0.07
0.49
0.40
0.54
0.68
0.66
0.54
0.65
0.83
0.89
0.90
0.88
0.89
0.90
0.88
0.51
0.13
0.34
0.33
0.20
0.20
0.20
0.20
0.20
0.20
0.20
0.20
0.20
0.20
0.20
0.20
0.20
0.20
0.24
0.24
0.26
0.31
0.34
0.33
0.24
0.20
0.20
0.20
0.20
0.20
0.20
0.20
0.20
0.24
0.20
0.28
0.29
0.32
0.38
0.51
0.60
0.69
0.73
0.73
0.54
0.39
0.39
0.38
0.28
0.24
0.24
0.24
0.37
0.28
0.21
0.13
0.00
0.00
0.07
0.16
0.21
0.29
0.29
0.29
0.34
0.29
0.16
0.23
0.16
0.16
0.16
0.13
0.10
0.07
0.05
0.05
0.05
0.05
0.07
0.07
0.05
0.05
0.05
0.00
0.03
0.05
0.05
0.05
0.03
0.00
0.00
0.00
0.00
0.00
0.00
0.00
0.00
0.09
0.09
0.00
0.00
0.00
0.09
0.00
0.09
0.13
0.15
0.13
0.00
0.15
0.15
0.25
0.13
0.13
0.00
0.00
0.00
0.13
0.00
0.09
0.09
0.09
0.13
0.00
0.09
0.13
0.15
0.15
0.21
0.15
0.15
0.15
0.15
0.13
0.13
0.09
0.00
0.03
0.05
0.05
0.09
0.28
0.32
0.32
0.30
0.25
0.15
0.15
0.21
0.30
0.21
0.21
0.25
0.21
0.10
0.13
0.34
0.52
0.52
0.50
0.52
0.75
0.85
0.88
0.89
0.88
0.90
0.87
0.61
0.21
0.31
0.20
0.28
0.32
0.32
0.32
0.29
0.28
0.28
0.28
0.35
0.38
0.35
0.32
0.32
0.29
0.28
0.28
0.29
0.28
0.24
0.24
0.28
0.24
0.28
0.24
0.32
0.35
0.38
0.38
0.38
0.38
0.39
0.39
0.32
0.57
0.69
0.60
0.69
0.80
0.83
0.83
0.83
0.83
0.73
0.57
0.43
0.35
0.32
0.35
0.24
0.26
0.39
0.28
0.13
0.00
0.03
0.03
0.07
0.07
0.13
0.16
0.16
0.13
0.13
0.13
0.16
0.13
0.13
0.13
0.10
0.13
0.13
0.13
0.13
0.05
0.05
0.07
0.13
0.07
0.05
0.07
0.07
0.07
0.05
0.10
0.13
0.10
0.03
0.03
0.05
0.05
0.05
0.07
0.07
0.10
0.07
0.13
0.10
0.05
0.05
0.05
0.05
0.05
0.07
0.07
0.05
0.05
0.05
0.07
0.07
0.07
0.07
0.10
0.00
0.05
0.05
0.05
0.05
0.05
0.05
0.07
0.07
0.07
0.07
0.03
0.05
0.05
0.03
0.05
0.07
0.05
0.05
0.07
0.10
0.21
0.29
0.13
0.07
0.00
0.00
0.13
0.13
0.00
0.00
0.13
0.13
0.09
0.13
0.15
0.13
0.03
0.40
0.40
0.40
0.54
0.57
0.54
0.54
0.75
0.85
0.87
0.88
0.89
0.97
0.89
0.76
0.16
0.32
0.31
0.20
0.20
0.24
0.24
0.20
0.20
0.20
0.20
0.20
0.20
0.20
0.24
0.26
0.24
0.20
0.26
0.20
0.20
0.24
0.20
0.26
0.20
0.20
0.20
0.26
0.20
0.26
0.20
0.20
0.29
0.28
0.29
0.32
0.32
0.39
0.39
0.48
0.60
0.58
0.63
0.69
0.58
0.58
0.54
0.43
0.32
0.20
0.24
0.32
0.38
0.30
0.13
0.03
0.05
0.07
0.13
0.23
0.29
0.21
0.23
0.23
0.16
0.21
0.16
0.16
0.16
0.13
0.13
0.07
0.10
0.10
0.07
0.13
0.13
0.07
0.07
0.07
0.07
0.10
0.05
0.05
0.05
0.05
0.00
0.00
0.05
0.05
0.03
0.00
0.00
0.03
0.03
0.05
0.07
0.03
0.09
0.00
0.00
0.03
0.05
0.00
0.00
0.00
0.00
0.00
0.00
0.00
0.05
0.03
0.05
0.00
0.00
0.00
0.00
0.00
0.00
0.00
0.00
0.03
0.00
0.05
0.05
0.03
0.00
0.00
0.00
0.00
0.00
0.05
0.13
0.16
0.16
0.13
0.03
0.00
0.00
0.00
0.00
0.00
0.00
0.00
0.00
0.09
0.09
0.13
0.21
0.00
0.23
0.40
0.51
0.63
0.68
0.54
0.65
0.80
0.88
0.90
0.90
0.91
0.98
0.89
0.51
0.21
0.38
0.31
0.20
0.20
0.20
0.20
0.20
0.20
0.20
0.20
0.20
0.20
0.20
0.20
0.20
0.20
0.20
0.24
0.20
0.20
0.24
0.20
0.20
0.20
0.20
0.24
0.24
0.20
0.20
0.24
0.24
0.28
0.32
0.32
0.38
0.38
0.38
0.48
0.51
0.69
0.73
0.60
0.63
0.54
0.43
0.38
0.38
0.29
0.20
0.24
0.39
0.34
0.25
0.13
0.00
0.03
0.10
0.13
0.13
0.21
0.34
0.40
0.36
0.23
0.16
0.13
0.16
0.16
0.16
0.13
0.13
0.13
0.13
0.13
0.13
0.10
0.07
0.07
0.07
0.10
0.07
0.07
0.05
0.03
0.05
0.07
0.07
0.05
0.05
0.10
0.05
0.00
0.03
0.05
0.05
0.05
0.00
0.03
0.03
0.03
0.05
0.05
0.00
0.00
0.03
0.05
0.05
0.00
0.00
0.00
0.05
0.05
0.05
0.00
0.00
0.00
0.00
0.00
0.00
0.03
0.00
0.05
0.00
0.00
0.00
0.00
0.00
0.00
0.00
0.00
0.03
0.05
0.07
0.13
0.16
0.13
0.05
0.00
0.00
0.00
0.00
0.09
0.09
0.09
0.13
0.09
0.00
0.13
0.13
0.00
0.16
0.36
0.49
0.60
0.65
0.60
0.57
0.75
0.87
0.87
0.89
0.90
0.97
0.90
0.65
0.00
0.39
0.31
0.20
0.20
0.20
0.24
0.20
0.20
0.20
0.20
0.24
0.28
0.20
0.20
0.20
0.20
0.20
0.20
0.20
0.24
0.20
0.20
0.20
0.20
0.24
0.24
0.20
0.24
0.20
0.20
0.20
0.20
0.20
0.32
0.32
0.39
0.48
0.58
0.57
0.69
0.69
0.69
0.57
0.63
0.60
0.51
0.32
0.28
0.20
0.20
0.34
0.38
0.32
0.25
0.13
0.00
0.03
0.05
0.07
0.10
0.07
0.07
0.10
0.13
0.13
0.13
0.10
0.07
0.05
0.05
0.05
0.05
0.03
0.00
0.00
0.00
0.00
0.00
0.00
0.00
0.09
0.09
0.13
0.13
0.13
0.00
0.00
0.00
0.09
0.13
0.21
0.25
0.15
0.21
0.21
0.15
0.00
0.13
0.25
0.21
0.15
0.15
0.15
0.21
0.21
0.15
0.15
0.21
0.13
0.09
0.21
0.32
0.34
0.28
0.25
0.30
0.21
0.21
0.28
0.25
0.15
0.15
0.28
0.25
0.21
0.25
0.30
0.32
0.32
0.32
0.28
0.25
0.30
0.28
0.15
0.00
0.00
0.00
0.00
0.09
0.25
0.25
0.25
0.32
0.32
0.32
0.30
0.28
0.30
0.28
0.28
0.32
0.21
0.05
0.13
0.16
0.40
0.52
0.52
0.52
0.69
0.84
0.87
0.89
0.88
0.90
0.89
0.70
0.09
0.33
0.20
0.29
0.32
0.28
0.24
0.24
0.38
0.32
0.32
0.28
0.29
0.35
0.32
0.28
0.28
0.24
0.24
0.24
0.24
0.28
0.28
0.28
0.28
0.28
0.24
0.28
0.29
0.24
0.24
0.28
0.29
0.28
0.38
0.43
0.60
0.77
0.69
0.69
0.69
0.69
0.60
0.73
0.77
0.73
0.48
0.39
0.32
0.28
0.20
0.33
0.38
0.30
0.25
0.09
0.00
0.03
0.05
0.13
0.16
0.23
0.34
0.36
0.36
0.23
0.16
0.16
0.21
0.21
0.16
0.21
0.16
0.07
0.07
0.13
0.13
0.10
0.05
0.07
0.13
0.10
0.07
0.07
0.13
0.05
0.05
0.03
0.03
0.00
0.05
0.07
0.07
0.05
0.05
0.13
0.13
0.07
0.07
0.05
0.00
0.00
0.05
0.07
0.07
0.05
0.03
0.03
0.05
0.07
0.05
0.05
0.03
0.00
0.03
0.00
0.00
0.05
0.05
0.05
0.03
0.05
0.07
0.05
0.05
0.00
0.03
0.07
0.07
0.00
0.00
0.00
0.03
0.03
0.05
0.07
0.10
0.21
0.29
0.21
0.10
0.07
0.05
0.03
0.00
0.00
0.00
0.03
0.00
0.00
0.03
0.00
0.03
0.16
0.44
0.51
0.59
0.69
0.65
0.57
0.73
0.85
0.87
0.89
0.89
0.89
0.90
0.85
0.34
0.32
0.36
0.38
0.34
0.26
0.24
0.20
0.20
0.20
0.20
0.24
0.20
0.20
0.20
0.20
0.26
0.24
0.32
0.34
0.26
0.24
0.24
0.20
0.20
0.20
0.31
0.26
0.20
0.20
0.31
0.26
0.20
0.20
0.28
0.32
0.39
0.38
0.43
0.51
0.58
0.51
0.63
0.43
0.63
0.57
0.32
0.32
0.32
0.28
0.20
0.31
0.34
0.32
0.21
0.13
0.00
0.07
0.13
0.13
0.16
0.23
0.29
0.36
0.29
0.21
0.21
0.16
0.16
0.16
0.23
0.21
0.10
0.10
0.07
0.07
0.10
0.05
0.00
0.07
0.07
0.07
0.13
0.10
0.03
0.05
0.05
0.07
0.07
0.00
0.00
0.00
0.05
0.05
0.00
0.13
0.00
0.00
0.00
0.03
0.07
0.03
0.00
0.00
0.00
0.03
0.00
0.00
0.00
0.03
0.03
0.00
0.03
0.05
0.03
0.00
0.00
0.00
0.00
0.00
0.03
0.05
0.03
0.13
0.09
0.00
0.00
0.03
0.00
0.00
0.00
0.00
0.00
0.00
0.00
0.05
0.21
0.21
0.10
0.07
0.00
0.13
0.13
0.00
0.00
0.00
0.13
0.13
0.09
0.00
0.00
0.03
0.36
0.46
0.42
0.52
0.65
0.65
0.54
0.68
0.85
0.87
0.88
0.89
0.90
0.88
0.84
0.13
0.28
0.37
0.32
0.20
0.28
0.28
0.24
0.34
0.24
0.20
0.28
0.24
0.26
0.20
0.20
0.20
0.20
0.20
0.20
0.20
0.20
0.20
0.24
0.20
0.20
0.24
0.20
0.20
0.20
0.20
0.20
0.28
0.32
0.29
0.29
0.38
0.39
0.48
0.69
0.69
0.73
0.60
0.60
0.73
0.69
0.38
0.38
0.35
0.28
0.24
0.26
0.32
0.36
0.25
0.00
0.00
0.03
0.13
0.13
0.21
0.23
0.21
0.23
0.21
0.13
0.13
0.16
0.13
0.13
0.10
0.07
0.10
0.07
0.07
0.07
0.05
0.05
0.03
0.07
0.05
0.05
0.00
0.00
0.00
0.03
0.03
0.03
0.00
0.00
0.00
0.00
0.03
0.00
0.09
0.00
0.05
0.00
0.09
0.13
0.03
0.00
0.13
0.00
0.00
0.09
0.13
0.00
0.00
0.09
0.00
0.00
0.00
0.00
0.13
0.13
0.00
0.03
0.15
0.21
0.15
0.13
0.09
0.09
0.09
0.13
0.13
0.13
0.00
0.00
0.15
0.13
0.00
0.00
0.03
0.05
0.13
0.13
0.05
0.00
0.00
0.00
0.13
0.15
0.21
0.15
0.25
0.25
0.15
0.13
0.13
0.03
0.29
0.40
0.43
0.55
0.65
0.57
0.59
0.75
0.86
0.87
0.89
0.90
0.90
0.90
0.69
0.09
0.38
0.32
0.20
0.24
0.20
0.20
0.20
0.20
0.20
0.20
0.24
0.24
0.29
0.28
0.20
0.20
0.20
0.20
0.24
0.24
0.24
0.20
0.20
0.28
0.28
0.24
0.24
0.28
0.28
0.24
0.28
0.35
0.43
0.54
0.57
0.51
0.63
0.85
0.83
0.80
0.80
0.83
0.86
0.83
0.80
0.63
0.63
0.48
0.38
0.35
0.20
0.37
0.36
0.28
0.28
0.00
0.00
0.05
0.05
0.07
0.13
0.13
0.13
0.10
0.10
0.03
0.00
0.03
0.03
0.00
0.13
0.15
0.09
0.00
0.00
0.00
0.00
0.03
0.00
0.00
0.00
0.00
0.00
0.00
0.09
0.00
0.00
0.13
0.09
0.00
0.00
0.00
0.00
0.00
0.00
0.00
0.00
0.00
0.00
0.00
0.13
0.13
0.00
0.00
0.13
0.13
0.00
0.00
0.00
0.09
0.09
0.09
0.13
0.09
0.09
0.13
0.13
0.13
0.09
0.03
0.05
0.00
0.09
0.00
0.00
0.00
0.00
0.00
0.00
0.00
0.13
0.00
0.03
0.07
0.07
0.05
0.03
0.00
0.00
0.09
0.00
0.09
0.00
0.00
0.09
0.09
0.00
0.15
0.21
0.00
0.23
0.23
0.36
0.51
0.54
0.51
0.52
0.70
0.84
0.87
0.89
0.88
0.89
0.90
0.77
0.13
0.32
0.20
0.32
0.29
0.28
0.20
0.20
0.20
0.29
0.20
0.20
0.20
0.20
0.20
0.20
0.20
0.20
0.20
0.20
0.20
0.32
0.32
0.32
0.31
0.24
0.20
0.32
0.31
0.26
0.20
0.20
0.20
0.20
0.20
0.20
0.24
0.28
0.28
0.32
0.28
0.20
0.29
0.38
0.28
0.20
0.20
0.20
0.20
0.33
0.38
0.32
0.30
0.00
0.13
0.13
0.16
0.21
0.29
0.46
0.51
0.52
0.51
0.51
0.51
0.52
0.50
0.51
0.51
0.49
0.42
0.43
0.42
0.29
0.23
0.34
0.23
0.23
0.23
0.21
0.13
0.13
0.16
0.23
0.13
0.10
0.07
0.07
0.13
0.13
0.07
0.13
0.16
0.13
0.07
0.13
0.13
0.23
0.13
0.05
0.05
0.00
0.05
0.10
0.10
0.10
0.13
0.13
0.07
0.05
0.05
0.03
0.10
0.13
0.13
0.13
0.07
0.03
0.05
0.05
0.05
0.03
0.05
0.10
0.13
0.07
0.03
0.03
0.05
0.05
0.03
0.07
0.10
0.05
0.13
0.13
0.21
0.21
0.05
0.00
0.00
0.00
0.05
0.00
0.00
0.00
0.00
0.00
0.00
0.00
0.05
0.40
0.43
0.49
0.54
0.65
0.65
0.60
0.72
0.85
0.88
0.89
0.90
0.97
0.88
0.85
0.46
0.21
0.38
0.39
0.38
0.26
0.20
0.20
0.20
0.20
0.26
0.26
0.20
0.20
0.20
0.20
0.20
0.32
0.26
0.26
0.20
0.26
0.37
0.26
0.26
0.26
0.20
0.20
0.20
0.20
0.20
0.24
0.24
0.24
0.32
0.38
0.35
0.35
0.43
0.57
0.63
0.63
0.58
0.57
0.58
0.60
0.51
0.39
0.32
0.20
0.20
0.31
0.38
0.21
0.00
0.00
0.09
0.03
0.10
0.10
0.23
0.40
0.42
0.36
0.23
0.29
0.16
0.16
0.16
0.16
0.13
0.13
0.13
0.13
0.16
0.16
0.13
0.05
0.05
0.05
0.05
0.13
0.13
0.10
0.10
0.05
0.03
0.05
0.13
0.05
0.03
0.00
0.00
0.05
0.07
0.05
0.05
0.00
0.00
0.05
0.05
0.05
0.05
0.05
0.00
0.00
0.05
0.05
0.05
0.05
0.00
0.00
0.03
0.03
0.03
0.07
0.05
0.00
0.00
0.00
0.00
0.05
0.03
0.05
0.07
0.07
0.05
0.03
0.00
0.00
0.05
0.05
0.05
0.07
0.10
0.16
0.13
0.07
0.05
0.05
0.00
0.00
0.00
0.05
0.03
0.05
0.05
0.00
0.09
0.09
0.09
0.13
0.49
0.51
0.54
0.65
0.59
0.54
0.73
0.84
0.89
0.90
0.89
0.93
0.88
0.86
0.50
0.25
0.37
0.32
0.20
0.20
0.20
0.31
0.31
0.20
0.20
0.20
0.24
0.20
0.20
0.24
0.32
0.20
0.20
0.20
0.20
0.20
0.20
0.20
0.20
0.20
0.26
0.20
0.20
0.20
0.24
0.24
0.29
0.28
0.28
0.29
0.28
0.32
0.39
0.58
0.69
0.69
0.69
0.69
0.60
0.60
0.58
0.51
0.35
0.24
0.20
0.32
0.34
0.38
0.28
0.09
0.00
0.03
0.10
0.21
0.21
0.23
0.23
0.16
0.23
0.21
0.16
0.21
0.23
0.13
0.13
0.21
0.13
0.13
0.07
0.13
0.07
0.05
0.00
0.00
0.05
0.05
0.05
0.07
0.07
0.10
0.13
0.07
0.05
0.00
0.03
0.05
0.00
0.09
0.09
0.00
0.00
0.03
0.05
0.00
0.07
0.05
0.03
0.05
0.07
0.05
0.00
0.00
0.00
0.03
0.03
0.03
0.00
0.00
0.00
0.00
0.00
0.00
0.05
0.05
0.00
0.05
0.05
0.03
0.00
0.03
0.05
0.03
0.00
0.03
0.03
0.00
0.00
0.07
0.13
0.13
0.13
0.10
0.03
0.00
0.00
0.03
0.00
0.00
0.00
0.00
0.00
0.13
0.09
0.00
0.13
0.05
0.36
0.34
0.53
0.68
0.65
0.51
0.61
0.83
0.89
0.90
0.88
0.90
0.88
0.87
0.49
0.30
0.33
0.24
0.20
0.24
0.28
0.24
0.28
0.24
0.20
0.24
0.32
0.28
0.20
0.20
0.20
0.20
0.20
0.20
0.24
0.32
0.29
0.24
0.20
0.28
0.28
0.28
0.32
0.35
0.32
0.32
0.28
0.29
0.48
0.43
0.48
0.63
0.58
0.60
0.77
0.80
0.80
0.83
0.83
0.80
0.73
0.69
0.57
0.43
0.32
0.20
0.32
0.38
0.32
0.21
0.15
0.09
0.00
0.00
0.00
0.05
0.05
0.07
0.07
0.07
0.07
0.07
0.05
0.05
0.05
0.05
0.00
0.00
0.00
0.05
0.00
0.00
0.03
0.00
0.00
0.00
0.00
0.13
0.00
0.05
0.03
0.00
0.09
0.09
0.00
0.09
0.09
0.00
0.09
0.13
0.13
0.15
0.09
0.00
0.00
0.00
0.13
0.13
0.13
0.00
0.00
0.13
0.00
0.09
0.25
0.21
0.13
0.00
0.00
0.00
0.00
0.00
0.00
0.00
0.00
0.00
0.00
0.00
0.00
0.00
0.00
0.00
0.00
0.00
0.00
0.00
0.00
0.00
0.00
0.00
0.00
0.05
0.07
0.05
0.00
0.13
0.13
0.09
0.00
0.00
0.00
0.00
0.00
0.00
0.00
0.00
0.00
0.21
0.51
0.34
0.43
0.60
0.57
0.53
0.66
0.85
0.87
0.89
0.90
0.93
0.89
0.85
0.50
0.15
0.34
0.37
0.34
0.31
0.26
0.26
0.26
0.32
0.31
0.26
0.26
0.31
0.32
0.26
0.26
0.33
0.38
0.38
0.38
0.32
0.34
0.37
0.39
0.34
0.36
0.37
0.24
0.26
0.26
0.26
0.24
0.20
0.20
0.20
0.20
0.20
0.28
0.29
0.38
0.38
0.38
0.32
0.35
0.38
0.28
0.20
0.20
0.20
0.34
0.32
0.21
0.00
0.05
0.13
0.13
0.13
0.23
0.42
0.46
0.49
0.43
0.42
0.36
0.34
0.34
0.42
0.34
0.29
0.23
0.21
0.23
0.23
0.23
0.21
0.23
0.21
0.13
0.13
0.13
0.10
0.07
0.13
0.13
0.10
0.05
0.10
0.13
0.10
0.10
0.07
0.07
0.13
0.16
0.13
0.10
0.07
0.07
0.07
0.07
0.05
0.05
0.05
0.05
0.07
0.07
0.07
0.07
0.07
0.13
0.07
0.05
0.07
0.07
0.07
0.07
0.05
0.03
0.00
0.10
0.07
0.05
0.05
0.07
0.10
0.07
0.05
0.05
0.05
0.05
0.03
0.03
0.05
0.07
0.16
0.23
0.29
0.21
0.10
0.05
0.05
0.07
0.05
0.00
0.00
0.03
0.00
0.00
0.00
0.00
0.00
0.16
0.51
0.51
0.54
0.70
0.66
0.55
0.65
0.83
0.89
0.89
0.89
0.89
0.91
0.87
0.50
0.21
0.39
0.32
0.26
0.26
0.31
0.26
0.26
0.24
0.20
0.20
0.20
0.24
0.20
0.24
0.26
0.24
0.31
0.32
0.26
0.31
0.31
0.31
0.32
0.26
0.31
0.34
0.34
0.26
0.20
0.20
0.20
0.20
0.20
0.28
0.29
0.32
0.35
0.38
0.39
0.48
0.60
0.48
0.39
0.39
0.51
0.38
0.32
0.24
0.20
0.33
0.36
0.25
0.09
0.00
0.00
0.03
0.07
0.10
0.13
0.21
0.29
0.34
0.34
0.29
0.21
0.23
0.21
0.16
0.16
0.13
0.13
0.13
0.07
0.07
0.07
0.10
0.07
0.07
0.10
0.10
0.10
0.07
0.03
0.05
0.07
0.07
0.07
0.10
0.05
0.05
0.05
0.05
0.05
0.05
0.03
0.03
0.05
0.05
0.05
0.00
0.03
0.05
0.05
0.03
0.00
0.05
0.05
0.05
0.00
0.00
0.05
0.05
0.05
0.03
0.00
0.00
0.00
0.00
0.05
0.00
0.00
0.00
0.03
0.05
0.05
0.03
0.05
0.00
0.00
0.00
0.00
0.03
0.05
0.13
0.21
0.21
0.05
0.00
0.00
0.00
0.00
0.00
0.00
0.00
0.09
0.13
0.13
0.15
0.13
0.03
0.23
0.42
0.51
0.59
0.65
0.63
0.58
0.75
0.85
0.87
0.88
0.89
0.92
0.89
0.75
0.10
0.32
0.33
0.24
0.20
0.20
0.20
0.20
0.20
0.20
0.20
0.20
0.20
0.20
0.20
0.20
0.24
0.24
0.24
0.24
0.26
0.26
0.26
0.24
0.20
0.20
0.20
0.20
0.26
0.20
0.20
0.20
0.20
0.20
0.20
0.28
0.32
0.51
0.51
0.51
0.54
0.58
0.63
0.69
0.51
0.43
0.32
0.32
0.28
0.20
0.26
0.32
0.38
0.28
0.13
0.00
0.00
0.05
0.07
0.13
0.16
0.21
0.29
0.34
0.29
0.23
0.23
0.16
0.16
0.16
0.16
0.16
0.16
0.16
0.13
0.10
0.10
0.13
0.07
0.07
0.05
0.03
0.05
0.05
0.05
0.05
0.05
0.05
0.05
0.05
0.05
0.05
0.07
0.10
0.07
0.05
0.00
0.00
0.05
0.03
0.00
0.00
0.00
0.00
0.00
0.00
0.03
0.05
0.03
0.03
0.05
0.05
0.07
0.05
0.00
0.00
0.00
0.00
0.00
0.00
0.00
0.00
0.00
0.03
0.03
0.00
0.00
0.00
0.00
0.00
0.00
0.00
0.00
0.00
0.07
0.13
0.16
0.13
0.05
0.00
0.13
0.15
0.21
0.15
0.15
0.15
0.15
0.15
0.15
0.15
0.15
0.09
0.07
0.23
0.36
0.51
0.59
0.54
0.49
0.65
0.83
0.88
0.90
0.89
0.88
0.89
0.81
0.13
0.38
0.20
0.20
0.29
0.32
0.28
0.28
0.29
0.35
0.32
0.32
0.32
0.32
0.28
0.28
0.28
0.29
0.28
0.28
0.28
0.28
0.28
0.28
0.32
0.32
0.29
0.28
0.32
0.35
0.32
0.35
0.43
0.48
0.60
0.69
0.73
0.69
0.69
0.83
0.86
0.88
0.86
0.86
0.85
0.80
0.80
0.77
0.57
0.51
0.38
0.24
0.26
0.26
0.38
0.34
0.28
0.13
0.00
0.03
0.05
0.07
0.07
0.07
0.10
0.07
0.07
0.07
0.05
0.00
0.00
0.03
0.03
0.03
0.00
0.00
0.00
0.00
0.00
0.00
0.00
0.00
0.00
0.00
0.00
0.00
0.00
0.00
0.13
0.15
0.00
0.09
0.13
0.00
0.00
0.09
0.00
0.00
0.00
0.09
0.15
0.15
0.09
0.00
0.00
0.00
0.00
0.00
0.00
0.13
0.13
0.09
0.00
0.09
0.00
0.00
0.00
0.00
0.00
0.00
0.05
0.00
0.00
0.00
0.00
0.00
0.00
0.05
0.05
0.07
0.05
0.05
0.05
0.05
0.07
0.07
0.10
0.29
0.34
0.34
0.13
0.05
0.00
0.00
0.00
0.03
0.03
0.03
0.05
0.05
0.05
0.05
0.03
0.16
0.46
0.51
0.53
0.65
0.68
0.61
0.69
0.83
0.89
0.89
0.90
0.94
0.98
0.87
0.54
0.00
0.25
0.38
0.37
0.38
0.33
0.32
0.37
0.38
0.39
0.38
0.37
0.34
0.38
0.32
0.36
0.38
0.39
0.37
0.38
0.37
0.36
0.36
0.38
0.38
0.37
0.39
0.38
0.37
0.38
0.32
0.32
0.26
0.26
0.20
0.20
0.24
0.24
0.24
0.32
0.35
0.32
0.39
0.35
0.28
0.24
0.29
0.24
0.32
0.37
0.37
0.32
0.21
0.09
0.03
0.05
0.13
0.13
0.21
0.43
0.46
0.49
0.50
0.43
0.42
0.43
0.46
0.44
0.42
0.42
0.34
0.29
0.23
0.16
0.16
0.16
0.16
0.13
0.13
0.13
0.16
0.16
0.13
0.13
0.13
0.13
0.16
0.13
0.13
0.07
0.07
0.07
0.10
0.05
0.07
0.13
0.05
0.05
0.05
0.07
0.07
0.07
0.07
0.05
0.03
0.03
0.03
0.05
0.07
0.05
0.03
0.03
0.03
0.05
0.07
0.07
0.07
0.07
0.05
0.03
0.00
0.03
0.07
0.05
0.00
0.00
0.00
0.00
0.05
0.05
0.03
0.05
0.07
0.16
0.23
0.29
0.13
0.05
0.00
0.00
0.05
0.05
0.05
0.00
0.09
0.09
0.00
0.00
0.13
0.00
0.29
0.44
0.44
0.53
0.65
0.65
0.57
0.72
0.85
0.88
0.89
0.89
0.90
0.88
0.86
0.36
0.34
0.32
0.26
0.20
0.20
0.20
0.20
0.20
0.20
0.20
0.20
0.20
0.20
0.20
0.24
0.20
0.20
0.24
0.26
0.20
0.20
0.20
0.20
0.20
0.20
0.20
0.20
0.20
0.20
0.20
0.24
0.20
0.24
0.32
0.35
0.35
0.43
0.48
0.60
0.69
0.63
0.60
0.73
0.69
0.63
0.39
0.32
0.29
0.28
0.20
0.34
0.37
0.32
0.15
0.15
0.00
0.05
0.07
0.13
0.21
0.29
0.23
0.23
0.23
0.23
0.16
0.16
0.21
0.16
0.13
0.13
0.13
0.13
0.13
0.10
0.07
0.10
0.10
0.07
0.07
0.07
0.05
0.05
0.00
0.00
0.00
0.07
0.05
0.00
0.00
0.05
0.03
0.03
0.05
0.03
0.05
0.00
0.03
0.05
0.00
0.00
0.00
0.00
0.00
0.00
0.00
0.00
0.07
0.05
0.00
0.00
0.00
0.00
0.00
0.00
0.00
0.00
0.00
0.00
0.00
0.00
0.00
0.00
0.03
0.03
0.03
0.00
0.00
0.00
0.07
0.13
0.16
0.23
0.23
0.07
0.03
0.00
0.03
0.00
0.00
0.00
0.00
0.09
0.09
0.00
0.00
0.09
0.05
0.36
0.46
0.51
0.63
0.65
0.54
0.59
0.79
0.87
0.87
0.89
0.90
0.90
0.87
0.65
0.09
0.38
0.32
0.24
0.20
0.20
0.20
0.20
0.20
0.31
0.32
0.20
0.20
0.20
0.20
0.20
0.20
0.20
0.24
0.20
0.20
0.26
0.26
0.26
0.20
0.20
0.20
0.24
0.24
0.24
0.29
0.28
0.20
0.20
0.29
0.38
0.39
0.43
0.48
0.51
0.60
0.69
0.69
0.69
0.60
0.48
0.43
0.48
0.38
0.28
0.20
0.33
0.38
0.30
0.21
0.13
0.05
0.05
0.07
0.07
0.21
0.10
0.10
0.23
0.36
0.23
0.16
0.16
0.10
0.07
0.07
0.05
0.05
0.05
0.05
0.03
0.00
0.00
0.00
0.05
0.07
0.00
0.00
0.00
0.09
0.13
0.00
0.00
0.05
0.00
0.09
0.25
0.21
0.00
0.05
0.09
0.21
0.13
0.09
0.13
0.15
0.13
0.13
0.21
0.15
0.09
0.15
0.21
0.25
0.15
0.15
0.28
0.25
0.15
0.15
0.15
0.25
0.28
0.28
0.30
0.32
0.32
0.32
0.34
0.28
0.13
0.13
0.25
0.32
0.34
0.28
0.32
0.30
0.15
0.00
0.00
0.00
0.09
0.13
0.25
0.32
0.32
0.32
0.32
0.38
0.37
0.38
0.38
0.38
0.32
0.25
0.03
0.10
0.10
0.29
0.51
0.51
0.44
0.54
0.76
0.86
0.87
0.89
0.88
0.88
0.85
0.42
0.34
0.28
0.32
0.35
0.54
0.60
0.43
0.32
0.48
0.57
0.35
0.32
0.32
0.38
0.39
0.38
0.35
0.32
0.35
0.32
0.32
0.32
0.38
0.28
0.29
0.32
0.38
0.39
0.32
0.28
0.39
0.43
0.39
0.43
0.39
0.38
0.43
0.57
0.69
0.73
0.69
0.73
0.73
0.80
0.73
0.54
0.38
0.39
0.35
0.24
0.31
0.33
0.38
0.25
0.13
0.00
0.03
0.05
0.07
0.07
0.10
0.13
0.16
0.21
0.16
0.29
0.21
0.10
0.13
0.10
0.07
0.07
0.10
0.10
0.10
0.07
0.07
0.07
0.13
0.13
0.07
0.07
0.07
0.10
0.07
0.05
0.05
0.07
0.10
0.13
0.05
0.05
0.07
0.07
0.10
0.10
0.13
0.13
0.05
0.07
0.07
0.07
0.07
0.10
0.13
0.07
0.13
0.13
0.07
0.10
0.13
0.13
0.16
0.16
0.13
0.10
0.10
0.13
0.16
0.21
0.16
0.16
0.16
0.16
0.13
0.13
0.16
0.16
0.13
0.13
0.13
0.13
0.16
0.29
0.44
0.50
0.50
0.42
0.21
0.10
0.05
0.00
0.05
0.05
0.05
0.05
0.07
0.05
0.05
0.05
0.13
0.46
0.51
0.52
0.65
0.72
0.65
0.65
0.79
0.88
0.90
0.89
0.89
0.97
0.89
0.77
0.23
0.21
0.36
0.38
0.37
0.38
0.26
0.26
0.26
0.26
0.26
0.26
0.31
0.33
0.24
0.26
0.33
0.39
0.26
0.24
0.39
0.39
0.31
0.32
0.31
0.32
0.26
0.24
0.24
0.20
0.20
0.26
0.20
0.20
0.28
0.28
0.28
0.35
0.48
0.54
0.48
0.51
0.48
0.43
0.51
0.48
0.38
0.28
0.20
0.20
0.26
0.36
0.21
0.09
0.05
0.13
0.13
0.05
0.07
0.13
0.13
0.16
0.16
0.21
0.43
0.36
0.23
0.23
0.16
0.16
0.13
0.13
0.07
0.07
0.10
0.10
0.05
0.05
0.07
0.10
0.13
0.13
0.10
0.05
0.05
0.05
0.00
0.00
0.00
0.00
0.00
0.00
0.03
0.00
0.00
0.00
0.05
0.05
0.03
0.00
0.00
0.05
0.03
0.00
0.00
0.00
0.00
0.05
0.03
0.00
0.00
0.00
0.00
0.00
0.00
0.00
0.00
0.00
0.00
0.00
0.00
0.09
0.09
0.13
0.15
0.09
0.00
0.00
0.00
0.00
0.00
0.09
0.09
0.05
0.07
0.10
0.13
0.10
0.00
0.09
0.00
0.00
0.00
0.09
0.13
0.13
0.34
0.25
0.15
0.13
0.13
0.16
0.36
0.46
0.57
0.65
0.54
0.54
0.74
0.85
0.87
0.88
0.88
0.90
0.89
0.71
0.00
0.34
0.28
0.28
0.20
0.24
0.24
0.24
0.20
0.20
0.24
0.29
0.32
0.28
0.28
0.24
0.24
0.20
0.20
0.20
0.26
0.28
0.28
0.28
0.32
0.32
0.38
0.28
0.24
0.35
0.38
0.28
0.29
0.39
0.57
0.57
0.63
0.51
0.57
0.80
0.80
0.73
0.57
0.57
0.60
0.51
0.39
0.35
0.28
0.20
0.26
0.34
0.32
0.25
0.25
0.09
0.03
0.00
0.03
0.13
0.13
0.16
0.29
0.21
0.29
0.16
0.13
0.10
0.10
0.10
0.13
0.13
0.13
0.07
0.07
0.07
0.05
0.05
0.05
0.03
0.00
0.00
0.05
0.05
0.05
0.05
0.05
0.05
0.00
0.05
0.05
0.00
0.05
0.05
0.05
0.03
0.00
0.00
0.03
0.03
0.05
0.05
0.05
0.05
0.00
0.05
0.05
0.05
0.00
0.00
0.09
0.00
0.00
0.00
0.00
0.10
0.07
0.07
0.05
0.03
0.00
0.00
0.03
0.05
0.05
0.05
0.05
0.07
0.05
0.05
0.10
0.16
0.34
0.40
0.40
0.23
0.10
0.07
0.00
0.00
0.05
0.03
0.00
0.00
0.00
0.09
0.09
0.03
0.05
0.29
0.51
0.51
0.61
0.73
0.65
0.54
0.72
0.85
0.87
0.89
0.89
0.97
0.89
0.83
0.29
0.15
0.39
0.31
0.32
0.32
0.24
0.31
0.34
0.34
0.32
0.20
0.26
0.34
0.38
0.32
0.32
0.34
0.33
0.39
0.38
0.33
0.38
0.38
0.31
0.34
0.38
0.37
0.34
0.26
0.34
0.32
0.20
0.20
0.20
0.20
0.20
0.28
0.29
0.32
0.38
0.39
0.43
0.43
0.35
0.28
0.29
0.28
0.31
0.34
0.38
0.32
0.21
0.13
0.00
0.07
0.13
0.13
0.13
0.29
0.44
0.46
0.42
0.42
0.50
0.49
0.46
0.46
0.43
0.34
0.29
0.29
0.23
0.16
0.13
0.07
0.13
0.13
0.13
0.13
0.13
0.13
0.13
0.13
0.10
0.07
0.07
0.13
0.13
0.10
0.10
0.07
0.07
0.05
0.03
0.03
0.05
0.05
0.05
0.03
0.03
0.05
0.05
0.05
0.05
0.05
0.05
0.00
0.00
0.00
0.00
0.00
0.00
0.00
0.00
0.00
0.00
0.00
0.00
0.00
0.15
0.13
0.00
0.00
0.00
0.09
0.15
0.09
0.13
0.15
0.13
0.13
0.00
0.00
0.03
0.05
0.07
0.03
0.13
0.25
0.25
0.21
0.21
0.21
0.15
0.15
0.15
0.15
0.15
0.25
0.15
0.07
0.29
0.34
0.46
0.55
0.54
0.49
0.65
0.83
0.89
0.90
0.88
0.89
0.88
0.84
0.34
0.30
0.38
0.24
0.28
0.24
0.20
0.28
0.24
0.24
0.20
0.20
0.24
0.20
0.20
0.20
0.20
0.20
0.20
0.20
0.20
0.20
0.20
0.20
0.20
0.20
0.20
0.20
0.20
0.20
0.20
0.20
0.24
0.24
0.32
0.32
0.39
0.48
0.43
0.54
0.63
0.60
0.69
0.73
0.69
0.69
0.57
0.35
0.32
0.24
0.20
0.38
0.34
0.21
0.13
0.00
0.03
0.05
0.13
0.16
0.21
0.29
0.34
0.29
0.23
0.21
0.21
0.29
0.23
0.21
0.07
0.07
0.10
0.10
0.03
0.00
0.05
0.05
0.05
0.05
0.05
0.05
0.05
0.05
0.03
0.00
0.00
0.05
0.07
0.05
0.05
0.05
0.03
0.00
0.00
0.00
0.00
0.09
0.09
0.00
0.00
0.00
0.00
0.00
0.00
0.00
0.00
0.00
0.00
0.00
0.13
0.09
0.00
0.00
0.00
0.09
0.00
0.00
0.00
0.00
0.00
0.09
0.00
0.00
0.00
0.03
0.00
0.00
0.00
0.00
0.09
0.09
0.00
0.05
0.07
0.10
0.13
0.05
0.00
0.13
0.13
0.13
0.13
0.09
0.09
0.13
0.21
0.15
0.13
0.13
0.00
0.13
0.42
0.40
0.52
0.60
0.57
0.53
0.68
0.83
0.89
0.90
0.89
0.88
0.89
0.80
0.13
0.34
0.38
0.24
0.20
0.20
0.20
0.20
0.24
0.28
0.20
0.20
0.20
0.20
0.20
0.20
0.20
0.20
0.20
0.20
0.20
0.20
0.24
0.24
0.20
0.20
0.20
0.20
0.20
0.20
0.20
0.20
0.24
0.24
0.32
0.32
0.43
0.51
0.60
0.69
0.43
0.43
0.43
0.43
0.43
0.39
0.38
0.28
0.20
0.26
0.34
0.37
0.21
0.13
0.00
0.03
0.05
0.05
0.13
0.23
0.34
0.42
0.44
0.42
0.42
0.42
0.34
0.29
0.29
0.34
0.29
0.21
0.21
0.21
0.16
0.16
0.16
0.13
0.13
0.13
0.16
0.13
0.13
0.13
0.10
0.10
0.13
0.00
0.00
0.05
0.03
0.00
0.00
0.00
0.00
0.00
0.00
0.00
0.00
0.00
0.00
0.00
0.00
0.00
0.00
0.13
0.13
0.00
0.00
0.00
0.00
0.00
0.00
0.00
0.00
0.00
0.00
0.00
0.00
0.00
0.00
0.00
0.00
0.00
0.00
0.00
0.00
0.00
0.00
0.00
0.00
0.05
0.07
0.16
0.05
0.00
0.15
0.15
0.09
0.09
0.15
0.09
0.00
0.00
0.09
0.09
0.09
0.03
0.13
0.29
0.42
0.54
0.65
0.60
0.54
0.66
0.83
0.89
0.89
0.89
0.88
0.88
0.81
0.13
0.38
0.24
0.24
0.20
0.20
0.29
0.28
0.24
0.29
0.28
0.28
0.28
0.29
0.35
0.32
0.35
0.32
0.32
0.38
0.39
0.39
0.35
0.32
0.32
0.32
0.32
0.28
0.29
0.35
0.32
0.29
0.29
0.35
0.38
0.51
0.48
0.54
0.69
0.73
0.69
0.69
0.69
0.63
0.58
0.51
0.60
0.58
0.39
0.28
0.28
0.39
0.37
0.38
0.37
0.36
0.21
0.00
0.03
0.05
0.05
0.05
0.07
0.07
0.10
0.10
0.05
0.05
0.07
0.03
0.13
0.15
0.21
0.28
0.28
0.30
0.36
0.36
0.32
0.30
0.38
0.38
0.32
0.32
0.32
0.32
0.36
0.38
0.36
0.32
0.34
0.26
0.31
0.36
0.36
0.36
0.36
0.38
0.26
0.26
0.38
0.39
0.37
0.37
0.34
0.32
0.32
0.28
0.34
0.38
0.38
0.37
0.38
0.30
0.28
0.30
0.28
0.32
0.32
0.28
0.34
0.38
0.38
0.34
0.25
0.21
0.30
0.38
0.34
0.32
0.34
0.13
0.03
0.13
0.00
0.15
0.34
0.36
0.32
0.33
0.31
0.34
0.26
0.26
0.26
0.31
0.36
0.36
0.34
0.00
0.03
0.05
0.40
0.51
0.44
0.40
0.58
0.80
0.89
0.89
0.89
0.88
0.90
0.76
0.03
0.31
0.20
0.24
0.28
0.32
0.32
0.39
0.32
0.35
0.32
0.39
0.39
0.32
0.32
0.20
0.20
0.20
0.29
0.20
0.26
0.20
0.24
0.24
0.26
0.24
0.35
0.39
0.29
0.20
0.20
0.20
0.20
0.28
0.38
0.48
0.38
0.35
0.38
0.35
0.32
0.39
0.69
0.77
0.54
0.28
0.28
0.38
0.20
0.26
0.20
0.39
0.30
0.00
0.00
0.00
0.13
0.10
0.21
0.29
0.23
0.10
0.29
0.36
0.05
0.05
0.13
0.29
0.07
0.07
0.10
0.10
0.34
0.42
0.29
0.16
0.05
0.09
0.00
0.03
0.05
0.13
0.10
0.07
0.10
0.05
0.00
0.05
0.03
0.00
0.00
0.05
0.05
0.07
0.00
0.13
0.00
0.00
0.00
0.03
0.07
0.23
0.00
0.03
0.05
0.09
0.00
0.05
0.03
0.09
0.13
0.13
0.00
0.00
0.00
0.05
0.03
0.03
0.07
0.05
0.00
0.00
0.00
0.00
0.05
0.13
0.21
0.07
0.21
0.28
0.00
0.10
0.21
0.23
0.21
0.07
0.05
0.10
0.03
0.15
0.13
0.03
0.00
0.09
0.00
0.00
0.00
0.00
0.05
0.36
0.34
0.46
0.54
0.54
0.51
0.63
0.80
0.86
0.88
0.89
0.90
0.90
0.87
0.75
0.29
0.13
0.38
0.26
0.20
0.20
0.20
0.20
0.20
0.20
0.26
0.38
0.31
0.24
0.20
0.20
0.34
0.34
0.33
0.38
0.38
0.24
0.26
0.37
0.33
0.39
0.26
0.26
0.38
0.26
0.26
0.20
0.20
0.28
0.32
0.28
0.29
0.24
0.24
0.39
0.51
0.38
0.35
0.29
0.20
0.20
0.20
0.29
0.24
0.29
0.24
0.32
0.28
0.15
0.13
0.05
0.21
0.16
0.13
0.16
0.16
0.23
0.34
0.50
0.40
0.23
0.13
0.10
0.10
0.10
0.10
0.13
0.23
0.10
0.07
0.13
0.10
0.05
0.07
0.10
0.10
0.05
0.05
0.05
0.05
0.05
0.05
0.13
0.34
0.13
0.03
0.05
0.07
0.10
0.07
0.05
0.03
0.05
0.13
0.10
0.03
0.05
0.05
0.03
0.05
0.13
0.05
0.03
0.05
0.07
0.03
0.09
0.03
0.13
0.10
0.03
0.10
0.21
0.13
0.03
0.09
0.09
0.00
0.05
0.07
0.10
0.05
0.03
0.03
0.07
0.13
0.21
0.21
0.07
0.07
0.13
0.10
0.00
0.00
0.07
0.07
0.03
0.03
0.07
0.07
0.29
0.07
0.13
0.00
0.16
0.52
0.53
0.55
0.65
0.61
0.59
0.70
0.83
0.89
0.89
0.90
0.94
0.91
0.88
0.66
0.10
0.32
0.38
0.34
0.38
0.38
0.32
0.24
0.28
0.24
0.26
0.26
0.26
0.31
0.34
0.37
0.34
0.32
0.32
0.32
0.38
0.24
0.34
0.34
0.38
0.37
0.39
0.39
0.33
0.21
0.36
0.33
0.26
0.20
0.29
0.20
0.24
0.26
0.32
0.20
0.29
0.35
0.54
0.48
0.28
0.20
0.31
0.38
0.37
0.34
0.15
0.13
0.15
0.03
0.05
0.05
0.07
0.07
0.16
0.49
0.49
0.21
0.16
0.36
0.46
0.51
0.40
0.21
0.34
0.13
0.23
0.13
0.16
0.16
0.05
0.07
0.13
0.13
0.13
0.23
0.13
0.07
0.10
0.13
0.05
0.05
0.05
0.13
0.40
0.34
0.05
0.05
0.10
0.10
0.03
0.00
0.05
0.05
0.05
0.13
0.13
0.07
0.07
0.10
0.21
0.07
0.05
0.05
0.13
0.05
0.07
0.13
0.07
0.05
0.05
0.05
0.03
0.03
0.05
0.13
0.05
0.00
0.09
0.05
0.13
0.13
0.13
0.05
0.09
0.05
0.23
0.23
0.13
0.36
0.36
0.07
0.00
0.00
0.05
0.00
0.09
0.05
0.00
0.05
0.10
0.05
0.03
0.16
0.42
0.51
0.51
0.57
0.66
0.58
0.52
0.74
0.88
0.87
0.88
0.89
0.89
0.89
0.84
0.42
0.13
0.32
0.28
0.20
0.32
0.24
0.20
0.29
0.28
0.24
0.28
0.20
0.33
0.38
0.37
0.38
0.31
0.33
0.33
0.32
0.34
0.24
0.20
0.34
0.25
0.33
0.24
0.39
0.26
0.26
0.39
0.28
0.38
0.28
0.26
0.33
0.29
0.32
0.32
0.39
0.38
0.39
0.38
0.32
0.20
0.28
0.20
0.38
0.28
0.32
0.38
0.39
0.25
0.00
0.00
0.00
0.07
0.16
0.23
0.42
0.51
0.52
0.51
0.23
0.16
0.29
0.34
0.16
0.05
0.07
0.23
0.43
0.49
0.16
0.13
0.10
0.05
0.10
0.13
0.07
0.03
0.13
0.21
0.10
0.07
0.07
0.05
0.16
0.10
0.05
0.05
0.05
0.13
0.21
0.10
0.03
0.00
0.03
0.10
0.13
0.05
0.00
0.07
0.16
0.13
0.07
0.03
0.05
0.13
0.42
0.13
0.05
0.00
0.13
0.05
0.00
0.05
0.07
0.07
0.10
0.16
0.23
0.21
0.07
0.00
0.00
0.00
0.05
0.13
0.13
0.13
0.16
0.34
0.49
0.42
0.13
0.05
0.03
0.03
0.05
0.07
0.05
0.00
0.03
0.03
0.03
0.03
0.29
0.52
0.51
0.52
0.60
0.65
0.58
0.61
0.73
0.85
0.87
0.89
0.90
1.00
0.87
0.65
0.03
0.38
0.20
0.20
0.33
0.32
0.24
0.20
0.24
0.48
0.38
0.28
0.33
0.26
0.28
0.20
0.24
0.20
0.20
0.24
0.24
0.26
0.32
0.20
0.28
0.28
0.20
0.20
0.24
0.24
0.32
0.32
0.24
0.20
0.28
0.29
0.24
0.32
0.29
0.20
0.39
0.20
0.39
0.38
0.32
0.28
0.20
0.33
0.37
0.38
0.36
0.30
0.13
0.03
0.13
0.16
0.05
0.05
0.13
0.40
0.42
0.40
0.44
0.42
0.21
0.16
0.16
0.21
0.23
0.16
0.13
0.13
0.23
0.23
0.16
0.13
0.03
0.05
0.10
0.13
0.13
0.10
0.05
0.10
0.10
0.13
0.13
0.07
0.10
0.13
0.13
0.07
0.05
0.03
0.03
0.13
0.07
0.03
0.00
0.09
0.00
0.05
0.03
0.00
0.00
0.00
0.15
0.00
0.05
0.05
0.03
0.00
0.00
0.00
0.05
0.05
0.05
0.00
0.00
0.09
0.13
0.00
0.03
0.00
0.03
0.05
0.13
0.00
0.21
0.21
0.10
0.13
0.07
0.13
0.03
0.13
0.15
0.00
0.03
0.00
0.00
0.15
0.30
0.21
0.00
0.00
0.09
0.05
