0.47
0.43
0.55
0.55
0.56
0.55
0.55
0.43
0.32
0.23
0.25
0.36
0.38
0.39
0.36
0.36
0.35
0.10
0.04
0.12
0.21
0.21
0.30
0.33
0.26
0.24
0.15
0.12
0.15
0.21
0.14
0.09
0.14
0.30
0.21
0.14
0.07
0.12
0.07
0.07
0.07
0.14
0.12
0.06
0.06
0.07
0.07
0.00
0.00
0.07
0.07
0.07
0.06
0.07
0.12
0.07
0.07
0.04
0.00
0.04
0.00
0.00
0.06
0.06
0.07
0.12
0.07
0.00
0.04
0.06
0.07
0.07
0.06
0.00
0.00
0.06
0.09
0.07
0.07
0.07
0.07
0.00
0.06
0.04
0.07
0.04
0.00
0.04
0.07
0.07
0.12
0.07
0.06
0.06
0.07
0.21
0.24
0.21
0.09
0.06
0.04
0.00
0.00
0.04
0.06
0.04
0.00
0.00
0.04
0.06
0.06
0.14
0.30
0.26
0.32
0.50
0.55
0.49
0.54
0.82
0.87
0.91
0.92
0.91
0.99
0.92
0.78
0.10
0.38
0.31
0.25
0.21
0.25
0.26
0.37
0.32
0.32
0.26
0.22
0.22
0.26
0.25
0.25
0.23
0.26
0.26
0.21
0.21
0.23
0.23
0.21
0.21
0.21
0.21
0.21
0.23
0.26
0.29
0.26
0.43
0.51
0.43
0.41
0.43
0.43
0.47
0.56
0.47
0.55
0.55
0.55
0.56
0.47
0.43
0.29
0.29
0.25
0.36
0.36
0.29
0.10
0.00
0.00
0.06
0.12
0.14
0.15
0.15
0.15
0.18
0.24
0.30
0.32
0.32
0.21
0.14
0.09
0.15
0.21
0.15
0.15
0.14
0.14
0.14
0.12
0.07
0.07
0.06
0.09
0.09
0.09
0.07
0.12
0.12
0.07
0.07
0.07
0.07
0.07
0.07
0.07
0.07
0.00
0.07
0.09
0.15
0.12
0.06
0.06
0.07
0.06
0.04
0.04
0.04
0.07
0.09
0.07
0.04
0.06
0.06
0.06
0.09
0.12
0.06
0.00
0.00
0.00
0.00
0.04
0.07
0.07
0.07
0.07
0.04
0.00
0.00
0.06
0.04
0.00
0.00
0.07
0.06
0.07
0.15
0.14
0.07
0.00
0.12
0.25
0.25
0.19
0.10
0.00
0.00
0.00
0.00
0.00
0.00
0.07
0.21
0.30
0.42
0.49
0.49
0.48
0.53
0.80
0.87
0.91
0.92
0.93
0.91
0.92
0.68
0.10
0.37
0.26
0.26
0.23
0.26
0.23
0.30
0.23
0.30
0.23
0.30
0.21
0.21
0.26
0.22
0.22
0.22
0.25
0.25
0.22
0.25
0.25
0.26
0.29
0.22
0.29
0.25
0.23
0.26
0.26
0.29
0.32
0.30
0.29
0.32
0.37
0.51
0.51
0.56
0.55
0.43
0.43
0.51
0.41
0.30
0.26
0.30
0.26
0.31
0.35
0.35
0.36
0.12
0.04
0.07
0.12
0.14
0.18
0.24
0.24
0.26
0.36
0.30
0.18
0.15
0.18
0.24
0.24
0.21
0.18
0.15
0.15
0.15
0.15
0.15
0.15
0.15
0.15
0.18
0.12
0.07
0.07
0.14
0.07
0.07
0.12
0.12
0.07
0.07
0.07
0.07
0.07
0.07
0.07
0.07
0.06
0.04
0.07
0.15
0.07
0.07
0.12
0.07
0.06
0.06
0.04
0.04
0.06
0.06
0.06
0.07
0.04
0.00
0.00
0.00
0.04
0.04
0.00
0.00
0.06
0.00
0.00
0.04
0.07
0.00
0.04
0.00
0.00
0.04
0.00
0.00
0.00
0.00
0.04
0.07
0.09
0.12
0.07
0.04
0.00
0.00
0.00
0.00
0.00
0.00
0.00
0.00
0.00
0.10
0.00
0.14
0.33
0.36
0.30
0.47
0.59
0.59
0.59
0.82
0.87
0.91
0.92
0.92
0.97
0.92
0.85
0.14
0.35
0.37
0.29
0.29
0.25
0.21
0.22
0.23
0.29
0.25
0.21
0.23
0.21
0.21
0.25
0.25
0.22
0.25
0.31
0.29
0.22
0.21
0.21
0.25
0.22
0.22
0.22
0.22
0.25
0.25
0.26
0.30
0.26
0.23
0.29
0.37
0.51
0.59
0.66
0.62
0.55
0.56
0.55
0.37
0.30
0.26
0.22
0.26
0.35
0.35
0.40
0.35
0.29
0.00
0.07
0.15
0.15
0.18
0.21
0.38
0.38
0.41
0.43
0.43
0.43
0.43
0.42
0.26
0.09
0.14
0.15
0.12
0.12
0.14
0.07
0.07
0.09
0.09
0.07
0.07
0.07
0.09
0.09
0.15
0.15
0.07
0.00
0.04
0.07
0.07
0.07
0.06
0.07
0.07
0.06
0.07
0.06
0.04
0.06
0.04
0.07
0.07
0.04
0.04
0.06
0.04
0.06
0.04
0.06
0.07
0.06
0.06
0.04
0.04
0.00
0.00
0.00
0.04
0.04
0.06
0.07
0.06
0.04
0.06
0.07
0.04
0.00
0.00
0.04
0.06
0.07
0.07
0.12
0.15
0.26
0.26
0.07
0.04
0.00
0.00
0.06
0.04
0.00
0.00
0.00
0.00
0.00
0.00
0.00
0.24
0.42
0.46
0.50
0.60
0.61
0.59
0.74
0.86
0.90
0.93
0.91
0.97
0.91
0.91
0.55
0.12
0.39
0.31
0.35
0.26
0.26
0.26
0.25
0.25
0.26
0.23
0.21
0.29
0.29
0.29
0.26
0.39
0.36
0.31
0.26
0.29
0.26
0.25
0.25
0.29
0.25
0.29
0.29
0.35
0.31
0.25
0.22
0.22
0.21
0.29
0.32
0.37
0.47
0.51
0.51
0.56
0.66
0.66
0.59
0.55
0.43
0.30
0.26
0.21
0.29
0.38
0.38
0.38
0.25
0.12
0.00
0.07
0.14
0.14
0.15
0.21
0.24
0.36
0.30
0.18
0.21
0.15
0.21
0.15
0.15
0.15
0.21
0.14
0.12
0.14
0.12
0.09
0.09
0.09
0.07
0.07
0.12
0.12
0.09
0.07
0.07
0.09
0.04
0.04
0.07
0.07
0.04
0.04
0.07
0.00
0.00
0.00
0.00
0.00
0.00
0.00
0.04
0.04
0.00
0.00
0.00
0.00
0.06
0.04
0.10
0.00
0.04
0.00
0.12
0.00
0.00
0.00
0.10
0.00
0.00
0.10
0.00
0.00
0.00
0.00
0.00
0.00
0.00
0.00
0.00
0.04
0.04
0.06
0.04
0.04
0.09
0.15
0.07
0.00
0.00
0.19
0.19
0.00
0.00
0.00
0.29
0.19
0.00
0.00
0.19
0.12
0.09
0.36
0.41
0.48
0.57
0.57
0.54
0.75
0.87
0.91
0.93
0.91
0.94
0.91
0.87
0.33
0.38
0.29
0.21
0.29
0.29
0.21
0.21
0.26
0.29
0.32
0.32
0.30
0.21
0.21
0.21
0.21
0.26
0.30
0.32
0.26
0.23
0.30
0.32
0.23
0.21
0.21
0.37
0.43
0.41
0.43
0.37
0.41
0.47
0.55
0.55
0.59
0.75
0.80
0.82
0.83
0.83
0.82
0.83
0.82
0.72
0.59
0.55
0.37
0.30
0.23
0.25
0.39
0.35
0.36
0.19
0.00
0.00
0.04
0.07
0.07
0.09
0.14
0.15
0.21
0.15
0.15
0.14
0.14
0.07
0.07
0.07
0.07
0.04
0.04
0.06
0.07
0.09
0.07
0.07
0.06
0.04
0.00
0.04
0.00
0.00
0.12
0.12
0.10
0.00
0.00
0.00
0.04
0.00
0.00
0.00
0.04
0.12
0.19
0.12
0.00
0.00
0.12
0.12
0.10
0.10
0.00
0.12
0.10
0.12
0.19
0.12
0.12
0.19
0.10
0.10
0.12
0.10
0.00
0.00
0.00
0.00
0.12
0.35
0.35
0.12
0.00
0.10
0.19
0.19
0.19
0.19
0.12
0.10
0.00
0.06
0.09
0.07
0.07
0.00
0.19
0.19
0.12
0.12
0.19
0.36
0.19
0.25
0.19
0.19
0.19
0.00
0.12
0.21
0.18
0.38
0.48
0.50
0.48
0.72
0.87
0.89
0.93
0.91
0.92
0.92
0.88
0.33
0.39
0.25
0.26
0.32
0.32
0.32
0.29
0.26
0.37
0.51
0.43
0.32
0.30
0.23
0.21
0.29
0.30
0.21
0.32
0.30
0.29
0.29
0.29
0.31
0.37
0.29
0.23
0.25
0.22
0.29
0.32
0.26
0.21
0.29
0.41
0.37
0.47
0.59
0.66
0.66
0.66
0.66
0.62
0.55
0.51
0.47
0.47
0.32
0.23
0.29
0.31
0.38
0.36
0.35
0.10
0.00
0.04
0.07
0.15
0.18
0.24
0.18
0.15
0.18
0.24
0.18
0.15
0.14
0.14
0.15
0.14
0.12
0.14
0.15
0.09
0.09
0.12
0.07
0.06
0.07
0.09
0.14
0.12
0.12
0.14
0.14
0.09
0.07
0.07
0.09
0.09
0.07
0.07
0.07
0.04
0.07
0.09
0.07
0.07
0.07
0.07
0.07
0.07
0.09
0.14
0.09
0.07
0.06
0.07
0.09
0.09
0.14
0.14
0.07
0.07
0.07
0.07
0.07
0.12
0.14
0.09
0.14
0.12
0.07
0.07
0.09
0.12
0.09
0.12
0.12
0.09
0.12
0.12
0.12
0.18
0.26
0.30
0.33
0.24
0.09
0.09
0.04
0.12
0.14
0.07
0.07
0.04
0.04
0.04
0.07
0.06
0.07
0.38
0.48
0.49
0.64
0.75
0.62
0.57
0.80
0.88
0.91
0.92
0.91
0.99
0.91
0.87
0.41
0.29
0.37
0.25
0.29
0.26
0.21
0.21
0.21
0.21
0.21
0.22
0.25
0.22
0.21
0.22
0.26
0.29
0.26
0.25
0.22
0.25
0.35
0.26
0.29
0.29
0.29
0.26
0.26
0.22
0.21
0.21
0.21
0.29
0.29
0.26
0.37
0.55
0.55
0.47
0.41
0.43
0.41
0.41
0.32
0.32
0.32
0.26
0.26
0.36
0.40
0.39
0.35
0.12
0.04
0.07
0.07
0.09
0.24
0.41
0.30
0.33
0.30
0.36
0.38
0.36
0.38
0.30
0.33
0.30
0.42
0.30
0.26
0.30
0.21
0.15
0.21
0.15
0.07
0.07
0.07
0.07
0.12
0.12
0.07
0.07
0.07
0.07
0.07
0.07
0.06
0.06
0.00
0.00
0.00
0.00
0.00
0.06
0.04
0.00
0.00
0.00
0.07
0.07
0.07
0.00
0.00
0.00
0.04
0.06
0.07
0.06
0.04
0.00
0.00
0.04
0.06
0.00
0.00
0.04
0.07
0.07
0.06
0.06
0.04
0.06
0.07
0.06
0.00
0.00
0.00
0.06
0.07
0.07
0.07
0.12
0.18
0.18
0.09
0.00
0.00
0.00
0.06
0.06
0.04
0.00
0.00
0.00
0.10
0.00
0.00
0.09
0.41
0.43
0.46
0.57
0.68
0.59
0.62
0.84
0.86
0.91
0.91
0.92
1.00
0.93
0.81
0.09
0.36
0.39
0.38
0.29
0.22
0.22
0.26
0.26
0.22
0.21
0.25
0.26
0.22
0.21
0.21
0.21
0.22
0.26
0.29
0.29
0.26
0.25
0.26
0.25
0.25
0.25
0.25
0.22
0.21
0.22
0.26
0.25
0.26
0.29
0.30
0.32
0.41
0.55
0.59
0.62
0.59
0.59
0.59
0.55
0.51
0.41
0.30
0.22
0.36
0.39
0.35
0.25
0.12
0.04
0.07
0.15
0.12
0.09
0.15
0.21
0.21
0.26
0.24
0.24
0.26
0.24
0.15
0.14
0.07
0.14
0.24
0.12
0.09
0.06
0.06
0.07
0.06
0.07
0.07
0.07
0.07
0.09
0.06
0.07
0.07
0.06
0.06
0.04
0.04
0.06
0.04
0.00
0.00
0.00
0.00
0.04
0.06
0.04
0.00
0.00
0.00
0.00
0.06
0.06
0.06
0.04
0.00
0.00
0.00
0.00
0.00
0.06
0.06
0.00
0.10
0.12
0.10
0.00
0.00
0.00
0.06
0.00
0.00
0.00
0.00
0.00
0.00
0.04
0.06
0.04
0.00
0.00
0.06
0.09
0.15
0.15
0.12
0.07
0.00
0.12
0.12
0.00
0.00
0.00
0.00
0.00
0.10
0.10
0.29
0.10
0.15
0.46
0.30
0.47
0.59
0.59
0.52
0.74
0.87
0.91
0.92
0.92
0.95
0.92
0.87
0.33
0.35
0.36
0.29
0.22
0.22
0.22
0.21
0.23
0.22
0.22
0.21
0.22
0.31
0.31
0.21
0.23
0.22
0.22
0.22
0.22
0.21
0.22
0.29
0.29
0.22
0.25
0.25
0.22
0.30
0.21
0.26
0.30
0.29
0.51
0.47
0.43
0.59
0.59
0.62
0.72
0.66
0.72
0.80
0.72
0.66
0.55
0.41
0.22
0.29
0.31
0.40
0.38
0.36
0.25
0.04
0.04
0.00
0.07
0.14
0.15
0.26
0.26
0.26
0.24
0.18
0.12
0.12
0.14
0.07
0.06
0.07
0.04
0.00
0.00
0.04
0.04
0.04
0.06
0.00
0.00
0.00
0.06
0.00
0.00
0.00
0.00
0.10
0.00
0.10
0.10
0.10
0.00
0.00
0.04
0.04
0.00
0.00
0.12
0.19
0.12
0.10
0.10
0.19
0.25
0.12
0.00
0.00
0.00
0.00
0.00
0.00
0.00
0.00
0.00
0.00
0.00
0.00
0.00
0.06
0.00
0.00
0.00
0.00
0.00
0.00
0.00
0.00
0.04
0.00
0.00
0.00
0.00
0.00
0.00
0.00
0.07
0.06
0.00
0.19
0.25
0.00
0.04
0.00
0.00
0.10
0.00
0.00
0.00
0.12
0.00
0.09
0.30
0.18
0.26
0.48
0.50
0.47
0.52
0.81
0.86
0.91
0.91
0.92
0.96
0.90
0.59
0.12
0.36
0.25
0.23
0.30
0.23
0.22
0.23
0.37
0.37
0.29
0.26
0.30
0.23
0.22
0.22
0.21
0.22
0.22
0.25
0.25
0.22
0.22
0.23
0.23
0.21
0.21
0.21
0.23
0.30
0.21
0.23
0.23
0.21
0.43
0.55
0.47
0.41
0.41
0.55
0.56
0.59
0.62
0.55
0.55
0.51
0.37
0.32
0.23
0.25
0.38
0.36
0.25
0.12
0.00
0.04
0.07
0.12
0.18
0.21
0.24
0.30
0.42
0.46
0.41
0.30
0.24
0.24
0.30
0.36
0.26
0.24
0.18
0.15
0.15
0.15
0.18
0.24
0.15
0.12
0.07
0.07
0.09
0.14
0.15
0.15
0.15
0.18
0.14
0.14
0.12
0.14
0.15
0.15
0.12
0.07
0.09
0.09
0.09
0.07
0.07
0.07
0.07
0.04
0.04
0.04
0.04
0.06
0.04
0.07
0.07
0.09
0.07
0.06
0.00
0.00
0.00
0.00
0.00
0.07
0.00
0.00
0.00
0.00
0.07
0.07
0.07
0.00
0.04
0.04
0.06
0.00
0.06
0.09
0.14
0.14
0.15
0.09
0.07
0.04
0.00
0.00
0.00
0.00
0.00
0.00
0.00
0.00
0.10
0.10
0.14
0.36
0.30
0.36
0.55
0.57
0.56
0.61
0.85
0.88
0.93
0.92
0.97
1.00
0.91
0.56
0.00
0.39
0.35
0.25
0.23
0.23
0.26
0.26
0.21
0.30
0.32
0.29
0.22
0.26
0.25
0.25
0.26
0.25
0.21
0.22
0.29
0.29
0.21
0.22
0.26
0.23
0.29
0.21
0.22
0.21
0.22
0.26
0.21
0.43
0.47
0.47
0.56
0.55
0.55
0.59
0.66
0.66
0.59
0.55
0.55
0.30
0.23
0.21
0.21
0.22
0.29
0.39
0.29
0.10
0.00
0.04
0.07
0.14
0.21
0.30
0.38
0.38
0.30
0.24
0.24
0.24
0.18
0.21
0.18
0.18
0.14
0.09
0.12
0.14
0.12
0.09
0.07
0.00
0.00
0.06
0.07
0.06
0.04
0.06
0.06
0.07
0.00
0.00
0.06
0.00
0.00
0.00
0.00
0.00
0.00
0.00
0.06
0.04
0.00
0.00
0.00
0.00
0.00
0.06
0.06
0.00
0.00
0.00
0.00
0.00
0.00
0.00
0.12
0.10
0.00
0.00
0.10
0.00
0.00
0.00
0.00
0.00
0.00
0.00
0.00
0.12
0.12
0.00
0.10
0.06
0.00
0.04
0.07
0.07
0.09
0.12
0.07
0.00
0.12
0.10
0.10
0.00
0.10
0.19
0.19
0.19
0.10
0.00
0.00
0.06
0.18
0.21
0.38
0.55
0.57
0.55
0.66
0.87
0.90
0.93
0.92
0.92
0.92
0.89
0.41
0.25
0.37
0.25
0.25
0.22
0.21
0.22
0.30
0.29
0.29
0.26
0.23
0.26
0.25
0.22
0.25
0.22
0.21
0.22
0.21
0.26
0.30
0.26
0.22
0.25
0.25
0.21
0.29
0.26
0.23
0.23
0.21
0.26
0.41
0.51
0.56
0.55
0.55
0.59
0.62
0.55
0.55
0.55
0.43
0.43
0.62
0.32
0.32
0.31
0.29
0.26
0.39
0.35
0.29
0.12
0.07
0.12
0.07
0.12
0.32
0.41
0.32
0.26
0.33
0.41
0.36
0.38
0.33
0.21
0.09
0.14
0.15
0.07
0.09
0.14
0.18
0.15
0.15
0.14
0.14
0.12
0.07
0.12
0.09
0.07
0.07
0.07
0.14
0.06
0.06
0.07
0.07
0.00
0.00
0.07
0.07
0.07
0.07
0.07
0.06
0.00
0.00
0.00
0.00
0.00
0.00
0.00
0.04
0.00
0.00
0.00
0.00
0.00
0.00
0.04
0.00
0.12
0.00
0.00
0.06
0.00
0.00
0.00
0.10
0.00
0.07
0.00
0.19
0.12
0.00
0.06
0.04
0.04
0.04
0.00
0.00
0.07
0.14
0.07
0.35
0.25
0.12
0.00
0.00
0.00
0.10
0.10
0.10
0.00
0.00
0.00
0.07
0.21
0.21
0.32
0.50
0.55
0.54
0.60
0.82
0.86
0.93
0.91
0.92
0.92
0.94
0.68
0.12
0.38
0.25
0.22
0.22
0.26
0.23
0.23
0.22
0.21
0.37
0.32
0.29
0.30
0.26
0.22
0.22
0.31
0.25
0.21
0.26
0.23
0.22
0.26
0.29
0.26
0.23
0.22
0.21
0.26
0.23
0.23
0.29
0.37
0.41
0.32
0.47
0.56
0.55
0.66
0.66
0.59
0.51
0.62
0.55
0.32
0.43
0.37
0.23
0.21
0.26
0.38
0.35
0.25
0.19
0.00
0.04
0.07
0.14
0.15
0.21
0.24
0.24
0.18
0.21
0.24
0.18
0.18
0.18
0.12
0.12
0.14
0.14
0.09
0.07
0.07
0.09
0.14
0.14
0.12
0.09
0.09
0.07
0.00
0.00
0.07
0.07
0.06
0.00
0.06
0.07
0.07
0.00
0.00
0.06
0.06
0.06
0.06
0.06
0.06
0.00
0.00
0.04
0.07
0.06
0.07
0.07
0.07
0.04
0.04
0.00
0.00
0.00
0.00
0.00
0.00
0.04
0.06
0.07
0.06
0.06
0.07
0.07
0.12
0.12
0.07
0.00
0.00
0.00
0.06
0.07
0.07
0.07
0.00
0.07
0.12
0.15
0.15
0.15
0.15
0.09
0.00
0.00
0.07
0.07
0.06
0.06
0.00
0.00
0.00
0.00
0.04
0.07
0.12
0.30
0.33
0.42
0.53
0.50
0.48
0.60
0.86
0.90
0.93
0.91
0.92
0.91
0.91
0.52
0.19
0.37
0.26
0.29
0.29
0.22
0.21
0.26
0.26
0.21
0.26
0.22
0.22
0.25
0.25
0.25
0.26
0.29
0.37
0.35
0.29
0.29
0.29
0.26
0.29
0.26
0.26
0.26
0.25
0.21
0.23
0.21
0.21
0.23
0.21
0.23
0.37
0.47
0.55
0.51
0.51
0.55
0.41
0.32
0.37
0.26
0.22
0.25
0.23
0.38
0.36
0.29
0.10
0.00
0.04
0.09
0.12
0.18
0.41
0.46
0.43
0.47
0.48
0.43
0.43
0.46
0.42
0.30
0.24
0.21
0.18
0.15
0.15
0.15
0.14
0.12
0.09
0.12
0.14
0.09
0.07
0.09
0.15
0.14
0.12
0.06
0.04
0.00
0.06
0.07
0.07
0.07
0.06
0.07
0.07
0.04
0.04
0.07
0.07
0.06
0.06
0.04
0.04
0.00
0.06
0.04
0.00
0.06
0.04
0.00
0.00
0.04
0.06
0.07
0.07
0.04
0.00
0.00
0.00
0.00
0.00
0.04
0.00
0.00
0.00
0.06
0.06
0.06
0.07
0.07
0.06
0.10
0.10
0.04
0.04
0.07
0.07
0.14
0.15
0.07
0.00
0.10
0.12
0.00
0.00
0.00
0.00
0.00
0.00
0.06
0.04
0.00
0.07
0.32
0.30
0.41
0.54
0.59
0.54
0.59
0.83
0.86
0.91
0.91
0.91
0.94
0.93
0.78
0.07
0.35
0.37
0.29
0.25
0.21
0.21
0.21
0.21
0.21
0.23
0.23
0.26
0.29
0.26
0.21
0.22
0.22
0.25
0.25
0.22
0.21
0.25
0.25
0.22
0.21
0.23
0.21
0.21
0.22
0.23
0.30
0.37
0.41
0.43
0.43
0.55
0.55
0.55
0.59
0.66
0.66
0.75
0.75
0.62
0.55
0.32
0.37
0.30
0.26
0.31
0.40
0.29
0.25
0.00
0.00
0.06
0.09
0.15
0.24
0.33
0.38
0.36
0.18
0.14
0.15
0.15
0.15
0.18
0.14
0.12
0.12
0.09
0.09
0.07
0.07
0.07
0.07
0.06
0.06
0.07
0.07
0.06
0.00
0.00
0.06
0.04
0.07
0.07
0.06
0.06
0.04
0.00
0.00
0.04
0.06
0.07
0.04
0.00
0.00
0.00
0.00
0.00
0.00
0.00
0.00
0.00
0.04
0.06
0.00
0.12
0.10
0.00
0.06
0.06
0.00
0.12
0.10
0.00
0.00
0.00
0.10
0.10
0.00
0.00
0.00
0.00
0.00
0.00
0.00
0.07
0.12
0.15
0.12
0.00
0.10
0.10
0.12
0.10
0.10
0.10
0.10
0.00
0.10
0.12
0.00
0.10
0.07
0.33
0.30
0.41
0.56
0.64
0.57
0.61
0.84
0.87
0.93
0.91
0.92
0.92
0.91
0.70
0.04
0.39
0.35
0.25
0.21
0.23
0.22
0.22
0.21
0.29
0.30
0.26
0.22
0.29
0.26
0.23
0.21
0.21
0.21
0.21
0.21
0.23
0.22
0.25
0.26
0.21
0.21
0.23
0.26
0.23
0.21
0.23
0.30
0.32
0.26
0.32
0.43
0.55
0.62
0.72
0.75
0.80
0.72
0.55
0.37
0.32
0.37
0.29
0.21
0.26
0.38
0.38
0.29
0.12
0.04
0.07
0.07
0.07
0.14
0.26
0.42
0.41
0.42
0.36
0.30
0.18
0.21
0.14
0.18
0.21
0.21
0.18
0.18
0.14
0.14
0.09
0.07
0.07
0.09
0.07
0.07
0.04
0.00
0.04
0.06
0.07
0.07
0.07
0.06
0.00
0.00
0.00
0.04
0.00
0.06
0.04
0.00
0.00
0.00
0.10
0.10
0.04
0.04
0.00
0.00
0.00
0.00
0.04
0.06
0.00
0.00
0.00
0.00
0.00
0.00
0.06
0.00
0.00
0.00
0.00
0.00
0.00
0.00
0.00
0.00
0.00
0.04
0.06
0.04
0.04
0.00
0.00
0.00
0.04
0.06
0.09
0.15
0.14
0.07
0.06
0.10
0.12
0.10
0.00
0.00
0.10
0.00
0.00
0.10
0.12
0.25
0.10
0.24
0.26
0.33
0.55
0.64
0.59
0.57
0.81
0.87
0.91
0.92
0.93
0.96
0.93
0.85
0.15
0.38
0.22
0.21
0.22
0.21
0.23
0.21
0.23
0.30
0.23
0.26
0.30
0.29
0.29
0.30
0.23
0.22
0.26
0.26
0.30
0.26
0.29
0.30
0.37
0.26
0.26
0.21
0.30
0.37
0.41
0.32
0.41
0.43
0.55
0.62
0.66
0.56
0.72
0.80
0.72
0.56
0.59
0.66
0.59
0.51
0.43
0.47
0.41
0.26
0.26
0.29
0.36
0.36
0.10
0.00
0.00
0.07
0.09
0.12
0.15
0.15
0.24
0.18
0.12
0.12
0.09
0.09
0.14
0.07
0.09
0.07
0.07
0.00
0.07
0.07
0.06
0.07
0.07
0.04
0.00
0.00
0.04
0.04
0.00
0.00
0.07
0.07
0.04
0.00
0.04
0.00
0.00
0.00
0.00
0.00
0.04
0.04
0.06
0.07
0.06
0.10
0.04
0.00
0.07
0.06
0.10
0.00
0.00
0.00
0.07
0.07
0.04
0.04
0.04
0.00
0.07
0.07
0.00
0.00
0.00
0.00
0.04
0.04
0.00
0.00
0.04
0.06
0.07
0.07
0.07
0.07
0.06
0.04
0.06
0.07
0.14
0.15
0.14
0.07
0.00
0.04
0.00
0.04
0.00
0.07
0.06
0.00
0.06
0.04
0.00
0.04
0.30
0.42
0.30
0.46
0.59
0.62
0.52
0.66
0.86
0.90
0.93
0.92
0.96
0.92
0.88
0.53
0.35
0.36
0.25
0.23
0.22
0.26
0.25
0.25
0.21
0.23
0.22
0.25
0.25
0.31
0.22
0.26
0.25
0.29
0.29
0.36
0.22
0.25
0.22
0.25
0.26
0.35
0.26
0.21
0.26
0.25
0.22
0.21
0.23
0.21
0.21
0.30
0.37
0.41
0.32
0.37
0.43
0.37
0.37
0.43
0.32
0.23
0.21
0.22
0.26
0.38
0.35
0.36
0.35
0.10
0.04
0.07
0.15
0.18
0.26
0.32
0.43
0.43
0.43
0.43
0.46
0.46
0.43
0.42
0.30
0.26
0.18
0.15
0.15
0.18
0.24
0.26
0.18
0.26
0.15
0.09
0.07
0.07
0.09
0.07
0.06
0.06
0.07
0.07
0.04
0.06
0.07
0.07
0.07
0.04
0.00
0.04
0.06
0.00
0.07
0.07
0.04
0.04
0.04
0.06
0.04
0.00
0.00
0.00
0.00
0.00
0.00
0.00
0.00
0.04
0.04
0.04
0.00
0.12
0.00
0.00
0.06
0.00
0.19
0.10
0.00
0.00
0.10
0.00
0.04
0.00
0.10
0.00
0.00
0.04
0.14
0.24
0.14
0.06
0.00
0.19
0.12
0.12
0.12
0.00
0.19
0.19
0.12
0.00
0.00
0.00
0.12
0.06
0.26
0.33
0.42
0.53
0.59
0.53
0.74
0.86
0.90
0.93
0.92
0.92
0.92
0.87
0.38
0.35
0.36
0.26
0.25
0.23
0.26
0.26
0.26
0.26
0.29
0.29
0.26
0.26
0.26
0.26
0.21
0.29
0.29
0.23
0.21
0.21
0.21
0.23
0.22
0.22
0.25
0.21
0.25
0.22
0.22
0.26
0.37
0.32
0.32
0.32
0.51
0.55
0.55
0.56
0.56
0.51
0.51
0.55
0.55
0.37
0.30
0.29
0.21
0.25
0.36
0.40
0.38
0.29
0.12
0.10
0.00
0.07
0.15
0.21
0.26
0.30
0.24
0.26
0.32
0.42
0.36
0.18
0.15
0.15
0.21
0.18
0.18
0.21
0.21
0.21
0.15
0.12
0.21
0.21
0.18
0.15
0.14
0.12
0.12
0.06
0.04
0.06
0.07
0.07
0.04
0.00
0.00
0.00
0.04
0.04
0.06
0.04
0.04
0.04
0.00
0.00
0.00
0.04
0.06
0.04
0.00
0.00
0.00
0.04
0.07
0.04
0.00
0.06
0.00
0.10
0.00
0.00
0.00
0.00
0.00
0.00
0.00
0.04
0.00
0.00
0.04
0.04
0.00
0.00
0.00
0.00
0.00
0.00
0.04
0.07
0.09
0.15
0.21
0.12
0.00
0.00
0.10
0.12
0.10
0.19
0.19
0.19
0.25
0.19
0.19
0.12
0.00
0.18
0.41
0.36
0.52
0.59
0.59
0.49
0.74
0.86
0.90
0.92
0.93
0.92
0.92
0.87
0.38
0.19
0.38
0.25
0.21
0.21
0.21
0.21
0.23
0.21
0.21
0.21
0.21
0.21
0.25
0.25
0.22
0.26
0.29
0.29
0.21
0.25
0.29
0.22
0.22
0.22
0.25
0.25
0.22
0.25
0.22
0.22
0.29
0.29
0.29
0.26
0.41
0.51
0.56
0.56
0.47
0.55
0.59
0.55
0.47
0.41
0.32
0.26
0.26
0.37
0.39
0.36
0.25
0.10
0.00
0.00
0.07
0.14
0.15
0.18
0.30
0.41
0.42
0.43
0.41
0.43
0.42
0.32
0.21
0.21
0.21
0.12
0.09
0.14
0.09
0.09
0.07
0.06
0.07
0.14
0.07
0.04
0.07
0.09
0.12
0.07
0.07
0.09
0.06
0.04
0.00
0.00
0.00
0.00
0.04
0.04
0.07
0.07
0.04
0.06
0.07
0.07
0.06
0.00
0.00
0.00
0.00
0.06
0.04
0.10
0.00
0.04
0.04
0.04
0.06
0.00
0.00
0.04
0.00
0.00
0.00
0.00
0.04
0.00
0.12
0.00
0.06
0.06
0.00
0.00
0.00
0.00
0.10
0.10
0.00
0.06
0.12
0.12
0.09
0.07
0.06
0.00
0.00
0.10
0.00
0.00
0.10
0.25
0.12
0.19
0.19
0.25
0.12
0.06
0.26
0.33
0.30
0.50
0.54
0.52
0.52
0.80
0.87
0.92
0.91
0.93
0.98
0.93
0.75
0.06
0.40
0.25
0.23
0.22
0.26
0.21
0.30
0.26
0.23
0.23
0.23
0.23
0.26
0.23
0.22
0.21
0.26
0.23
0.21
0.23
0.26
0.21
0.21
0.21
0.21
0.23
0.22
0.21
0.21
0.21
0.41
0.41
0.43
0.43
0.43
0.56
0.59
0.55
0.66
0.56
0.55
0.55
0.56
0.51
0.55
0.47
0.32
0.29
0.21
0.36
0.36
0.36
0.25
0.00
0.00
0.04
0.07
0.14
0.15
0.15
0.18
0.18
0.18
0.18
0.14
0.09
0.12
0.21
0.18
0.14
0.12
0.07
0.07
0.07
0.09
0.09
0.09
0.12
0.09
0.09
0.12
0.07
0.07
0.07
0.07
0.07
0.07
0.06
0.04
0.00
0.00
0.00
0.04
0.06
0.07
0.06
0.04
0.00
0.00
0.00
0.00
0.04
0.04
0.00
0.00
0.04
0.04
0.00
0.00
0.00
0.00
0.10
0.00
0.00
0.10
0.00
0.06
0.00
0.00
0.04
0.00
0.00
0.12
0.10
0.10
0.00
0.00
0.00
0.00
0.04
0.06
0.00
0.00
0.04
0.04
0.06
0.07
0.07
0.12
0.09
0.04
0.00
0.00
0.00
0.00
0.00
0.00
0.00
0.04
0.07
0.07
0.12
0.00
0.15
0.43
0.46
0.49
0.53
0.52
0.49
0.80
0.88
0.90
0.92
0.92
0.97
0.90
0.86
0.24
0.36
0.35
0.26
0.21
0.26
0.23
0.22
0.22
0.25
0.29
0.26
0.22
0.22
0.25
0.25
0.21
0.21
0.22
0.21
0.22
0.22
0.22
0.25
0.26
0.26
0.26
0.29
0.22
0.25
0.31
0.26
0.32
0.32
0.32
0.41
0.43
0.47
0.32
0.37
0.41
0.41
0.32
0.43
0.47
0.32
0.29
0.23
0.35
0.40
0.39
0.38
0.35
0.25
0.00
0.06
0.09
0.14
0.18
0.26
0.32
0.38
0.36
0.30
0.41
0.38
0.32
0.42
0.36
0.26
0.36
0.26
0.30
0.30
0.33
0.15
0.12
0.14
0.12
0.07
0.07
0.09
0.12
0.07
0.07
0.06
0.06
0.07
0.07
0.07
0.07
0.07
0.04
0.00
0.04
0.06
0.04
0.06
0.06
0.06
0.07
0.07
0.07
0.06
0.06
0.06
0.04
0.00
0.00
0.06
0.06
0.00
0.00
0.07
0.00
0.00
0.00
0.00
0.06
0.06
0.04
0.04
0.07
0.06
0.00
0.06
0.04
0.06
0.07
0.04
0.00
0.00
0.07
0.04
0.06
0.09
0.14
0.15
0.18
0.12
0.04
0.00
0.00
0.00
0.00
0.04
0.00
0.10
0.00
0.04
0.04
0.00
0.06
0.30
0.43
0.49
0.60
0.72
0.57
0.60
0.86
0.89
0.92
0.92
0.95
1.00
0.93
0.72
0.06
0.36
0.35
0.26
0.29
0.25
0.22
0.21
0.26
0.35
0.29
0.25
0.22
0.21
0.21
0.22
0.26
0.29
0.26
0.21
0.22
0.25
0.26
0.26
0.25
0.29
0.29
0.25
0.25
0.25
0.21
0.23
0.23
0.23
0.32
0.43
0.43
0.41
0.41
0.55
0.62
0.66
0.66
0.59
0.55
0.56
0.55
0.41
0.29
0.26
0.40
0.35
0.25
0.10
0.00
0.06
0.09
0.15
0.21
0.15
0.15
0.21
0.26
0.26
0.14
0.09
0.14
0.15
0.09
0.09
0.21
0.15
0.09
0.07
0.07
0.07
0.07
0.07
0.07
0.09
0.07
0.07
0.07
0.09
0.06
0.06
0.09
0.07
0.07
0.04
0.00
0.06
0.07
0.07
0.07
0.07
0.07
0.04
0.00
0.00
0.06
0.04
0.06
0.07
0.06
0.00
0.00
0.00
0.04
0.07
0.04
0.00
0.00
0.00
0.04
0.06
0.04
0.06
0.00
0.00
0.00
0.00
0.00
0.00
0.00
0.00
0.00
0.00
0.00
0.04
0.00
0.00
0.00
0.04
0.00
0.06
0.09
0.14
0.18
0.14
0.07
0.06
0.00
0.00
0.00
0.00
0.00
0.00
0.10
0.10
0.04
0.00
0.00
0.09
0.30
0.38
0.52
0.66
0.68
0.56
0.75
0.86
0.91
0.92
0.92
0.96
1.00
0.88
0.30
0.12
0.39
0.29
0.25
0.22
0.21
0.21
0.26
0.29
0.25
0.21
0.23
0.21
0.25
0.29
0.26
0.25
0.25
0.25
0.25
0.25
0.21
0.22
0.25
0.26
0.25
0.22
0.29
0.29
0.25
0.21
0.23
0.32
0.37
0.29
0.43
0.55
0.55
0.59
0.66
0.66
0.66
0.66
0.66
0.55
0.47
0.43
0.29
0.22
0.26
0.29
0.36
0.35
0.10
0.00
0.07
0.09
0.12
0.18
0.21
0.24
0.26
0.26
0.30
0.21
0.18
0.18
0.18
0.18
0.18
0.18
0.12
0.12
0.15
0.14
0.09
0.09
0.09
0.15
0.14
0.07
0.12
0.14
0.09
0.07
0.07
0.07
0.07
0.06
0.07
0.06
0.07
0.07
0.07
0.07
0.07
0.07
0.07
0.07
0.06
0.06
0.07
0.06
0.00
0.00
0.04
0.07
0.06
0.04
0.04
0.04
0.06
0.00
0.00
0.00
0.00
0.00
0.00
0.00
0.12
0.10
0.00
0.00
0.00
0.00
0.10
0.12
0.00
0.00
0.10
0.19
0.19
0.12
0.12
0.00
0.00
0.04
0.06
0.07
0.07
0.00
0.19
0.19
0.19
0.25
0.25
0.19
0.19
0.19
0.19
0.25
0.19
0.10
0.07
0.24
0.24
0.36
0.53
0.50
0.48
0.62
0.85
0.89
0.93
0.91
0.92
0.94
0.87
0.30
0.38
0.26
0.25
0.22
0.30
0.32
0.32
0.32
0.37
0.32
0.26
0.23
0.29
0.29
0.23
0.21
0.23
0.23
0.22
0.23
0.30
0.26
0.21
0.21
0.21
0.26
0.23
0.21
0.23
0.32
0.32
0.32
0.32
0.43
0.55
0.55
0.55
0.75
0.72
0.72
0.80
0.80
0.80
0.72
0.59
0.59
0.43
0.29
0.23
0.21
0.38
0.36
0.36
0.36
0.19
0.12
0.04
0.09
0.14
0.09
0.14
0.21
0.26
0.21
0.15
0.15
0.15
0.15
0.15
0.14
0.09
0.07
0.09
0.14
0.12
0.07
0.09
0.07
0.07
0.06
0.09
0.07
0.07
0.07
0.07
0.07
0.07
0.00
0.06
0.07
0.07
0.00
0.00
0.07
0.06
0.04
0.04
0.07
0.07
0.09
0.07
0.07
0.04
0.00
0.00
0.00
0.00
0.04
0.06
0.00
0.00
0.00
0.00
0.00
0.00
0.00
0.00
0.00
0.00
0.00
0.00
0.00
0.04
0.00
0.00
0.00
0.00
0.00
0.00
0.07
0.06
0.00
0.12
0.00
0.04
0.00
0.00
0.07
0.07
0.07
0.07
0.04
0.00
0.10
0.10
0.04
0.00
0.12
0.19
0.12
0.00
0.00
0.00
0.00
0.09
0.24
0.26
0.43
0.61
0.64
0.54
0.70
0.86
0.91
0.93
0.92
0.95
0.98
0.87
0.30
0.12
0.39
0.29
0.26
0.30
0.21
0.21
0.23
0.26
0.22
0.21
0.21
0.21
0.25
0.22
0.25
0.26
0.25
0.22
0.25
0.35
0.35
0.25
0.22
0.21
0.26
0.21
0.21
0.21
0.29
0.32
0.37
0.23
0.32
0.43
0.43
0.55
0.66
0.66
0.62
0.47
0.59
0.59
0.62
0.55
0.43
0.23
0.26
0.38
0.31
0.29
0.37
0.29
0.00
0.00
0.00
0.06
0.09
0.18
0.21
0.26
0.33
0.32
0.21
0.18
0.18
0.21
0.24
0.24
0.18
0.14
0.14
0.15
0.09
0.07
0.14
0.12
0.12
0.18
0.18
0.07
0.07
0.09
0.14
0.07
0.07
0.07
0.09
0.07
0.07
0.06
0.12
0.07
0.07
0.07
0.04
0.00
0.00
0.00
0.00
0.00
0.00
0.00
0.00
0.00
0.04
0.04
0.00
0.00
0.00
0.06
0.07
0.00
0.10
0.12
0.00
0.00
0.00
0.00
0.00
0.00
0.00
0.00
0.00
0.00
0.00
0.00
0.06
0.10
0.00
0.04
0.04
0.09
0.12
0.00
0.00
0.00
0.12
0.19
0.12
0.12
0.10
0.00
0.00
0.00
0.00
0.00
0.07
0.21
0.36
0.46
0.52
0.55
0.52
0.54
0.81
0.87
0.91
0.91
0.92
0.92
0.91
0.85
0.12
0.38
0.22
0.23
0.32
0.30
0.25
0.22
0.21
0.21
0.21
0.21
0.22
0.26
0.29
0.32
0.32
0.23
0.23
0.21
0.22
0.22
0.22
0.21
0.21
0.26
0.23
0.23
0.29
0.26
0.23
0.26
0.32
0.32
0.37
0.47
0.55
0.56
0.62
0.56
0.51
0.41
0.43
0.55
0.55
0.41
0.32
0.30
0.22
0.25
0.37
0.39
0.38
0.35
0.00
0.07
0.07
0.15
0.26
0.24
0.36
0.30
0.30
0.33
0.36
0.30
0.26
0.32
0.30
0.18
0.14
0.14
0.15
0.21
0.18
0.15
0.15
0.15
0.15
0.14
0.07
0.07
0.09
0.12
0.14
0.07
0.09
0.07
0.07
0.09
0.07
0.07
0.12
0.07
0.00
0.00
0.00
0.00
0.00
0.06
0.00
0.00
0.00
0.00
0.00
0.06
0.00
0.00
0.00
0.00
0.00
0.00
0.00
0.00
0.04
0.00
0.00
0.00
0.00
0.00
0.00
0.00
0.00
0.00
0.00
0.00
0.00
0.00
0.00
0.00
0.00
0.04
0.00
0.00
0.00
0.07
0.07
0.07
0.06
0.00
0.19
0.25
0.19
0.00
0.00
0.00
0.10
0.25
0.19
0.00
0.00
0.06
0.18
0.30
0.32
0.47
0.55
0.53
0.56
0.80
0.88
0.90
0.92
0.92
0.92
0.92
0.80
0.04
0.35
0.22
0.23
0.23
0.32
0.30
0.29
0.32
0.43
0.30
0.29
0.30
0.32
0.32
0.26
0.37
0.32
0.29
0.23
0.30
0.32
0.29
0.23
0.26
0.37
0.37
0.32
0.32
0.37
0.30
0.30
0.37
0.37
0.30
0.32
0.51
0.59
0.59
0.56
0.55
0.55
0.80
0.72
0.66
0.62
0.55
0.37
0.23
0.29
0.31
0.39
0.39
0.36
0.00
0.00
0.00
0.09
0.14
0.12
0.12
0.21
0.24
0.24
0.24
0.24
0.21
0.15
0.15
0.12
0.07
0.09
0.14
0.12
0.07
0.07
0.07
0.07
0.07
0.12
0.07
0.06
0.04
0.04
0.07
0.07
0.06
0.04
0.04
0.06
0.06
0.00
0.00
0.00
0.00
0.00
0.07
0.00
0.10
0.00
0.00
0.04
0.04
0.00
0.00
0.10
0.04
0.00
0.00
0.00
0.00
0.00
0.00
0.10
0.00
0.00
0.00
0.00
0.00
0.10
0.19
0.19
0.19
0.12
0.00
0.00
0.19
0.12
0.00
0.10
0.00
0.00
0.00
0.00
0.07
0.06
0.06
0.07
0.07
0.06
0.12
0.25
0.19
0.12
0.00
0.00
0.04
0.19
0.25
0.00
0.12
0.10
0.21
0.33
0.38
0.48
0.55
0.53
0.54
0.75
0.87
0.91
0.93
0.91
0.92
0.91
0.87
0.30
0.36
0.26
0.23
0.21
0.22
0.21
0.32
0.37
0.32
0.30
0.26
0.26
0.29
0.26
0.25
0.25
0.23
0.26
0.26
0.26
0.26
0.23
0.25
0.22
0.25
0.36
0.35
0.26
0.26
0.26
0.26
0.25
0.29
0.32
0.32
0.41
0.51
0.51
0.41
0.43
0.62
0.62
0.55
0.43
0.55
0.56
0.41
0.26
0.25
0.26
0.36
0.38
0.12
0.12
0.10
0.04
0.07
0.09
0.15
0.15
0.14
0.32
0.30
0.24
0.30
0.24
0.30
0.24
0.21
0.14
0.14
0.12
0.15
0.15
0.15
0.14
0.12
0.14
0.14
0.09
0.12
0.18
0.14
0.09
0.09
0.12
0.09
0.07
0.07
0.07
0.12
0.12
0.14
0.09
0.12
0.09
0.07
0.12
0.09
0.07
0.06
0.12
0.14
0.15
0.14
0.14
0.12
0.07
0.14
0.12
0.09
0.12
0.07
0.07
0.12
0.12
0.12
0.12
0.12
0.15
0.21
0.15
0.07
0.07
0.12
0.12
0.09
0.09
0.09
0.14
0.09
0.14
0.21
0.14
0.14
0.14
0.18
0.32
0.38
0.04
0.07
0.07
0.07
0.07
0.09
0.14
0.07
0.00
0.00
0.07
0.09
0.06
0.30
0.48
0.36
0.48
0.57
0.56
0.55
0.78
0.87
0.91
0.92
0.93
0.98
0.93
0.89
0.54
0.12
0.38
0.35
0.22
0.25
0.25
0.26
0.31
0.26
0.23
0.26
0.26
0.22
0.29
0.29
0.21
0.22
0.22
0.26
0.25
0.26
0.22
0.38
0.29
0.25
0.26
0.21
0.30
0.26
0.25
0.22
0.23
0.23
0.29
0.37
0.41
0.41
0.51
0.59
0.80
0.72
0.55
0.59
0.55
0.37
0.26
0.23
0.21
0.25
0.35
0.38
0.38
0.36
0.00
0.06
0.12
0.12
0.18
0.18
0.24
0.18
0.30
0.43
0.43
0.41
0.30
0.15
0.15
0.18
0.26
0.33
0.26
0.21
0.21
0.18
0.18
0.09
0.07
0.09
0.09
0.09
0.09
0.09
0.07
0.06
0.06
0.06
0.00
0.00
0.06
0.06
0.07
0.14
0.14
0.04
0.00
0.10
0.00
0.00
0.00
0.00
0.00
0.06
0.06
0.06
0.12
0.12
0.04
0.06
0.00
0.00
0.10
0.07
0.00
0.19
0.29
0.10
0.00
0.04
0.06
0.04
0.25
0.19
0.00
0.00
0.10
0.10
0.04
0.06
0.10
0.19
0.12
0.00
0.12
0.00
0.07
0.12
0.09
0.00
0.10
0.10
0.29
0.36
0.29
0.25
0.19
0.12
0.29
0.29
0.00
0.12
0.00
0.18
0.36
0.46
0.48
0.53
0.53
0.64
0.85
0.87
0.94
0.91
0.95
0.92
0.90
0.53
0.25
0.38
0.21
0.37
0.41
0.29
0.23
0.32
0.29
0.21
0.25
0.23
0.30
0.26
0.37
0.32
0.30
0.23
0.21
0.22
0.22
0.31
0.22
0.23
0.21
0.26
0.29
0.37
0.32
0.29
0.21
0.26
0.43
0.47
0.37
0.32
0.29
0.47
0.66
0.72
0.66
0.56
0.56
0.62
0.55
0.41
0.32
0.29
0.22
0.31
0.39
0.38
0.35
0.35
0.12
0.00
0.04
0.14
0.15
0.21
0.36
0.33
0.24
0.24
0.21
0.21
0.15
0.15
0.14
0.24
0.18
0.18
0.15
0.14
0.07
0.04
0.00
0.00
0.07
0.14
0.12
0.14
0.09
0.06
0.06
0.07
0.07
0.04
0.00
0.00
0.04
0.07
0.09
0.12
0.06
0.00
0.10
0.04
0.15
0.09
0.00
0.00
0.07
0.07
0.04
0.04
0.04
0.07
0.07
0.00
0.00
0.07
0.07
0.12
0.09
0.04
0.04
0.07
0.07
0.10
0.00
0.04
0.04
0.00
0.04
0.07
0.09
0.07
0.00
0.00
0.00
0.07
0.07
0.07
0.12
0.18
0.12
0.07
0.07
0.06
0.00
0.00
0.07
0.00
0.00
0.25
0.12
0.04
0.04
0.04
0.12
0.15
0.30
0.43
0.50
0.52
0.49
0.57
0.80
0.86
0.91
0.92
0.92
0.99
0.93
0.80
0.06
0.40
0.26
0.26
0.32
0.32
0.32
0.32
0.43
0.51
0.41
0.32
0.32
0.32
0.29
0.21
0.21
0.32
0.47
0.51
0.29
0.30
0.25
0.26
0.26
0.21
0.26
0.56
0.47
0.47
0.41
0.32
0.37
0.29
0.26
0.36
0.26
0.56
0.59
0.66
0.80
0.66
0.59
0.55
0.55
0.43
0.30
0.21
0.26
0.22
0.21
0.26
0.40
0.36
0.19
0.00
0.06
0.09
0.09
0.14
0.07
0.07
0.15
0.30
0.38
0.15
0.07
0.07
0.12
0.07
0.06
0.15
0.14
0.12
0.06
0.06
0.06
0.07
0.07
0.07
0.30
0.12
0.10
0.00
0.04
0.09
0.07
0.00
0.00
0.07
0.18
0.18
0.07
0.10
0.12
0.04
0.04
0.07
0.07
0.07
0.06
0.00
0.00
0.07
0.00
0.04
0.10
0.10
0.00
0.04
0.14
0.14
0.07
0.07
0.04
0.10
0.00
0.10
0.04
0.00
0.00
0.04
0.09
0.09
0.07
0.07
0.00
0.25
0.19
0.00
0.07
0.04
0.06
0.07
0.04
0.07
0.18
0.21
0.09
0.00
0.12
0.10
0.07
0.00
0.04
0.07
0.07
0.00
0.00
0.12
0.10
0.07
0.46
0.46
0.47
0.52
0.56
0.49
0.59
0.85
0.86
0.91
0.92
0.92
0.97
0.92
0.74
0.07
0.38
0.37
0.29
0.21
0.30
0.37
0.30
0.21
0.21
0.22
0.29
0.37
0.26
0.32
0.37
0.23
0.31
0.21
0.21
0.26
0.23
0.21
0.22
0.31
0.26
0.26
0.36
0.35
0.37
0.32
0.21
0.35
0.26
0.26
0.37
0.29
0.25
0.30
0.32
0.32
0.51
0.59
0.51
0.41
0.32
0.37
0.29
0.26
0.37
0.38
0.35
0.12
0.00
0.00
0.04
0.06
0.09
0.21
0.30
0.36
0.41
0.46
0.36
0.15
0.21
0.38
0.30
0.30
0.18
0.09
0.09
0.04
0.12
0.30
0.21
0.07
0.04
0.04
0.12
0.21
0.15
0.09
0.07
0.00
0.04
0.07
0.14
0.15
0.14
0.07
0.07
0.12
0.14
0.07
0.00
0.00
0.07
0.14
0.14
0.07
0.09
0.15
0.14
0.06
0.06
0.12
0.15
0.10
0.19
0.00
0.09
0.14
0.14
0.14
0.09
0.00
0.04
0.00
0.07
0.12
0.18
0.12
0.06
0.09
0.00
0.10
0.00
0.00
0.00
0.06
0.21
0.26
0.14
0.21
0.18
0.06
0.00
0.00
0.10
0.19
0.06
0.09
0.04
0.29
0.19
0.12
0.00
0.06
0.04
0.06
0.24
0.33
0.32
0.57
0.59
0.55
0.49
0.75
0.87
0.91
0.92
0.91
1.00
0.90
0.87
0.32
0.25
0.38
0.29
0.22
0.22
0.21
0.22
0.29
0.35
0.31
0.22
0.30
0.37
0.21
0.25
0.21
0.26
0.26
0.37
0.37
0.38
0.26
0.21
0.23
0.30
0.25
0.36
0.29
0.41
0.30
0.21
0.22
0.39
0.51
0.62
0.66
0.47
0.47
0.32
0.32
0.66
0.72
0.55
0.55
0.51
0.23
0.22
0.25
0.29
0.39
0.25
0.12
0.25
0.10
0.06
0.07
0.09
0.09
0.12
0.24
0.30
0.32
0.43
0.36
0.41
0.41
0.30
0.18
0.07
0.07
0.24
0.36
0.09
0.09
0.09
0.12
0.14
0.15
0.00
0.07
0.15
0.07
0.04
0.00
0.00
0.10
0.12
0.00
0.06
0.14
0.14
0.06
0.00
0.10
0.19
0.00
0.00
0.00
0.00
0.00
0.07
0.09
0.07
0.14
0.07
0.25
0.12
0.00
0.10
0.12
0.12
0.00
0.00
0.00
0.07
0.00
0.04
0.07
0.06
0.00
0.00
0.12
0.19
0.00
0.00
0.06
0.07
0.00
0.00
0.06
0.07
0.12
0.09
0.09
0.07
0.00
0.00
0.00
0.00
0.07
0.09
0.00
0.12
0.10
0.10
0.25
0.12
0.00
0.07
0.15
0.26
0.32
0.50
0.57
0.54
0.56
0.81
0.87
0.90
0.92
0.91
1.00
0.94
0.86
0.15
0.35
0.35
0.29
0.40
0.22
0.23
0.22
0.38
0.35
0.38
0.26
0.26
0.22
0.39
0.35
0.36
0.29
0.26
0.29
0.26
0.26
0.22
0.31
0.39
0.35
0.36
0.39
0.36
0.38
0.36
0.26
0.26
0.26
0.32
0.32
0.30
0.21
0.23
0.41
0.43
0.32
0.41
0.41
0.21
0.43
0.55
0.30
0.23
0.23
0.38
0.36
0.19
0.10
0.09
0.14
0.15
0.21
0.30
0.30
0.14
0.18
0.32
0.18
0.07
0.26
0.38
0.43
0.32
0.06
0.00
0.07
0.18
0.21
0.07
0.07
0.15
0.12
0.00
0.06
0.14
0.07
0.00
0.18
0.14
0.14
0.21
0.21
0.00
0.12
0.29
0.10
0.06
0.15
0.09
0.07
0.12
0.09
0.14
0.07
0.12
0.12
0.07
0.14
0.09
0.04
0.00
0.00
0.07
0.14
0.04
0.04
0.07
0.04
0.25
0.19
0.00
0.12
0.18
0.07
0.09
0.07
0.25
0.36
0.00
0.00
0.04
0.09
0.36
0.07
0.35
0.00
0.09
0.09
0.09
0.07
0.09
0.06
0.04
0.10
0.00
0.06
0.04
0.12
0.35
0.29
0.10
0.00
0.10
0.06
0.15
0.24
0.33
0.42
0.48
0.48
0.41
0.60
0.86
0.87
0.92
0.91
1.00
1.00
0.93
0.78
0.07
0.25
0.40
0.40
0.29
0.41
0.21
0.41
0.43
0.21
0.25
0.26
0.29
0.38
0.39
0.38
0.29
0.26
0.37
0.29
0.21
0.23
0.30
0.22
0.38
0.40
0.35
0.38
0.23
0.41
0.30
0.29
0.39
0.21
0.59
0.72
0.62
0.51
0.30
0.23
0.23
0.23
0.75
0.83
0.80
0.62
0.41
0.25
0.29
0.37
0.36
0.19
0.29
0.36
0.35
0.06
0.33
0.32
0.15
0.06
0.07
0.15
0.26
0.21
0.14
0.15
0.30
0.30
0.09
0.06
0.14
0.24
0.26
0.32
0.09
0.00
0.00
0.00
0.07
0.00
0.06
0.07
0.14
0.15
0.18
0.30
0.00
0.12
0.00
0.07
0.09
0.14
0.04
0.00
0.00
0.10
0.07
0.07
0.00
0.00
0.06
0.06
0.09
0.09
0.18
0.14
0.19
0.29
0.10
0.00
0.04
0.00
0.00
0.04
0.07
0.07
0.12
0.04
0.18
0.14
0.09
0.10
0.07
0.10
0.36
0.19
0.07
0.06
0.00
0.12
0.00
0.36
0.10
0.04
0.09
0.18
0.15
0.00
0.25
0.12
0.00
0.06
0.09
0.12
0.06
0.07
0.07
0.10
0.35
0.36
0.04
0.18
0.33
0.50
0.53
0.46
0.50
0.59
0.82
0.89
0.93
0.91
0.94
1.00
0.93
0.60
0.25
0.25
0.35
0.40
0.25
0.23
0.22
0.26
0.23
0.43
0.32
0.25
0.23
0.35
0.39
0.40
0.22
0.23
0.35
0.35
0.29
0.23
0.32
0.51
0.30
0.29
0.26
0.23
0.23
0.40
0.36
0.29
0.66
0.56
0.43
0.41
0.41
0.51
0.56
0.59
0.43
0.55
0.72
0.66
0.72
0.37
0.82
0.84
0.47
0.26
0.22
0.39
0.39
0.19
0.36
0.39
0.35
0.10
0.00
0.04
0.07
0.04
0.09
0.15
0.15
0.18
0.15
0.21
0.33
0.15
0.36
0.38
0.35
0.25
0.00
0.07
0.07
0.00
0.00
0.04
0.00
0.29
0.38
0.36
0.10
0.00
0.07
0.38
0.19
0.36
0.35
0.38
0.29
0.00
0.10
0.04
0.00
0.25
0.00
0.25
0.38
0.36
0.38
0.38
0.19
0.00
0.29
0.25
0.19
0.25
0.25
0.00
0.04
0.10
0.25
0.36
0.40
0.39
0.00
0.09
0.04
0.29
0.04
0.04
0.38
0.37
0.35
0.10
0.36
0.29
0.19
0.07
0.18
0.32
0.00
0.00
0.07
0.12
0.36
0.06
0.07
0.29
0.36
0.19
0.00
0.29
0.38
0.19
0.04
0.14
0.36
0.43
0.30
0.18
0.38
0.49
0.52
0.74
0.87
0.91
0.92
0.96
0.98
0.91
0.86
0.07
0.39
0.29
0.21
0.21
0.23
0.51
0.29
0.41
0.21
0.23
0.72
0.59
0.23
0.23
0.30
0.23
0.30
0.41
0.29
0.29
0.30
0.23
0.23
0.21
0.51
0.62
0.47
0.29
0.22
0.40
0.37
0.26
0.23
0.56
0.72
0.56
0.55
0.47
0.41
0.32
0.41
0.83
0.84
0.84
0.41
0.23
0.36
0.26
0.37
0.38
0.12
0.38
0.38
0.29
0.35
0.00
0.06
0.00
0.07
0.33
0.46
0.38
0.15
0.00
0.12
0.06
0.09
0.07
0.07
0.15
0.33
0.36
0.36
0.24
0.35
0.31
0.36
0.06
0.12
0.06
0.07
0.12
0.09
0.07
0.00
0.12
0.10
0.00
0.07
0.06
0.25
0.29
0.10
0.10
0.25
0.19
0.06
0.19
0.07
0.07
0.19
0.25
0.10
0.07
0.06
0.19
0.38
0.35
0.12
0.00
0.19
0.35
0.36
0.36
0.25
0.00
0.12
0.12
0.07
0.09
0.04
0.04
0.25
0.39
0.25
0.00
0.10
0.19
0.35
0.29
0.06
0.18
0.42
0.15
0.25
0.36
0.06
0.35
0.40
0.40
0.25
0.36
0.38
0.12
0.04
0.12
0.31
0.36
0.19
0.12
0.48
0.53
0.48
0.36
0.60
0.86
0.86
0.92
0.91
0.92
0.91
0.91
0.59
0.29
0.25
0.32
0.51
0.30
0.29
0.37
0.23
0.47
0.59
0.72
0.55
0.30
0.39
0.37
0.25
0.38
0.35
0.26
0.41
0.55
0.26
0.21
0.38
0.38
0.38
0.25
0.26
0.22
0.25
0.22
0.38
0.23
0.62
0.83
0.72
0.41
0.22
0.25
0.21
0.41
0.75
0.83
0.84
0.84
0.56
0.41
0.41
0.21
0.29
0.36
0.00
0.29
0.29
0.39
0.35
0.38
0.00
0.30
0.30
0.26
0.15
0.41
0.46
0.21
0.04
0.12
0.15
0.07
0.07
0.30
0.24
0.00
0.19
0.07
0.00
0.04
0.06
0.00
0.07
0.09
0.12
0.07
0.25
0.36
0.10
0.12
0.09
0.04
0.10
0.04
0.09
0.12
0.35
0.12
0.35
0.38
0.19
0.09
0.07
0.12
0.07
0.07
0.07
0.00
0.40
0.31
0.25
0.07
0.06
0.10
0.00
0.00
0.10
0.25
0.00
0.10
0.38
0.38
0.04
0.12
0.29
0.39
0.35
0.35
0.06
0.33
0.33
0.04
0.19
0.04
0.12
0.07
0.29
0.29
0.35
0.00
0.25
0.39
0.39
0.36
0.35
0.07
0.26
0.18
0.14
0.24
0.53
0.50
0.50
0.80
0.85
0.87
0.93
0.91
0.92
1.00
0.91
0.68
0.07
0.36
0.37
0.25
0.23
0.23
0.26
0.26
0.29
0.30
0.37
0.26
0.21
0.26
0.29
0.21
0.31
0.38
0.29
0.37
0.47
0.41
0.36
0.38
0.29
0.41
0.22
0.29
0.25
0.37
0.39
0.26
0.43
0.62
0.43
0.26
0.22
0.29
0.29
0.32
0.37
0.47
0.59
0.72
0.55
0.43
0.37
0.22
0.22
0.25
0.38
0.38
0.29
0.00
0.14
0.21
0.06
0.00
0.07
0.12
0.14
0.24
0.30
0.26
0.26
0.30
0.30
0.24
0.12
0.12
0.42
0.12
0.06
0.29
0.25
0.12
0.41
0.36
0.21
0.09
0.00
0.06
0.15
0.38
0.14
0.25
0.25
0.06
0.18
0.12
0.12
0.18
0.14
0.12
0.07
0.06
0.06
0.06
0.00
0.07
0.12
0.14
0.26
0.18
0.07
0.09
0.07
0.18
0.21
0.00
0.10
0.19
0.12
0.07
0.21
0.21
0.21
0.09
0.12
0.30
0.30
0.07
0.04
0.04
0.09
0.07
0.07
0.07
0.12
0.15
0.18
0.18
0.07
0.09
0.21
0.38
0.36
0.14
0.04
0.06
0.09
0.09
0.14
0.14
0.15
0.12
0.00
0.10
0.00
0.07
0.21
0.49
0.54
0.48
0.53
0.53
0.52
0.59
0.85
0.89
0.92
0.91
0.92
0.97
0.92
0.72
0.09
0.25
0.40
0.31
0.22
0.23
0.22
0.25
0.22
0.23
0.22
0.29
0.40
0.35
0.40
0.26
0.31
0.31
0.23
0.31
0.38
0.38
0.35
0.40
0.35
0.29
0.25
0.38
0.39
0.23
0.26
0.22
0.38
0.35
0.35
0.30
0.37
0.32
0.51
0.41
0.32
0.43
0.47
0.41
0.29
0.37
0.31
0.26
0.26
0.31
0.39
0.36
0.25
0.00
0.07
0.06
0.00
0.04
0.12
0.38
0.48
0.46
0.38
0.33
0.33
0.41
0.26
0.14
0.21
0.26
0.18
0.18
0.15
0.15
0.15
0.21
0.30
0.38
0.24
0.21
0.18
0.14
0.07
0.06
0.09
0.21
0.30
0.48
0.33
0.14
0.07
0.07
0.14
0.33
0.32
0.15
0.14
0.12
0.09
0.07
0.07
0.07
0.07
0.15
0.30
0.26
0.15
0.15
0.18
0.15
0.14
0.26
0.30
0.04
0.06
0.07
0.30
0.38
0.12
0.07
0.07
0.18
0.21
0.07
0.07
0.21
0.41
0.32
0.12
0.09
0.00
0.18
0.42
0.47
0.36
0.21
0.07
0.04
0.06
0.07
0.09
0.12
0.18
0.15
0.06
0.00
0.04
0.00
0.00
0.07
0.36
0.53
0.56
0.55
0.52
0.52
0.68
0.85
0.87
0.91
0.92
0.92
1.00
0.91
0.81
0.07
0.37
0.29
0.26
0.36
0.31
0.35
0.40
0.40
0.37
0.38
0.29
0.29
0.36
0.35
0.29
0.35
0.37
0.36
0.38
0.39
0.38
0.35
0.25
0.26
0.38
0.35
0.36
0.35
0.37
0.21
0.29
0.22
0.22
0.21
0.25
0.40
0.36
0.41
0.37
0.21
0.25
0.30
0.32
0.32
0.41
0.43
0.23
0.29
0.38
0.35
0.12
0.10
0.00
0.04
0.14
0.32
0.26
0.12
0.12
0.15
0.30
0.30
0.32
0.38
0.32
0.30
0.41
0.38
0.21
0.14
0.18
0.21
0.30
0.24
0.21
0.21
0.33
0.15
0.12
0.15
0.15
0.15
0.14
0.14
0.14
0.15
0.18
0.21
0.18
0.18
0.09
0.07
0.09
0.07
0.07
0.14
0.12
0.14
0.21
0.18
0.12
0.14
0.15
0.18
0.21
0.14
0.12
0.15
0.18
0.14
0.14
0.12
0.07
0.07
0.09
0.14
0.21
0.30
0.18
0.15
0.15
0.18
0.15
0.00
0.00
0.07
0.18
0.15
0.18
0.18
0.24
0.33
0.12
0.00
0.00
0.04
0.06
0.07
0.07
0.07
0.07
0.04
0.00
0.10
0.07
0.18
0.36
0.47
0.46
0.49
0.55
0.54
0.56
0.81
0.87
0.91
0.92
0.97
0.94
0.92
0.87
0.50
0.10
0.37
0.36
0.37
0.29
0.29
0.26
0.31
0.31
0.30
0.26
0.35
0.35
0.26
0.26
0.23
0.26
0.29
0.36
0.29
0.22
0.29
0.21
0.23
0.41
0.37
0.26
0.22
0.25
0.21
0.23
0.25
0.26
0.30
0.30
0.43
0.43
0.55
0.56
0.55
0.62
0.59
0.55
0.62
0.51
0.41
0.21
0.23
0.29
0.38
0.35
0.40
0.38
0.38
0.25
0.00
0.07
0.15
0.14
0.07
0.07
0.15
0.18
0.21
0.18
0.12
0.07
0.07
0.12
0.15
0.14
0.07
0.00
0.04
0.06
0.06
0.07
0.07
0.07
0.04
0.04
0.07
0.14
0.21
0.12
0.14
0.07
0.00
0.10
0.00
0.07
0.07
0.09
0.14
0.04
0.09
0.07
0.00
0.00
0.06
0.12
0.12
0.09
0.09
0.07
0.09
0.15
0.18
0.18
0.09
0.04
0.07
0.09
0.07
0.04
0.04
0.07
0.07
0.07
0.09
0.09
0.12
0.12
0.12
0.09
0.07
0.07
0.07
0.07
0.07
0.09
0.14
0.15
0.33
0.42
0.36
0.24
0.15
0.15
0.15
0.06
0.04
0.09
0.12
0.07
0.07
0.07
0.06
0.06
0.07
0.26
0.41
0.43
0.52
0.59
0.60
0.59
0.72
0.85
0.87
0.93
0.91
1.00
1.00
0.92
0.83
0.24
0.25
0.40
0.31
0.35
0.36
0.37
0.37
0.36
0.39
0.35
0.39
0.38
0.35
0.38
0.39
0.35
0.38
0.35
0.39
0.39
0.39
0.36
0.35
0.38
0.35
0.38
0.39
0.36
0.35
0.36
0.39
0.39
0.38
0.31
0.26
0.26
0.22
0.21
0.23
0.23
0.26
0.23
0.21
0.21
0.21
0.22
0.29
0.35
0.35
0.36
0.25
0.00
0.07
0.07
0.07
0.12
0.21
0.24
0.32
0.38
0.42
0.43
0.43
0.41
0.30
0.30
0.38
0.38
0.30
0.26
0.24
0.24
0.24
0.24
0.24
0.24
0.24
0.26
0.30
0.18
0.12
0.14
0.15
0.14
0.12
0.12
0.15
0.15
0.24
0.24
0.15
0.12
0.14
0.14
0.14
0.14
0.14
0.14
0.14
0.07
0.07
0.07
0.14
0.15
0.09
0.09
0.07
0.07
0.07
0.04
0.06
0.07
0.07
0.07
0.07
0.07
0.09
0.07
0.07
0.06
0.06
0.07
0.07
0.04
0.06
0.07
0.07
0.09
0.09
0.12
0.09
0.07
0.07
0.15
0.15
0.15
0.15
0.15
0.07
0.07
0.06
0.06
0.07
0.07
0.07
0.07
0.07
0.07
0.07
0.07
0.12
0.36
0.47
0.47
0.56
0.68
0.61
0.61
0.82
0.87
0.92
0.91
0.94
0.99
0.91
0.88
0.38
0.12
0.39
0.31
0.37
0.36
0.37
0.36
0.38
0.38
0.38
0.26
0.26
0.26
0.38
0.38
0.31
0.39
0.40
0.31
0.26
0.29
0.37
0.38
0.39
0.36
0.38
0.36
0.29
0.37
0.36
0.26
0.22
0.26
0.26
0.23
0.32
0.30
0.30
0.41
0.43
0.41
0.43
0.41
0.37
0.43
0.37
0.29
0.25
0.31
0.38
0.35
0.36
0.36
0.19
0.00
0.04
0.07
0.12
0.18
0.24
0.24
0.24
0.24
0.24
0.24
0.26
0.21
0.15
0.15
0.18
0.21
0.14
0.12
0.09
0.07
0.07
0.07
0.09
0.12
0.12
0.09
0.07
0.04
0.00
0.00
0.00
0.00
0.00
0.04
0.07
0.06
0.06
0.07
0.07
0.07
0.00
0.10
0.00
0.00
0.00
0.00
0.00
0.04
0.04
0.10
0.00
0.04
0.00
0.00
0.00
0.00
0.00
0.00
0.00
0.10
0.00
0.00
0.00
0.00
0.00
0.00
0.00
0.00
0.00
0.10
0.19
0.19
0.12
0.10
0.10
0.10
0.06
0.06
0.06
0.07
0.09
0.12
0.00
0.29
0.29
0.25
0.25
0.19
0.12
0.12
0.19
0.19
0.19
0.19
0.29
0.04
0.18
0.30
0.46
0.54
0.52
0.47
0.59
0.85
0.87
0.93
0.90
0.92
0.92
0.91
0.53
0.35
0.38
0.26
0.21
0.26
0.26
0.26
0.23
0.23
0.30
0.23
0.26
0.23
0.21
0.23
0.29
0.26
0.21
0.22
0.22
0.21
0.21
0.21
0.23
0.21
0.21
0.21
0.21
0.22
0.22
0.23
0.29
0.32
0.32
0.37
0.43
0.47
0.51
0.55
0.55
0.62
0.80
0.72
0.56
0.47
0.41
0.30
0.26
0.23
0.21
0.31
0.38
0.36
0.29
0.29
0.00
0.06
0.12
0.14
0.18
0.15
0.15
0.15
0.14
0.14
0.15
0.15
0.15
0.09
0.09
0.12
0.14
0.12
0.12
0.07
0.07
0.12
0.07
0.07
0.07
0.07
0.07
0.07
0.07
0.07
0.07
0.07
0.07
0.06
0.00
0.07
0.07
0.07
0.04
0.07
0.00
0.00
0.00
0.00
0.04
0.04
0.06
0.00
0.00
0.07
0.06
0.00
0.00
0.04
0.06
0.00
0.00
0.00
0.00
0.00
0.07
0.07
0.04
0.10
0.00
0.00
0.00
0.00
0.06
0.07
0.04
0.00
0.00
0.00
0.04
0.06
0.06
0.00
0.06
0.07
0.06
0.07
0.15
0.15
0.07
0.10
0.10
0.00
0.00
0.00
0.00
0.00
0.00
0.00
0.10
0.00
0.00
0.06
0.33
0.41
0.42
0.55
0.61
0.54
0.57
0.81
0.88
0.92
0.91
0.91
0.97
0.92
0.83
0.15
0.35
0.37
0.25
0.21
0.22
0.26
0.26
0.21
0.26
0.21
0.22
0.26
0.26
0.26
0.26
0.29
0.29
0.22
0.22
0.26
0.22
0.26
0.31
0.22
0.22
0.22
0.29
0.25
0.22
0.21
0.21
0.22
0.21
0.29
0.37
0.43
0.47
0.47
0.55
0.56
0.55
0.55
0.55
0.59
0.55
0.30
0.29
0.23
0.35
0.39
0.35
0.38
0.36
0.25
0.00
0.09
0.14
0.14
0.21
0.15
0.30
0.26
0.26
0.26
0.26
0.30
0.18
0.18
0.18
0.15
0.15
0.14
0.09
0.09
0.14
0.15
0.18
0.09
0.09
0.12
0.09
0.07
0.07
0.07
0.09
0.09
0.07
0.07
0.07
0.07
0.07
0.12
0.12
0.06
0.06
0.06
0.07
0.07
0.07
0.07
0.07
0.07
0.04
0.07
0.07
0.06
0.06
0.07
0.07
0.07
0.12
0.14
0.04
0.00
0.00
0.04
0.06
0.06
0.04
0.06
0.07
0.06
0.04
0.07
0.06
0.06
0.07
0.07
0.09
0.07
0.06
0.06
0.07
0.15
0.18
0.14
0.07
0.00
0.00
0.00
0.00
0.00
0.00
0.00
0.00
0.12
0.12
0.00
0.10
0.04
0.32
0.47
0.42
0.50
0.55
0.52
0.61
0.84
0.87
0.93
0.90
0.92
0.99
0.93
0.74
0.06
0.40
0.29
0.26
0.22
0.22
0.23
0.21
0.23
0.23
0.21
0.23
0.21
0.25
0.25
0.22
0.25
0.26
0.29
0.21
0.22
0.25
0.22
0.25
0.25
0.26
0.22
0.25
0.25
0.22
0.23
0.26
0.29
0.26
0.30
0.41
0.51
0.47
0.55
0.62
0.66
0.66
0.66
0.66
0.66
0.55
0.37
0.32
0.29
0.21
0.29
0.38
0.35
0.25
0.12
0.04
0.07
0.07
0.06
0.07
0.15
0.24
0.21
0.15
0.14
0.15
0.15
0.15
0.18
0.09
0.07
0.07
0.14
0.07
0.07
0.07
0.12
0.07
0.07
0.07
0.07
0.06
0.06
0.07
0.07
0.07
0.07
0.06
0.00
0.06
0.07
0.06
0.04
0.00
0.04
0.07
0.06
0.07
0.09
0.07
0.07
0.07
0.06
0.04
0.04
0.07
0.07
0.06
0.00
0.07
0.07
0.07
0.07
0.07
0.07
0.07
0.06
0.00
0.04
0.09
0.12
0.09
0.07
0.00
0.04
0.07
0.09
0.07
0.06
0.04
0.07
0.07
0.07
0.07
0.07
0.14
0.24
0.21
0.15
0.07
0.06
0.04
0.06
0.04
0.00
0.00
0.04
0.00
0.00
0.00
0.07
0.07
0.24
0.42
0.47
0.52
0.59
0.59
0.57
0.81
0.87
0.92
0.91
0.92
1.00
0.92
0.88
0.48
0.00
0.39
0.29
0.21
0.21
0.25
0.29
0.31
0.29
0.25
0.26
0.25
0.31
0.37
0.38
0.35
0.26
0.26
0.31
0.38
0.31
0.31
0.25
0.21
0.22
0.29
0.29
0.25
0.26
0.26
0.26
0.21
0.25
0.23
0.26
0.30
0.43
0.47
0.47
0.51
0.47
0.47
0.47
0.43
0.43
0.43
0.32
0.21
0.26
0.35
0.38
0.36
0.35
0.29
0.00
0.04
0.07
0.14
0.15
0.24
0.30
0.33
0.26
0.21
0.30
0.24
0.15
0.15
0.15
0.15
0.12
0.15
0.15
0.09
0.07
0.07
0.14
0.09
0.07
0.07
0.07
0.07
0.07
0.07
0.09
0.07
0.04
0.04
0.06
0.07
0.07
0.07
0.06
0.06
0.07
0.07
0.06
0.04
0.00
0.00
0.04
0.07
0.07
0.12
0.07
0.04
0.07
0.06
0.04
0.04
0.04
0.07
0.07
0.04
0.00
0.00
0.04
0.06
0.06
0.06
0.06
0.04
0.07
0.06
0.00
0.06
0.07
0.06
0.00
0.04
0.07
0.12
0.15
0.21
0.21
0.14
0.06
0.00
0.00
0.00
0.00
0.00
0.00
0.12
0.10
0.00
0.00
0.00
0.12
0.42
0.49
0.50
0.70
0.74
0.55
0.55
0.82
0.87
0.93
0.90
0.92
1.00
0.92
0.85
0.18
0.36
0.38
0.37
0.25
0.25
0.29
0.26
0.29
0.26
0.22
0.25
0.26
0.26
0.29
0.29
0.36
0.37
0.35
0.35
0.35
0.37
0.22
0.26
0.29
0.25
0.22
0.26
0.26
0.26
0.25
0.29
0.25
0.21
0.21
0.23
0.30
0.32
0.51
0.51
0.47
0.55
0.55
0.47
0.41
0.41
0.32
0.26
0.23
0.26
0.37
0.38
0.35
0.12
0.00
0.06
0.09
0.14
0.18
0.24
0.24
0.26
0.30
0.36
0.32
0.24
0.26
0.24
0.14
0.12
0.15
0.18
0.12
0.09
0.12
0.14
0.14
0.12
0.12
0.12
0.12
0.12
0.12
0.12
0.07
0.09
0.14
0.09
0.07
0.07
0.07
0.09
0.07
0.09
0.09
0.07
0.04
0.04
0.06
0.07
0.06
0.04
0.06
0.07
0.09
0.12
0.07
0.07
0.07
0.07
0.07
0.06
0.00
0.07
0.09
0.07
0.07
0.21
0.07
0.00
0.00
0.00
0.00
0.06
0.04
0.07
0.06
0.07
0.07
0.07
0.06
0.06
0.07
0.07
0.14
0.18
0.18
0.14
0.07
0.07
0.07
0.06
0.00
0.00
0.00
0.00
0.00
0.00
0.00
0.00
0.06
0.15
0.30
0.41
0.50
0.68
0.64
0.55
0.75
0.87
0.91
0.92
0.95
0.99
1.00
0.89
0.47
0.12
0.38
0.31
0.29
0.29
0.25
0.21
0.22
0.26
0.22
0.23
0.21
0.21
0.25
0.26
0.26
0.31
0.31
0.26
0.25
0.21
0.25
0.26
0.25
0.25
0.25
0.26
0.31
0.25
0.26
0.21
0.21
0.23
0.26
0.26
0.26
0.41
0.41
0.51
0.62
0.59
0.55
0.55
0.47
0.47
0.32
0.32
0.32
0.26
0.22
0.37
0.38
0.35
0.10
0.06
0.07
0.07
0.09
0.15
0.24
0.24
0.24
0.24
0.21
0.26
0.26
0.24
0.18
0.15
0.14
0.09
0.12
0.21
0.15
0.14
0.07
0.07
0.07
0.07
0.09
0.09
0.09
0.07
0.07
0.09
0.07
0.07
0.06
0.07
0.06
0.04
0.04
0.07
0.06
0.04
0.00
0.00
0.04
0.04
0.00
0.00
0.00
0.06
0.06
0.00
0.00
0.04
0.00
0.00
0.04
0.06
0.00
0.00
0.00
0.00
0.10
0.00
0.00
0.00
0.10
0.00
0.00
0.19
0.10
0.12
0.12
0.00
0.10
0.10
0.04
0.12
0.10
0.00
0.06
0.07
0.07
0.12
0.09
0.00
0.19
0.19
0.19
0.29
0.19
0.10
0.12
0.25
0.19
0.25
0.25
0.19
0.07
0.18
0.21
0.33
0.52
0.48
0.47
0.70
0.86
0.90
0.93
0.92
0.95
0.92
0.86
0.12
0.39
0.29
0.23
0.26
0.30
0.32
0.32
0.32
0.29
0.30
0.32
0.32
0.29
0.29
0.23
0.21
0.29
0.29
0.26
0.26
0.29
0.30
0.26
0.21
0.21
0.26
0.32
0.32
0.32
0.32
0.32
0.32
0.41
0.55
0.55
0.59
0.72
0.72
0.80
0.83
0.82
0.82
0.82
0.82
0.72
0.59
0.43
0.51
0.43
0.21
0.29
0.35
0.40
0.36
0.29
0.25
0.10
0.04
0.06
0.07
0.07
0.09
0.14
0.15
0.15
0.09
0.06
0.06
0.07
0.07
0.07
0.12
0.09
0.00
0.04
0.06
0.04
0.06
0.04
0.04
0.07
0.04
0.00
0.04
0.06
0.07
0.00
0.00
0.06
0.07
0.07
0.07
0.09
0.04
0.00
0.06
0.07
0.07
0.06
0.09
0.12
0.07
0.00
0.06
0.06
0.06
0.07
0.09
0.07
0.07
0.07
0.07
0.07
0.07
0.07
0.07
0.07
0.06
0.04
0.04
0.07
0.07
0.12
0.07
0.07
0.07
0.07
0.09
0.09
0.07
0.07
0.07
0.06
0.12
0.14
0.18
0.24
0.21
0.07
0.00
0.10
0.00
0.06
0.04
0.04
0.00
0.12
0.10
0.00
0.00
0.14
0.38
0.47
0.48
0.57
0.60
0.55
0.64
0.86
0.89
0.93
0.92
0.96
1.00
0.93
0.75
0.10
0.39
0.37
0.29
0.26
0.25
0.22
0.21
0.23
0.21
0.21
0.31
0.21
0.30
0.23
0.21
0.22
0.21
0.21
0.25
0.25
0.21
0.23
0.21
0.21
0.21
0.23
0.23
0.26
0.30
0.29
0.29
0.29
0.29
0.29
0.32
0.32
0.41
0.62
0.75
0.75
0.75
0.66
0.62
0.51
0.47
0.47
0.32
0.23
0.23
0.31
0.39
0.37
0.35
0.12
0.12
0.04
0.09
0.12
0.07
0.12
0.18
0.26
0.18
0.09
0.09
0.09
0.07
0.12
0.14
0.12
0.12
0.07
0.06
0.07
0.09
0.14
0.12
0.06
0.04
0.04
0.06
0.07
0.06
0.04
0.07
0.04
0.04
0.07
0.04
0.06
0.07
0.07
0.00
0.00
0.00
0.00
0.00
0.00
0.00
0.06
0.04
0.00
0.04
0.00
0.04
0.07
0.04
0.00
0.00
0.06
0.07
0.04
0.10
0.00
0.04
0.00
0.00
0.00
0.06
0.06
0.07
0.04
0.12
0.00
0.00
0.00
0.04
0.04
0.06
0.06
0.04
0.04
0.12
0.18
0.15
0.14
0.09
0.07
0.00
0.00
0.00
0.00
0.00
0.00
0.00
0.00
0.00
0.00
0.04
0.09
0.26
0.36
0.46
0.59
0.60
0.53
0.57
0.81
0.87
0.91
0.91
0.97
0.99
0.91
0.85
0.12
0.36
0.35
0.31
0.26
0.26
0.26
0.35
0.22
0.21
0.21
0.21
0.21
0.22
0.25
0.25
0.26
0.35
0.26
0.22
0.21
0.25
0.25
0.26
0.31
0.29
0.25
0.22
0.25
0.25
0.25
0.21
0.21
0.21
0.26
0.37
0.43
0.51
0.55
0.55
0.56
0.55
0.55
0.51
0.43
0.43
0.30
0.26
0.21
0.21
0.25
0.39
0.29
0.25
0.12
0.00
0.09
0.12
0.14
0.18
0.18
0.18
0.21
0.15
0.18
0.18
0.21
0.26
0.26
0.18
0.15
0.18
0.12
0.07
0.07
0.07
0.07
0.09
0.12
0.12
0.12
0.07
0.04
0.00
0.00
0.00
0.07
0.07
0.00
0.00
0.00
0.04
0.04
0.07
0.04
0.00
0.04
0.00
0.00
0.06
0.07
0.06
0.00
0.00
0.00
0.04
0.00
0.00
0.04
0.04
0.00
0.00
0.00
0.00
0.04
0.00
0.10
0.04
0.06
0.00
0.04
0.07
0.00
0.00
0.00
0.00
0.00
0.00
0.00
0.00
0.04
0.07
0.12
0.12
0.18
0.18
0.09
0.04
0.10
0.00
0.00
0.06
0.00
0.04
0.10
0.00
0.00
0.12
0.12
0.04
0.15
0.24
0.36
0.59
0.74
0.61
0.60
0.82
0.86
0.91
0.90
0.96
1.00
0.92
0.84
0.12
0.35
0.31
0.22
0.21
0.21
0.21
0.22
0.25
0.25
0.22
0.22
0.21
0.21
0.21
0.26
0.25
0.29
0.29
0.25
0.25
0.26
0.26
0.22
0.26
0.25
0.23
0.21
0.22
0.22
0.22
0.21
0.29
0.32
0.32
0.32
0.41
0.47
0.55
0.55
0.59
0.55
0.51
0.56
0.55
0.55
0.41
0.41
0.41
0.26
0.29
0.38
0.36
0.25
0.10
0.00
0.06
0.07
0.12
0.15
0.15
0.14
0.14
0.14
0.18
0.24
0.21
0.14
0.07
0.07
0.09
0.12
0.12
0.09
0.12
0.09
0.06
0.06
0.07
0.09
0.07
0.04
0.04
0.00
0.00
0.00
0.00
0.00
0.00
0.04
0.00
0.00
0.00
0.00
0.00
0.04
0.04
0.00
0.06
0.00
0.00
0.00
0.00
0.00
0.10
0.00
0.04
0.00
0.10
0.10
0.00
0.00
0.00
0.00
0.10
0.00
0.00
0.00
0.00
0.04
0.00
0.00
0.10
0.19
0.12
0.10
0.00
0.10
0.10
0.10
0.00
0.00
0.00
0.04
0.07
0.14
0.04
0.00
0.00
0.19
0.25
0.25
0.12
0.12
0.12
0.19
0.29
0.25
0.19
0.00
0.18
0.18
0.36
0.53
0.54
0.48
0.57
0.83
0.86
0.92
0.91
0.92
0.92
0.91
0.62
0.00
0.39
0.26
0.23
0.26
0.32
0.32
0.32
0.32
0.32
0.30
0.26
0.30
0.26
0.26
0.29
0.30
0.26
0.26
0.30
0.29
0.21
0.22
0.22
0.23
0.26
0.26
0.30
0.32
0.32
0.32
0.32
0.32
0.32
0.37
0.55
0.59
0.66
0.66
0.66
0.66
0.72
0.80
0.83
0.80
0.62
0.47
0.47
0.47
0.26
0.25
0.37
0.38
0.38
0.29
0.10
0.00
0.06
0.07
0.07
0.07
0.12
0.14
0.14
0.15
0.24
0.14
0.14
0.09
0.09
0.12
0.12
0.12
0.09
0.14
0.15
0.14
0.14
0.12
0.07
0.04
0.07
0.07
0.07
0.06
0.07
0.07
0.09
0.07
0.07
0.07
0.07
0.07
0.07
0.06
0.04
0.07
0.07
0.07
0.06
0.07
0.07
0.07
0.07
0.07
0.07
0.07
0.07
0.07
0.06
0.06
0.06
0.07
0.07
0.07
0.07
0.07
0.00
0.04
0.06
0.06
0.06
0.07
0.06
0.06
0.07
0.07
0.12
0.07
0.00
0.00
0.04
0.04
0.06
0.14
0.18
0.15
0.26
0.30
0.07
0.00
0.00
0.00
0.07
0.06
0.00
0.00
0.00
0.00
0.00
0.00
0.00
0.21
0.41
0.43
0.57
0.70
0.60
0.59
0.81
0.87
0.91
0.91
0.96
1.00
0.91
0.88
0.36
0.35
0.37
0.26
0.29
0.29
0.29
0.29
0.22
0.23
0.22
0.22
0.25
0.25
0.22
0.22
0.22
0.29
0.26
0.37
0.22
0.22
0.21
0.22
0.22
0.26
0.26
0.22
0.21
0.22
0.22
0.23
0.23
0.21
0.21
0.29
0.32
0.43
0.56
0.59
0.55
0.56
0.72
0.66
0.66
0.62
0.51
0.30
0.26
0.22
0.26
0.35
0.40
0.35
0.19
0.12
0.10
0.00
0.09
0.09
0.09
0.18
0.26
0.24
0.21
0.21
0.14
0.14
0.09
0.14
0.09
0.14
0.09
0.07
0.07
0.07
0.07
0.07
0.07
0.07
0.07
0.04
0.00
0.00
0.00
0.00
0.00
0.00
0.04
0.00
0.00
0.10
0.10
0.00
0.00
0.00
0.00
0.00
0.00
0.00
0.00
0.00
0.00
0.00
0.10
0.10
0.00
0.00
0.00
0.10
0.00
0.04
0.00
0.00
0.00
0.00
0.00
0.00
0.00
0.00
0.00
0.00
0.00
0.00
0.04
0.04
0.00
0.00
0.00
0.00
0.04
0.00
0.00
0.07
0.12
0.15
0.15
0.07
0.04
0.00
0.10
0.12
0.10
0.00
0.00
0.00
0.10
0.10
0.00
0.10
0.12
0.24
0.30
0.33
0.55
0.66
0.57
0.56
0.80
0.87
0.91
0.91
0.92
0.99
0.92
0.85
0.15
0.36
0.36
0.25
0.22
0.22
0.21
0.21
0.22
0.22
0.21
0.23
0.26
0.23
0.21
0.22
0.22
0.22
0.25
0.29
0.25
0.22
0.22
0.21
0.22
0.22
0.21
0.25
0.25
0.25
0.25
0.23
0.26
0.43
0.32
0.37
0.43
0.51
0.59
0.55
0.59
0.66
0.72
0.66
0.55
0.47
0.37
0.37
0.32
0.21
0.26
0.38
0.36
0.35
0.19
0.12
0.00
0.07
0.07
0.14
0.14
0.18
0.15
0.21
0.26
0.24
0.21
0.21
0.21
0.15
0.15
0.07
0.07
0.07
0.07
0.07
0.07
0.07
0.07
0.07
0.07
0.07
0.07
0.06
0.07
0.07
0.07
0.06
0.07
0.07
0.09
0.07
0.00
0.00
0.04
0.00
0.00
0.06
0.06
0.00
0.04
0.07
0.04
0.04
0.04
0.00
0.07
0.07
0.00
0.04
0.07
0.00
0.00
0.00
0.04
0.04
0.06
0.07
0.07
0.06
0.06
0.06
0.00
0.00
0.04
0.00
0.00
0.00
0.00
0.04
0.04
0.07
0.12
0.21
0.21
0.15
0.07
0.00
0.10
0.10
0.00
0.04
0.00
0.12
0.19
0.19
0.12
0.00
0.00
0.07
0.30
0.41
0.49
0.68
0.70
0.52
0.57
0.85
0.89
0.93
0.91
0.92
1.00
0.91
0.57
0.00
0.39
0.26
0.21
0.21
0.22
0.22
0.21
0.21
0.21
0.26
0.30
0.23
0.22
0.22
0.22
0.25
0.25
0.29
0.29
0.26
0.22
0.25
0.29
0.22
0.22
0.22
0.22
0.21
0.22
0.21
0.23
0.29
0.30
0.32
0.43
0.47
0.47
0.56
0.62
0.59
0.62
0.66
0.59
0.66
0.55
0.43
0.37
0.29
0.22
0.26
0.36
0.39
0.36
0.29
0.12
0.00
0.04
0.06
0.12
0.15
0.18
0.15
0.14
0.14
0.09
0.07
0.12
0.12
0.07
0.06
0.00
0.00
0.04
0.07
0.07
0.04
0.00
0.07
0.06
0.04
0.00
0.06
0.04
0.06
0.00
0.00
0.00
0.00
0.00
0.00
0.04
0.04
0.10
0.10
0.00
0.00
0.00
0.00
0.10
0.12
0.10
0.10
0.12
0.12
0.12
0.12
0.10
0.10
0.19
0.12
0.10
0.10
0.12
0.12
0.00
0.10
0.12
0.10
0.00
0.00
0.00
0.25
0.19
0.19
0.12
0.12
0.10
0.10
0.12
0.19
0.19
0.12
0.12
0.10
0.00
0.04
0.07
0.07
0.00
0.19
0.19
0.25
0.19
0.12
0.12
0.25
0.35
0.36
0.35
0.35
0.25
0.07
0.21
0.18
0.30
0.53
0.54
0.43
0.60
0.86
0.90
0.93
0.92
0.92
0.92
0.88
0.36
0.36
0.36
0.25
0.21
0.29
0.32
0.26
0.26
0.29
0.23
0.23
0.21
0.21
0.23
0.21
0.21
0.21
0.21
0.21
0.23
0.21
0.22
0.21
0.21
0.26
0.30
0.23
0.21
0.26
0.26
0.23
0.23
0.32
0.37
0.32
0.41
0.43
0.51
0.59
0.62
0.66
0.66
0.59
0.62
0.59
0.47
0.41
0.26
0.22
0.22
0.36
0.39
0.36
0.35
0.12
0.06
0.09
0.12
0.12
0.15
0.18
0.26
0.33
0.38
0.30
0.30
0.32
0.24
0.18
0.18
0.18
0.18
0.15
0.14
0.12
0.07
0.07
0.07
0.09
0.07
0.09
0.09
0.09
0.06
0.06
0.06
0.04
0.07
0.07
0.07
0.07
0.07
0.07
0.07
0.07
0.07
0.00
0.00
0.04
0.07
0.07
0.06
0.04
0.04
0.06
0.06
0.00
0.04
0.07
0.07
0.07
0.00
0.00
0.00
0.06
0.06
0.07
0.07
0.04
0.00
0.04
0.04
0.04
0.00
0.00
0.04
0.00
0.00
0.00
0.04
0.06
0.07
0.00
0.04
0.07
0.14
0.21
0.12
0.04
0.00
0.00
0.00
0.00
0.00
0.00
0.00
0.00
0.00
0.00
0.00
0.00
0.12
0.30
0.32
0.47
0.57
0.61
0.56
0.66
0.86
0.89
0.93
0.92
0.92
1.00
0.90
0.48
0.10
0.39
0.35
0.29
0.26
0.25
0.21
0.21
0.22
0.22
0.21
0.25
0.25
0.22
0.21
0.25
0.22
0.25
0.26
0.25
0.25
0.25
0.23
0.23
0.22
0.25
0.26
0.23
0.22
0.29
0.22
0.29
0.29
0.41
0.41
0.32
0.47
0.55
0.66
0.59
0.55
0.66
0.72
0.59
0.55
0.55
0.37
0.23
0.30
0.23
0.35
0.38
0.39
0.36
0.19
0.04
0.09
0.12
0.09
0.09
0.15
0.21
0.21
0.18
0.18
0.15
0.15
0.14
0.12
0.14
0.14
0.07
0.09
0.15
0.09
0.04
0.06
0.07
0.06
0.07
0.07
0.07
0.07
0.07
0.07
0.06
0.06
0.00
0.07
0.07
0.07
0.00
0.00
0.00
0.00
0.04
0.06
0.04
0.06
0.04
0.00
0.00
0.00
0.00
0.04
0.00
0.00
0.00
0.04
0.00
0.10
0.00
0.00
0.00
0.00
0.00
0.00
0.00
0.00
0.00
0.00
0.00
0.00
0.04
0.06
0.00
0.00
0.00
0.00
0.00
0.00
0.06
0.07
0.14
0.15
0.15
0.06
0.10
0.12
0.00
0.04
0.00
0.12
0.19
0.12
0.10
0.10
0.19
0.10
0.09
0.26
0.32
0.50
0.62
0.61
0.53
0.64
0.86
0.90
0.93
0.92
0.91
0.92
0.89
0.42
0.35
0.38
0.29
0.21
0.23
0.26
0.26
0.29
0.23
0.23
0.30
0.29
0.29
0.29
0.30
0.23
0.21
0.21
0.21
0.21
0.21
0.21
0.21
0.22
0.22
0.21
0.23
0.21
0.21
0.26
0.32
0.32
0.32
0.30
0.29
0.41
0.55
0.55
0.59
0.72
0.80
0.72
0.75
0.72
0.62
0.59
0.51
0.32
0.32
0.21
0.31
0.40
0.39
0.36
0.12
0.00
0.00
0.07
0.09
0.12
0.09
0.15
0.18
0.15
0.14
0.15
0.15
0.15
0.12
0.07
0.07
0.12
0.12
0.14
0.09
0.12
0.07
0.07
0.06
0.04
0.07
0.04
0.04
0.06
0.00
0.00
0.00
0.04
0.06
0.00
0.00
0.06
0.04
0.04
0.00
0.00
0.04
0.00
0.06
0.00
0.00
0.00
0.00
0.00
0.00
0.00
0.00
0.00
0.00
0.00
0.00
0.00
0.00
0.00
0.00
0.00
0.00
0.00
0.00
0.00
0.10
0.00
0.10
0.00
0.00
0.00
0.00
0.06
0.06
0.00
0.00
0.00
0.06
0.07
0.12
0.15
0.12
0.04
0.00
0.00
0.00
0.00
0.10
0.00
0.10
0.19
0.10
0.10
0.12
0.00
0.12
0.33
0.43
0.56
0.70
0.62
0.55
0.75
0.87
0.91
0.92
0.91
0.97
0.92
0.87
0.36
0.25
0.37
0.31
0.31
0.23
0.23
0.26
0.26
0.26
0.26
0.21
0.22
0.22
0.22
0.22
0.25
0.21
0.21
0.21
0.21
0.21
0.22
0.22
0.22
0.21
0.23
0.26
0.26
0.29
0.32
0.32
0.32
0.32
0.37
0.47
0.47
0.51
0.55
0.72
0.72
0.82
0.82
0.80
0.80
0.80
0.55
0.47
0.55
0.37
0.21
0.22
0.25
0.37
0.38
0.29
0.00
0.00
0.07
0.09
0.07
0.07
0.12
0.14
0.14
0.09
0.09
0.07
0.06
0.06
0.07
0.04
0.00
0.04
0.07
0.06
0.00
0.00
0.00
0.10
0.10
0.00
0.00
0.00
0.10
0.10
0.10
0.12
0.00
0.00
0.10
0.19
0.12
0.12
0.10
0.10
0.12
0.10
0.00
0.00
0.10
0.12
0.19
0.12
0.12
0.10
0.10
0.10
0.00
0.00
0.10
0.12
0.12
0.19
0.12
0.10
0.19
0.19
0.10
0.12
0.25
0.19
0.19
0.19
0.19
0.19
0.19
0.10
0.12
0.12
0.12
0.00
0.00
0.00
0.12
0.00
0.06
0.07
0.07
0.00
0.12
0.25
0.29
0.12
0.12
0.19
0.10
0.19
0.25
0.29
0.25
0.19
0.07
0.24
0.26
0.38
0.52
0.53
0.50
0.61
0.85
0.89
0.93
0.91
0.92
0.93
0.90
0.53
0.19
0.37
0.29
0.26
0.26
0.26
0.23
0.23
0.23
0.23
0.23
0.23
0.21
0.25
0.22
0.21
0.25
0.25
0.29
0.29
0.26
0.31
0.29
0.25
0.22
0.25
0.25
0.26
0.26
0.22
0.23
0.23
0.23
0.26
0.29
0.32
0.37
0.43
0.51
0.55
0.55
0.62
0.59
0.62
0.51
0.43
0.43
0.37
0.23
0.26
0.29
0.31
0.38
0.35
0.10
0.00
0.07
0.09
0.12
0.18
0.21
0.24
0.24
0.24
0.30
0.30
0.26
0.21
0.15
0.15
0.18
0.15
0.12
0.07
0.07
0.12
0.12
0.07
0.07
0.07
0.06
0.06
0.07
0.06
0.04
0.07
0.07
0.04
0.04
0.06
0.00
0.04
0.00
0.00
0.04
0.06
0.06
0.07
0.06
0.00
0.00
0.04
0.04
0.00
0.00
0.00
0.07
0.07
0.00
0.00
0.00
0.00
0.04
0.04
0.04
0.04
0.00
0.00
0.00
0.00
0.10
0.12
0.10
0.00
0.00
0.00
0.00
0.00
0.00
0.00
0.00
0.00
0.00
0.07
0.12
0.18
0.15
0.06
0.00
0.25
0.00
0.00
0.12
0.00
0.10
0.12
0.19
0.12
0.10
0.00
0.06
0.18
0.30
0.43
0.61
0.72
0.57
0.59
0.83
0.87
0.92
0.91
0.92
0.92
0.93
0.77
0.00
0.39
0.36
0.29
0.25
0.22
0.25
0.22
0.25
0.25
0.23
0.23
0.21
0.22
0.26
0.26
0.22
0.21
0.21
0.21
0.21
0.22
0.22
0.22
0.26
0.26
0.22
0.21
0.21
0.21
0.21
0.22
0.22
0.26
0.37
0.43
0.43
0.51
0.55
0.55
0.62
0.59
0.62
0.55
0.55
0.55
0.47
0.43
0.30
0.21
0.31
0.40
0.38
0.29
0.19
0.00
0.00
0.07
0.07
0.09
0.14
0.18
0.24
0.26
0.26
0.15
0.14
0.14
0.15
0.18
0.15
0.09
0.07
0.09
0.14
0.09
0.07
0.07
0.07
0.07
0.06
0.07
0.04
0.00
0.04
0.06
0.07
0.07
0.07
0.07
0.07
0.04
0.00
0.00
0.00
0.04
0.04
0.00
0.00
0.04
0.06
0.04
0.00
0.04
0.00
0.00
0.00
0.00
0.00
0.00
0.00
0.00
0.00
0.00
0.00
0.00
0.00
0.00
0.04
0.00
0.00
0.00
0.00
0.00
0.00
0.04
0.00
0.00
0.00
0.00
0.00
0.00
0.07
0.14
0.12
0.09
0.12
0.04
0.00
0.10
0.19
0.12
0.10
0.12
0.19
0.19
0.19
0.19
0.19
0.10
0.18
0.36
0.41
0.57
0.68
0.61
0.56
0.80
0.88
0.91
0.92
0.92
0.96
0.92
0.86
0.21
0.36
0.37
0.25
0.21
0.21
0.22
0.22
0.21
0.22
0.26
0.22
0.21
0.25
0.25
0.21
0.21
0.21
0.25
0.21
0.22
0.29
0.29
0.22
0.22
0.22
0.25
0.25
0.22
0.21
0.22
0.23
0.30
0.29
0.30
0.32
0.41
0.43
0.47
0.55
0.62
0.62
0.59
0.59
0.56
0.55
0.47
0.43
0.32
0.23
0.22
0.29
0.39
0.35
0.12
0.00
0.04
0.06
0.14
0.14
0.15
0.24
0.21
0.21
0.18
0.21
0.18
0.18
0.15
0.14
0.14
0.14
0.09
0.12
0.12
0.09
0.09
0.07
0.09
0.09
0.09
0.09
0.07
0.06
0.06
0.04
0.06
0.07
0.06
0.06
0.07
0.07
0.07
0.06
0.00
0.04
0.00
0.00
0.00
0.00
0.00
0.00
0.00
0.00
0.00
0.04
0.00
0.00
0.00
0.00
0.00
0.00
0.00
0.00
0.00
0.00
0.00
0.00
0.00
0.04
0.00
0.00
0.00
0.00
0.00
0.00
0.00
0.00
0.00
0.04
0.00
0.00
0.00
0.00
0.06
0.07
0.14
0.14
0.09
0.00
0.00
0.19
0.10
0.00
0.00
0.12
0.10
0.12
0.12
0.12
0.10
0.00
0.32
0.36
0.46
0.64
0.68
0.52
0.54
0.81
0.87
0.91
0.92
0.92
0.95
0.93
0.81
0.07
0.38
0.29
0.22
0.21
0.23
0.23
0.21
0.23
0.23
0.26
0.29
0.29
0.30
0.26
0.23
0.21
0.23
0.22
0.21
0.21
0.21
0.21
0.21
0.26
0.26
0.21
0.23
0.26
0.37
0.32
0.32
0.41
0.43
0.32
0.41
0.55
0.59
0.62
0.72
0.72
0.72
0.75
0.80
0.80
0.72
0.59
0.51
0.37
0.30
0.23
0.26
0.36
0.38
0.36
0.25
0.00
0.00
0.07
0.07
0.07
0.07
0.07
0.09
0.07
0.12
0.12
0.09
0.07
0.07
0.04
0.00
0.06
0.04
0.00
0.00
0.00
0.00
0.00
0.00
0.06
0.04
0.00
0.00
0.10
0.12
0.10
0.10
0.10
0.00
0.00
0.00
0.00
0.00
0.00
0.10
0.12
0.10
0.00
0.00
0.12
0.10
0.10
0.19
0.12
0.00
0.19
0.12
0.12
0.19
0.19
0.12
0.00
0.00
0.10
0.10
0.10
0.00
0.00
0.00
0.00
0.00
0.00
0.10
0.00
0.10
0.10
0.00
0.00
0.10
0.00
0.00
0.00
0.04
0.06
0.07
0.09
0.06
0.00
0.00
0.00
0.00
0.00
0.00
0.00
0.00
0.00
0.00
0.00
0.00
0.15
0.41
0.41
0.49
0.70
0.68
0.59
0.81
0.88
0.91
0.92
0.92
1.00
0.92
0.87
0.50
0.00
0.35
0.39
0.39
0.40
0.37
0.35
0.36
0.36
0.31
0.35
0.35
0.37
0.36
0.38
0.40
0.39
0.38
0.31
0.37
0.37
0.38
0.39
0.38
0.38
0.40
0.39
0.38
0.35
0.31
0.37
0.31
0.29
0.25
0.26
0.21
0.23
0.30
0.43
0.41
0.43
0.55
0.55
0.47
0.37
0.29
0.21
0.29
0.31
0.37
0.39
0.35
0.25
0.00
0.06
0.07
0.12
0.14
0.18
0.26
0.32
0.38
0.26
0.26
0.30
0.38
0.30
0.30
0.24
0.21
0.21
0.24
0.24
0.24
0.14
0.15
0.14
0.15
0.15
0.14
0.07
0.14
0.09
0.12
0.07
0.09
0.07
0.07
0.07
0.07
0.07
0.07
0.07
0.07
0.07
0.07
0.07
0.07
0.07
0.06
0.04
0.06
0.07
0.00
0.00
0.07
0.07
0.04
0.00
0.00
0.06
0.04
0.04
0.04
0.07
0.07
0.06
0.04
0.00
0.04
0.04
0.06
0.06
0.00
0.00
0.00
0.06
0.00
0.00
0.04
0.07
0.12
0.14
0.18
0.18
0.07
0.00
0.00
0.00
0.04
0.00
0.00
0.00
0.00
0.00
0.00
0.10
0.00
0.12
0.30
0.42
0.53
0.74
0.66
0.54
0.74
0.87
0.90
0.92
0.92
0.94
0.92
0.87
0.30
0.19
0.38
0.29
0.25
0.22
0.22
0.26
0.25
0.21
0.21
0.21
0.23
0.21
0.25
0.25
0.21
0.21
0.22
0.22
0.21
0.21
0.22
0.22
0.22
0.22
0.22
0.22
0.22
0.22
0.22
0.21
0.21
0.23
0.29
0.32
0.32
0.41
0.55
0.56
0.55
0.47
0.56
0.66
0.59
0.55
0.41
0.32
0.26
0.22
0.26
0.29
0.38
0.36
0.19
0.00
0.04
0.07
0.09
0.12
0.15
0.15
0.21
0.21
0.21
0.18
0.26
0.21
0.15
0.14
0.14
0.14
0.14
0.12
0.07
0.09
0.07
0.09
0.09
0.09
0.06
0.06
0.06
0.06
0.07
0.07
0.07
0.07
0.00
0.06
0.00
0.06
0.07
0.07
0.06
0.04
0.06
0.07
0.06
0.00
0.00
0.00
0.00
0.00
0.00
0.04
0.00
0.00
0.00
0.00
0.04
0.04
0.04
0.04
0.00
0.04
0.07
0.00
0.10
0.00
0.00
0.00
0.00
0.00
0.00
0.00
0.00
0.00
0.00
0.00
0.00
0.07
0.07
0.12
0.15
0.12
0.07
0.00
0.00
0.00
0.00
0.10
0.00
0.00
0.00
0.10
0.19
0.12
0.12
0.06
0.32
0.43
0.43
0.59
0.70
0.59
0.57
0.84
0.87
0.91
0.91
0.92
0.97
0.94
0.62
0.00
0.36
0.36
0.35
0.22
0.21
0.21
0.26
0.25
0.21
0.23
0.21
0.22
0.22
0.21
0.22
0.26
0.29
0.29
0.26
0.25
0.25
0.29
0.31
0.29
0.26
0.25
0.25
0.21
0.23
0.21
0.22
0.22
0.29
0.32
0.32
0.37
0.32
0.55
0.62
0.55
0.55
0.59
0.55
0.55
0.55
0.41
0.32
0.26
0.26
0.29
0.37
0.35
0.35
0.19
0.00
0.04
0.07
0.15
0.21
0.18
0.15
0.15
0.18
0.18
0.15
0.15
0.15
0.14
0.14
0.14
0.09
0.07
0.07
0.12
0.12
0.07
0.07
0.07
0.07
0.07
0.07
0.07
0.09
0.07
0.07
0.07
0.09
0.07
0.07
0.06
0.04
0.04
0.06
0.07
0.07
0.04
0.00
0.04
0.07
0.06
0.00
0.04
0.04
0.00
0.00
0.06
0.06
0.00
0.00
0.04
0.04
0.00
0.06
0.07
0.04
0.00
0.04
0.06
0.00
0.04
0.04
0.00
0.00
0.00
0.00
0.00
0.00
0.00
0.00
0.04
0.07
0.09
0.12
0.14
0.07
0.00
0.12
0.19
0.19
0.12
0.12
0.12
0.19
0.25
0.19
0.25
0.29
0.00
0.15
0.26
0.36
0.49
0.53
0.49
0.56
0.82
0.88
0.91
0.92
0.92
0.92
0.91
0.60
0.29
0.35
0.22
0.23
0.41
0.41
0.41
0.26
0.41
0.43
0.43
0.43
0.41
0.43
0.30
0.37
0.26
0.29
0.32
0.32
0.26
0.29
0.37
0.41
0.43
0.37
0.32
0.32
0.32
0.37
0.43
0.41
0.43
0.51
0.55
0.62
0.72
0.66
0.82
0.84
0.83
0.83
0.82
0.82
0.80
0.72
0.66
0.62
0.37
0.29
0.29
0.25
0.37
0.39
0.35
0.25
0.25
0.00
0.00
0.04
0.07
0.09
0.07
0.04
0.07
0.07
0.04
0.04
0.06
0.04
0.04
0.00
0.00
0.00
0.00
0.00
0.00
0.00
0.10
0.10
0.00
0.00
0.12
0.12
0.00
0.00
0.00
0.10
0.19
0.00
0.00
0.10
0.10
0.12
0.00
0.00
0.00
0.00
0.00
0.00
0.00
0.00
0.12
0.12
0.10
0.10
0.12
0.12
0.12
0.10
0.00
0.00
0.00
0.00
0.10
0.19
0.10
0.00
0.12
0.10
0.00
0.00
0.00
0.00
0.00
0.00
0.00
0.04
0.06
0.09
0.15
0.18
0.00
0.12
0.12
0.12
0.10
0.10
0.06
0.00
0.10
0.00
0.00
0.00
0.04
0.21
0.38
0.41
0.49
0.61
0.60
0.59
0.75
0.86
0.91
0.92
0.91
0.97
0.91
0.87
0.48
0.25
0.39
0.38
0.31
0.29
0.25
0.25
0.25
0.22
0.26
0.26
0.29
0.29
0.31
0.37
0.35
0.29
0.26
0.35
0.31
0.29
0.29
0.29
0.26
0.26
0.35
0.38
0.31
0.25
0.26
0.26
0.25
0.21
0.21
0.26
0.32
0.37
0.41
0.41
0.43
0.55
0.59
0.59
0.55
0.51
0.37
0.30
0.26
0.22
0.35
0.39
0.36
0.29
0.12
0.00
0.00
0.04
0.12
0.15
0.15
0.24
0.18
0.24
0.26
0.26
0.26
0.26
0.24
0.15
0.15
0.18
0.24
0.18
0.09
0.07
0.07
0.07
0.07
0.07
0.07
0.06
0.04
0.06
0.07
0.07
0.07
0.07
0.06
0.06
0.07
0.07
0.07
0.06
0.04
0.04
0.07
0.00
0.00
0.00
0.00
0.07
0.07
0.07
0.00
0.00
0.06
0.00
0.00
0.06
0.04
0.04
0.00
0.00
0.06
0.04
0.00
0.00
0.00
0.00
0.00
0.00
0.00
0.00
0.00
0.00
0.00
0.06
0.06
0.04
0.04
0.06
0.07
0.12
0.15
0.14
0.07
0.00
0.00
0.00
0.00
0.00
0.00
0.00
0.12
0.12
0.12
0.12
0.00
0.09
0.36
0.41
0.49
0.66
0.68
0.56
0.68
0.86
0.89
0.93
0.91
0.92
0.92
0.91
0.56
0.00
0.39
0.29
0.22
0.21
0.21
0.21
0.22
0.22
0.21
0.21
0.21
0.21
0.22
0.22
0.22
0.22
0.25
0.26
0.29
0.26
0.29
0.25
0.21
0.21
0.22
0.22
0.22
0.25
0.25
0.22
0.23
0.21
0.29
0.32
0.32
0.32
0.43
0.55
0.66
0.66
0.66
0.66
0.55
0.51
0.51
0.41
0.32
0.23
0.25
0.36
0.39
0.35
0.19
0.00
0.00
0.00
0.04
0.09
0.15
0.30
0.21
0.24
0.21
0.24
0.21
0.18
0.18
0.18
0.15
0.15
0.15
0.15
0.14
0.09
0.07
0.07
0.09
0.07
0.07
0.09
0.12
0.09
0.07
0.07
0.07
0.07
0.07
0.07
0.07
0.04
0.00
0.04
0.06
0.00
0.00
0.06
0.06
0.06
0.07
0.07
0.06
0.06
0.07
0.07
0.06
0.06
0.04
0.04
0.04
0.00
0.00
0.06
0.00
0.00
0.04
0.00
0.00
0.00
0.00
0.04
0.00
0.00
0.00
0.00
0.00
0.00
0.00
0.00
0.00
0.06
0.09
0.12
0.15
0.14
0.07
0.00
0.00
0.00
0.00
0.10
0.10
0.12
0.25
0.29
0.29
0.36
0.19
0.12
0.26
0.26
0.50
0.70
0.61
0.55
0.77
0.87
0.90
0.92
0.92
0.92
0.91
0.87
0.21
0.40
0.29
0.25
0.21
0.29
0.23
0.22
0.23
0.32
0.43
0.37
0.32
0.37
0.32
0.30
0.29
0.32
0.30
0.26
0.26
0.26
0.23
0.32
0.47
0.43
0.37
0.32
0.43
0.41
0.41
0.29
0.30
0.41
0.55
0.56
0.80
0.83
0.83
0.83
0.84
0.84
0.84
0.84
0.82
0.59
0.51
0.47
0.47
0.37
0.23
0.36
0.38
0.38
0.38
0.29
0.10
0.04
0.07
0.07
0.12
0.14
0.12
0.12
0.15
0.15
0.15
0.18
0.07
0.07
0.07
0.07
0.06
0.07
0.07
0.06
0.07
0.00
0.06
0.04
0.00
0.06
0.06
0.10
0.00
0.12
0.10
0.12
0.10
0.10
0.00
0.10
0.19
0.10
0.00
0.00
0.19
0.29
0.19
0.12
0.19
0.12
0.10
0.10
0.12
0.25
0.25
0.35
0.10
0.00
0.10
0.35
0.36
0.19
0.29
0.29
0.29
0.19
0.29
0.29
0.00
0.19
0.36
0.29
0.29
0.25
0.25
0.36
0.35
0.25
0.10
0.04
0.06
0.07
0.00
0.12
0.29
0.35
0.36
0.25
0.29
0.35
0.36
0.35
0.35
0.39
0.38
0.29
0.06
0.21
0.21
0.32
0.52
0.52
0.46
0.59
0.85
0.88
0.93
0.91
0.91
0.91
0.87
0.32
0.37
0.23
0.47
0.55
0.55
0.55
0.55
0.51
0.43
0.43
0.47
0.47
0.43
0.37
0.29
0.30
0.32
0.30
0.29
0.30
0.26
0.23
0.23
0.23
0.29
0.30
0.37
0.32
0.32
0.30
0.29
0.32
0.32
0.43
0.55
0.62
0.55
0.62
0.66
0.82
0.83
0.82
0.82
0.72
0.72
0.66
0.55
0.47
0.37
0.29
0.22
0.35
0.39
0.35
0.29
0.10
0.00
0.06
0.07
0.12
0.14
0.14
0.09
0.14
0.15
0.14
0.12
0.09
0.09
0.09
0.09
0.07
0.07
0.07
0.07
0.07
0.07
0.07
0.07
0.06
0.04
0.04
0.04
0.07
0.07
0.00
0.00
0.04
0.07
0.07
0.06
0.00
0.00
0.04
0.06
0.06
0.07
0.07
0.06
0.00
0.06
0.07
0.04
0.10
0.00
0.04
0.04
0.04
0.00
0.00
0.07
0.07
0.09
0.09
0.00
0.00
0.06
0.06
0.07
0.04
0.04
0.12
0.09
0.07
0.06
0.06
0.04
0.07
0.09
0.12
0.12
0.14
0.33
0.42
0.32
0.18
0.12
0.09
0.07
0.07
0.09
0.14
0.15
0.09
0.07
0.09
0.09
0.12
0.33
0.52
0.52
0.56
0.74
0.74
0.68
0.82
0.87
0.92
0.90
0.99
1.00
1.00
0.89
0.50
0.00
0.38
0.39
0.29
0.29
0.39
0.39
0.36
0.29
0.26
0.36
0.39
0.37
0.37
0.38
0.38
0.39
0.38
0.38
0.39
0.40
0.38
0.38
0.38
0.35
0.36
0.38
0.36
0.36
0.38
0.36
0.39
0.38
0.35
0.29
0.29
0.21
0.21
0.21
0.29
0.30
0.26
0.23
0.23
0.23
0.30
0.26
0.29
0.37
0.38
0.29
0.19
0.12
0.04
0.09
0.18
0.24
0.33
0.46
0.48
0.48
0.48
0.49
0.48
0.48
0.47
0.46
0.43
0.47
0.46
0.41
0.38
0.38
0.43
0.38
0.26
0.30
0.32
0.21
0.21
0.24
0.24
0.21
0.15
0.15
0.15
0.09
0.09
0.09
0.09
0.12
0.12
0.14
0.12
0.09
0.12
0.14
0.14
0.07
0.06
0.07
0.09
0.09
0.09
0.12
0.12
0.09
0.07
0.07
0.07
0.07
0.07
0.09
0.14
0.09
0.07
0.09
0.07
0.07
0.07
0.07
0.06
0.04
0.04
0.07
0.07
0.09
0.07
0.09
0.14
0.18
0.24
0.26
0.21
0.09
0.07
0.06
0.07
0.07
0.06
0.07
0.04
0.04
0.00
0.00
0.00
0.06
0.24
0.41
0.46
0.54
0.68
0.70
0.61
0.80
0.87
0.91
0.92
0.91
0.99
0.97
0.91
0.53
0.10
0.36
0.38
0.35
0.29
0.26
0.35
0.38
0.25
0.26
0.35
0.31
0.29
0.37
0.36
0.29
0.29
0.25
0.29
0.36
0.37
0.35
0.29
0.29
0.36
0.38
0.36
0.35
0.31
0.25
0.22
0.25
0.21
0.26
0.30
0.30
0.41
0.43
0.51
0.47
0.55
0.62
0.56
0.55
0.47
0.43
0.30
0.26
0.22
0.36
0.39
0.38
0.35
0.29
0.00
0.07
0.09
0.09
0.14
0.18
0.24
0.26
0.30
0.33
0.30
0.30
0.24
0.18
0.18
0.18
0.14
0.14
0.15
0.14
0.12
0.12
0.15
0.09
0.07
0.07
0.09
0.07
0.07
0.07
0.07
0.06
0.07
0.07
0.06
0.04
0.00
0.00
0.04
0.07
0.07
0.06
0.06
0.07
0.07
0.07
0.04
0.06
0.00
0.00
0.04
0.06
0.00
0.00
0.06
0.04
0.00
0.06
0.06
0.00
0.00
0.04
0.04
0.04
0.06
0.04
0.00
0.00
0.00
0.00
0.00
0.00
0.00
0.07
0.04
0.04
0.12
0.14
0.14
0.12
0.04
0.00
0.00
0.00
0.00
0.06
0.06
0.00
0.00
0.12
0.12
0.12
0.00
0.14
0.32
0.36
0.56
0.72
0.66
0.59
0.78
0.86
0.91
0.92
0.91
1.00
0.91
0.88
0.47
0.19
0.38
0.36
0.26
0.25
0.29
0.22
0.22
0.22
0.25
0.22
0.25
0.26
0.29
0.25
0.21
0.21
0.25
0.22
0.26
0.26
0.29
0.29
0.26
0.25
0.26
0.36
0.29
0.21
0.21
0.23
0.26
0.26
0.29
0.29
0.29
0.41
0.51
0.55
0.59
0.66
0.66
0.56
0.55
0.59
0.56
0.51
0.32
0.29
0.25
0.36
0.36
0.36
0.12
0.00
0.06
0.09
0.12
0.15
0.15
0.24
0.24
0.30
0.18
0.18
0.24
0.24
0.15
0.15
0.24
0.18
0.12
0.14
0.12
0.18
0.14
0.07
0.07
0.07
0.09
0.09
0.09
0.07
0.07
0.07
0.07
0.07
0.07
0.07
0.07
0.06
0.00
0.00
0.00
0.00
0.00
0.06
0.07
0.00
0.00
0.00
0.00
0.04
0.04
0.06
0.07
0.00
0.10
0.00
0.10
0.00
0.04
0.00
0.00
0.00
0.10
0.00
0.00
0.00
0.00
0.00
0.00
0.10
0.12
0.10
0.12
0.12
0.10
0.12
0.12
0.00
0.04
0.07
0.07
0.07
0.29
0.29
0.25
0.25
0.25
0.35
0.35
0.35
0.35
0.35
0.35
0.29
0.19
0.06
0.18
0.15
0.41
0.55
0.53
0.47
0.64
0.86
0.89
0.93
0.91
0.92
0.91
0.88
0.33
0.39
0.26
0.21
0.26
0.29
0.29
0.29
0.29
0.32
0.32
0.29
0.32
0.32
0.32
0.30
0.23
0.26
0.26
0.32
0.30
0.22
0.26
0.29
0.29
0.29
0.26
0.30
0.32
0.29
0.29
0.30
0.43
0.41
0.55
0.59
0.66
0.66
0.66
0.80
0.82
0.75
0.66
0.75
0.82
0.80
0.75
0.66
0.55
0.30
0.21
0.29
0.40
0.35
0.19
0.10
0.00
0.07
0.07
0.07
0.15
0.14
0.12
0.07
0.12
0.09
0.07
0.07
0.07
0.07
0.04
0.06
0.00
0.06
0.06
0.00
0.00
0.00
0.00
0.00
0.00
0.00
0.04
0.00
0.10
0.10
0.00
0.00
0.00
0.00
0.00
0.10
0.12
0.12
0.12
0.10
0.00
0.00
0.00
0.00
0.00
0.04
0.00
0.10
0.10
0.10
0.10
0.00
0.00
0.00
0.06
0.00
0.00
0.00
0.00
0.00
0.04
0.06
0.07
0.04
0.04
0.06
0.00
0.00
0.00
0.00
0.00
0.06
0.07
0.07
0.06
0.04
0.07
0.09
0.14
0.18
0.15
0.04
0.12
0.10
0.06
0.07
0.00
0.00
0.07
0.10
0.00
0.04
0.00
0.00
0.32
0.46
0.43
0.55
0.57
0.55
0.57
0.85
0.87
0.92
0.91
0.92
1.00
0.92
0.83
0.18
0.29
0.40
0.31
0.25
0.22
0.21
0.22
0.22
0.22
0.25
0.25
0.29
0.29
0.21
0.21
0.21
0.25
0.29
0.26
0.25
0.22
0.22
0.22
0.29
0.29
0.21
0.21
0.29
0.30
0.25
0.25
0.22
0.30
0.37
0.32
0.32
0.37
0.51
0.66
0.72
0.56
0.59
0.66
0.72
0.55
0.30
0.23
0.21
0.25
0.36
0.39
0.35
0.29
0.00
0.06
0.07
0.07
0.14
0.21
0.18
0.18
0.24
0.24
0.26
0.30
0.36
0.15
0.12
0.15
0.14
0.04
0.00
0.07
0.07
0.07
0.07
0.00
0.00
0.04
0.09
0.07
0.04
0.00
0.00
0.00
0.00
0.00
0.00
0.00
0.10
0.12
0.00
0.00
0.10
0.00
0.00
0.10
0.12
0.10
0.10
0.00
0.10
0.00
0.00
0.00
0.00
0.00
0.00
0.00
0.00
0.00
0.00
0.00
0.00
0.10
0.00
0.10
0.04
0.00
0.00
0.00
0.00
0.04
0.04
0.00
0.00
0.00
0.00
0.00
0.04
0.09
0.09
0.06
0.00
0.12
0.12
0.12
0.10
0.00
0.00
0.00
0.10
0.19
0.29
0.25
0.19
0.00
0.21
0.42
0.36
0.46
0.53
0.49
0.50
0.75
0.87
0.91
0.92
0.91
0.97
0.92
0.78
0.04
0.31
0.21
0.30
0.32
0.32
0.32
0.29
0.32
0.29
0.23
0.23
0.26
0.23
0.21
0.21
0.21
0.21
0.23
0.21
0.21
0.25
0.26
0.22
0.23
0.23
0.21
0.21
0.22
0.22
0.21
0.21
0.23
0.23
0.29
0.43
0.26
0.32
0.37
0.41
0.41
0.43
0.32
0.41
0.32
0.32
0.32
0.23
0.35
0.37
0.39
0.36
0.19
0.00
0.06
0.12
0.21
0.24
0.24
0.26
0.38
0.47
0.46
0.42
0.41
0.43
0.46
0.43
0.38
0.24
0.24
0.26
0.26
0.30
0.42
0.36
0.38
0.26
0.26
0.24
0.24
0.18
0.07
0.07
0.07
0.07
0.09
0.14
0.07
0.12
0.14
0.09
0.07
0.07
0.09
0.12
0.07
0.07
0.07
0.07
0.09
0.09
0.07
0.07
0.07
0.07
0.07
0.07
0.07
0.09
0.09
0.14
0.12
0.09
0.12
0.14
0.09
0.09
0.12
0.09
0.09
0.12
0.09
0.09
0.09
0.12
0.15
0.21
0.24
0.41
0.43
0.38
0.21
0.14
0.14
0.15
0.14
0.09
0.06
0.06
0.07
0.07
0.07
0.07
0.12
0.33
0.48
0.52
0.61
0.80
0.78
0.75
0.83
0.88
0.91
0.91
0.98
1.00
1.00
0.89
0.48
0.04
0.19
0.35
0.38
0.39
0.39
0.39
0.39
0.40
0.38
0.36
0.40
0.39
0.39
0.39
0.39
0.39
0.38
0.39
0.39
0.39
0.40
0.39
0.39
0.39
0.39
0.39
0.39
0.39
0.39
0.38
0.38
0.36
0.21
0.22
0.22
0.23
0.23
0.30
0.29
0.32
0.32
0.32
0.32
0.30
0.26
0.21
0.22
0.35
0.38
0.35
0.35
0.00
0.04
0.06
0.12
0.14
0.21
0.33
0.42
0.41
0.36
0.38
0.41
0.41
0.42
0.38
0.30
0.30
0.30
0.30
0.26
0.26
0.26
0.26
0.24
0.18
0.18
0.18
0.15
0.18
0.21
0.18
0.14
0.14
0.14
0.15
0.15
0.14
0.14
0.14
0.14
0.14
0.14
0.14
0.09
0.12
0.07
0.07
0.07
0.07
0.07
0.07
0.07
0.07
0.09
0.07
0.07
0.07
0.07
0.04
0.00
0.04
0.07
0.06
0.06
0.07
0.07
0.06
0.00
0.00
0.00
0.00
0.00
0.00
0.00
0.00
0.00
0.00
0.06
0.09
0.14
0.14
0.14
0.00
0.00
0.12
0.00
0.00
0.10
0.12
0.19
0.19
0.19
0.19
0.25
0.12
0.07
0.18
0.24
0.42
0.55
0.55
0.50
0.60
0.85
0.87
0.93
0.91
0.91
0.92
0.89
0.49
0.35
0.29
0.22
0.29
0.29
0.30
0.26
0.26
0.29
0.37
0.32
0.30
0.26
0.23
0.23
0.21
0.23
0.23
0.23
0.21
0.21
0.30
0.23
0.23
0.29
0.32
0.32
0.29
0.29
0.32
0.32
0.32
0.37
0.37
0.43
0.56
0.66
0.66
0.75
0.82
0.82
0.82
0.82
0.80
0.75
0.66
0.66
0.59
0.37
0.26
0.22
0.31
0.38
0.35
0.36
0.12
0.00
0.00
0.00
0.07
0.12
0.12
0.07
0.07
0.07
0.07
0.09
0.12
0.09
0.07
0.07
0.07
0.07
0.07
0.07
0.07
0.07
0.07
0.07
0.04
0.00
0.00
0.00
0.00
0.00
0.07
0.06
0.04
0.07
0.07
0.04
0.04
0.07
0.06
0.00
0.00
0.00
0.06
0.07
0.07
0.06
0.06
0.07
0.07
0.07
0.04
0.07
0.12
0.12
0.07
0.07
0.07
0.07
0.07
0.12
0.12
0.07
0.07
0.09
0.12
0.09
0.12
0.14
0.14
0.09
0.07
0.07
0.09
0.12
0.12
0.12
0.15
0.15
0.18
0.30
0.30
0.38
0.18
0.14
0.09
0.07
0.07
0.07
0.07
0.14
0.07
0.07
0.00
0.04
0.07
0.30
0.49
0.50
0.55
0.70
0.74
0.60
0.75
0.87
0.90
0.92
0.92
0.99
0.96
0.92
0.64
0.07
0.36
0.39
0.38
0.39
0.38
0.31
0.31
0.25
0.29
0.31
0.35
0.25
0.29
0.31
0.35
0.31
0.38
0.39
0.40
0.31
0.29
0.35
0.35
0.26
0.26
0.36
0.26
0.22
0.25
0.26
0.25
0.23
0.30
0.32
0.43
0.47
0.47
0.47
0.47
0.55
0.56
0.62
0.56
0.55
0.41
0.30
0.29
0.29
0.22
0.31
0.38
0.36
0.36
0.10
0.00
0.07
0.07
0.14
0.15
0.18
0.12
0.12
0.15
0.15
0.15
0.18
0.07
0.14
0.14
0.07
0.12
0.24
0.15
0.09
0.04
0.04
0.04
0.00
0.00
0.06
0.06
0.04
0.04
0.06
0.06
0.04
0.04
0.00
0.00
0.00
0.00
0.00
0.00
0.00
0.00
0.12
0.00
0.00
0.00
0.00
0.10
0.10
0.00
0.00
0.12
0.10
0.00
0.10
0.10
0.10
0.00
0.00
0.12
0.19
0.12
0.00
0.00
0.00
0.00
0.00
0.10
0.12
0.10
0.00
0.12
0.12
0.00
0.00
0.10
0.00
0.00
0.00
0.07
0.14
0.07
0.00
0.00
0.25
0.19
0.00
0.04
0.00
0.00
0.12
0.00
0.19
0.19
0.25
0.07
0.21
0.24
0.46
0.66
0.62
0.52
0.64
0.86
0.88
0.94
0.90
0.94
0.91
0.89
0.48
0.29
0.38
0.25
0.21
0.21
0.23
0.21
0.21
0.21
0.25
0.26
0.41
0.30
0.26
0.26
0.23
0.25
0.25
0.26
0.25
0.25
0.21
0.21
0.21
0.21
0.26
0.29
0.23
0.26
0.23
0.21
0.21
0.37
0.43
0.47
0.43
0.55
0.55
0.55
0.55
0.72
0.82
0.75
0.72
0.59
0.55
0.55
0.47
0.41
0.23
0.26
0.37
0.35
0.25
0.10
0.00
0.07
0.07
0.07
0.12
0.14
0.12
0.07
0.12
0.24
0.24
0.14
0.18
0.07
0.04
0.07
0.09
0.09
0.04
0.00
0.00
0.06
0.07
0.07
0.07
0.07
0.04
0.00
0.10
0.00
0.04
0.06
0.06
0.04
0.00
0.12
0.10
0.00
0.10
0.12
0.12
0.12
0.19
0.12
0.00
0.00
0.25
0.25
0.00
0.12
0.29
0.19
0.25
0.19
0.25
0.29
0.12
0.25
0.38
0.35
0.29
0.29
0.29
0.25
0.00
0.00
0.35
0.39
0.36
0.29
0.25
0.29
0.36
0.35
0.29
0.35
0.25
0.04
0.07
0.06
0.00
0.19
0.35
0.35
0.36
0.39
0.39
0.39
0.38
0.35
0.35
0.36
0.29
0.29
0.36
0.06
0.14
0.15
0.46
0.52
0.38
0.36
0.77
0.88
0.91
0.93
0.92
0.94
0.92
0.72
0.19
0.35
0.22
0.29
0.43
0.55
0.47
0.37
0.32
0.26
0.29
0.32
0.41
0.47
0.55
0.55
0.47
0.30
0.26
0.21
0.29
0.41
0.32
0.32
0.37
0.30
0.23
0.26
0.26
0.29
0.47
0.47
0.56
0.55
0.37
0.56
0.72
0.56
0.62
0.75
0.83
0.83
0.80
0.59
0.37
0.30
0.41
0.41
0.23
0.38
0.39
0.37
0.37
0.36
0.12
0.04
0.06
0.07
0.18
0.26
0.24
0.21
0.21
0.24
0.41
0.24
0.18
0.21
0.33
0.30
0.42
0.21
0.06
0.07
0.07
0.12
0.07
0.12
0.07
0.07
0.07
0.12
0.12
0.06
0.00
0.00
0.00
0.00
0.06
0.07
0.07
0.00
0.25
0.19
0.00
0.00
0.00
0.04
0.00
0.00
0.06
0.00
0.06
0.00
0.25
0.00
0.00
0.12
0.12
0.00
0.09
0.07
0.00
0.10
0.00
0.00
0.00
0.04
0.07
0.00
0.00
0.00
0.00
0.00
0.00
0.00
0.00
0.12
0.10
0.00
0.00
0.06
0.09
0.07
0.09
0.12
0.07
0.04
0.10
0.12
0.25
0.35
0.25
0.00
0.00
0.00
0.00
0.07
0.12
0.30
0.38
0.30
0.47
0.50
0.49
0.47
0.68
0.87
0.91
0.91
0.99
0.96
0.92
0.87
0.46
0.06
0.25
0.39
0.39
0.36
0.22
0.22
0.25
0.35
0.40
0.40
0.39
0.37
0.26
0.31
0.40
0.40
0.36
0.29
0.26
0.29
0.39
0.35
0.19
0.35
0.36
0.37
0.31
0.39
0.38
0.40
0.22
0.22
0.26
0.26
0.30
0.37
0.29
0.30
0.32
0.29
0.37
0.32
0.37
0.32
0.32
0.21
0.29
0.38
0.39
0.36
0.25
0.12
0.12
0.07
0.09
0.06
0.07
0.15
0.21
0.36
0.47
0.49
0.49
0.46
0.38
0.33
0.32
0.41
0.32
0.42
0.30
0.18
0.15
0.15
0.24
0.24
0.15
0.30
0.30
0.15
0.15
0.14
0.21
0.32
0.36
0.21
0.30
0.18
0.07
0.07
0.09
0.18
0.18
0.07
0.07
0.12
0.15
0.14
0.12
0.14
0.09
0.09
0.15
0.12
0.07
0.00
0.07
0.15
0.07
0.07
0.12
0.09
0.12
0.06
0.04
0.04
0.09
0.12
0.15
0.07
0.18
0.06
0.00
0.00
0.10
0.04
0.04
0.12
0.12
0.00
0.09
0.26
0.32
0.30
0.09
0.00
0.00
0.06
0.06
0.00
0.12
0.10
0.10
0.29
0.35
0.10
0.04
0.00
0.07
0.15
0.24
0.49
0.57
0.55
0.48
0.60
0.85
0.90
0.93
0.92
0.93
0.90
0.87
0.30
0.39
0.23
0.22
0.21
0.30
0.37
0.41
0.41
0.43
0.43
0.43
0.47
0.37
0.29
0.26
0.55
0.75
0.47
0.32
0.43
0.32
0.23
0.21
0.29
0.23
0.29
0.30
0.56
0.75
0.55
0.59
0.55
0.29
0.37
0.56
0.84
0.75
0.62
0.84
0.82
0.72
0.82
0.62
0.83
0.84
0.84
0.83
0.62
0.43
0.29
0.31
0.38
0.38
0.39
0.36
0.35
0.00
0.07
0.12
0.15
0.15
0.09
0.07
0.07
0.09
0.07
0.00
0.06
0.07
0.06
0.07
0.09
0.04
0.00
0.00
0.00
0.00
0.10
0.06
0.00
0.00
0.00
0.00
0.07
0.00
0.10
0.00
0.25
0.25
0.25
0.12
0.04
0.10
0.00
0.10
0.00
0.04
0.00
0.10
0.12
0.00
0.00
0.10
0.19
0.29
0.25
0.06
0.07
0.00
0.10
0.10
0.00
0.00
0.35
0.10
0.12
0.00
0.25
0.36
0.12
0.00
0.04
0.07
0.00
0.12
0.12
0.19
0.10
0.19
0.00
0.09
0.15
0.15
0.18
0.14
0.04
0.25
0.36
0.35
0.35
0.25
0.12
0.10
0.00
0.04
0.00
0.10
0.12
0.36
0.49
0.56
0.55
0.42
0.43
0.64
0.86
0.89
0.93
0.90
0.92
0.92
0.87
0.24
0.39
0.21
0.21
0.23
0.41
0.26
0.21
0.23
0.26
0.29
0.30
0.32
0.26
0.23
0.26
0.26
0.23
0.22
0.25
0.21
0.29
0.29
0.37
0.26
0.29
0.26
0.21
0.29
0.26
0.21
0.22
0.23
0.32
0.32
0.26
0.43
0.51
0.43
0.47
0.55
0.51
0.47
0.55
0.62
0.30
0.29
0.26
0.25
0.38
0.31
0.29
0.36
0.12
0.36
0.00
0.09
0.04
0.04
0.07
0.18
0.09
0.07
0.26
0.41
0.36
0.18
0.09
0.12
0.30
0.33
0.26
0.24
0.24
0.15
0.12
0.09
0.07
0.18
0.09
0.00
0.10
0.06
0.07
0.07
0.09
0.07
0.06
0.07
0.09
0.12
0.12
0.12
0.00
0.04
0.00
0.07
0.07
0.00
0.00
0.04
0.06
0.12
0.12
0.04
0.00
0.00
0.07
0.07
0.00
0.10
0.00
0.00
0.00
0.00
0.04
0.07
0.07
0.04
0.07
0.15
0.07
0.00
0.29
0.19
0.12
0.12
0.04
0.09
0.06
0.06
0.26
0.14
0.12
0.07
0.07
0.10
0.12
0.06
0.04
0.00
0.00
0.06
0.07
0.04
0.04
0.00
0.06
0.24
0.33
0.41
0.50
0.55
0.52
0.54
0.75
0.87
0.91
0.92
0.92
0.92
0.91
0.87
0.30
0.35
0.36
0.23
0.26
0.29
0.29
0.41
0.37
0.22
0.22
0.21
0.22
0.26
0.26
0.30
0.32
0.29
0.21
0.36
0.29
0.25
0.26
0.26
0.22
0.30
0.43
0.37
0.21
0.22
0.23
0.25
0.25
0.21
0.29
0.30
0.26
0.43
0.66
0.59
0.43
0.43
0.47
0.29
0.25
0.26
0.29
0.47
0.51
0.37
0.21
0.31
0.29
0.06
0.07
0.09
0.12
0.09
0.15
0.26
0.24
0.14
0.32
0.38
0.42
0.36
0.30
0.38
0.41
0.30
0.12
0.06
0.09
0.14
0.14
0.14
0.09
0.04
0.09
0.21
0.18
0.15
0.15
0.14
0.12
0.15
0.12
0.07
0.12
0.09
0.04
0.12
0.24
0.09
0.07
0.14
0.09
0.06
0.07
0.09
0.00
0.00
0.14
0.18
0.15
0.06
0.19
0.00
0.09
0.07
0.06
0.09
0.07
0.07
0.07
0.00
0.12
0.00
0.07
0.06
0.00
0.06
0.06
0.19
0.25
0.00
0.04
0.00
0.00
0.00
0.00
0.04
0.07
0.07
0.15
0.07
0.04
0.04
0.12
0.04
0.38
0.35
0.38
0.10
0.07
0.00
0.07
0.12
0.25
0.06
0.32
0.18
0.07
0.43
0.54
0.50
0.56
0.80
0.86
0.91
0.92
0.92
0.99
0.92
0.86
0.18
0.36
0.22
0.26
0.31
0.21
0.25
0.23
0.30
0.25
0.38
0.22
0.29
0.39
0.39
0.32
0.41
0.23
0.21
0.21
0.35
0.39
0.31
0.22
0.22
0.25
0.22
0.22
0.25
0.38
0.39
0.29
0.23
0.41
0.62
0.56
0.55
0.43
0.37
0.43
0.43
0.47
0.37
0.41
0.51
0.32
0.36
0.40
0.25
0.38
0.36
0.37
0.35
0.35
0.00
0.07
0.09
0.14
0.21
0.30
0.30
0.36
0.38
0.30
0.43
0.42
0.36
0.41
0.30
0.49
0.36
0.12
0.12
0.18
0.15
0.09
0.09
0.14
0.14
0.12
0.07
0.14
0.15
0.07
0.04
0.04
0.07
0.12
0.06
0.00
0.06
0.07
0.07
0.06
0.07
0.09
0.04
0.00
0.00
0.07
0.21
0.21
0.04
0.07
0.07
0.00
0.00
0.10
0.10
0.00
0.06
0.07
0.15
0.18
0.06
0.10
0.00
0.06
0.14
0.14
0.07
0.04
0.07
0.06
0.00
0.04
0.04
0.00
0.00
0.04
0.07
0.07
0.15
0.24
0.21
0.24
0.14
0.00
0.00
0.07
0.18
0.09
0.00
0.12
0.25
0.12
0.00
0.00
0.07
0.09
0.30
0.46
0.54
0.61
0.54
0.55
0.57
0.75
0.87
0.91
0.92
0.92
0.99
0.93
0.85
0.24
0.35
0.38
0.38
0.25
0.21
0.22
0.22
0.25
0.23
0.30
0.22
0.22
0.26
0.21
0.32
0.21
0.21
0.21
0.23
0.25
0.29
0.26
0.40
0.26
0.22
0.21
0.21
0.21
0.26
0.30
0.37
0.41
0.26
0.43
0.43
0.32
0.41
0.32
0.41
0.66
0.83
0.80
0.75
0.55
0.26
0.47
0.66
0.47
0.21
0.37
0.35
0.12
0.00
0.00
0.06
0.14
0.04
0.04
0.07
0.14
0.15
0.24
0.14
0.18
0.14
0.14
0.04
0.12
0.18
0.07
0.00
0.06
0.09
0.14
0.15
0.07
0.07
0.07
0.07
0.04
0.07
0.09
0.04
0.00
0.00
0.00
0.06
0.00
0.10
0.04
0.06
0.00
0.00
0.10
0.12
0.25
0.12
0.04
0.07
0.00
0.00
0.00
0.00
0.00
0.12
0.19
0.00
0.00
0.00
0.00
0.07
0.00
0.12
0.12
0.00
0.10
0.07
0.06
0.19
0.36
0.19
0.07
0.09
0.04
0.00
0.10
0.12
0.26
0.21
0.07
0.00
0.00
0.10
0.19
0.10
0.10
0.12
0.10
0.12
0.19
0.00
0.07
0.00
0.15
0.41
0.43
0.52
0.68
0.54
0.48
0.60
0.87
0.91
0.92
0.93
0.97
0.92
0.87
0.48
0.36
0.26
0.26
0.21
0.26
0.36
0.38
0.31
0.23
0.25
0.25
0.26
0.37
0.29
0.32
0.41
0.23
0.25
0.21
0.25
0.36
0.38
0.38
0.31
0.21
0.21
0.38
0.38
0.26
0.41
0.32
0.30
0.23
0.22
0.32
0.32
0.29
0.22
0.37
0.66
0.55
0.41
0.56
0.72
0.59
0.32
0.22
0.38
0.38
0.38
0.36
0.35
0.35
0.10
0.09
0.12
0.09
0.09
0.15
0.24
0.30
0.41
0.41
0.18
0.15
0.18
0.18
0.15
0.07
0.07
0.07
0.12
0.00
0.00
0.15
0.14
0.09
0.07
0.07
0.12
0.07
0.04
0.04
0.07
0.00
0.12
0.00
0.10
0.04
0.06
0.07
0.00
0.06
0.06
0.00
0.00
0.04
0.06
0.00
0.00
0.06
0.06
0.10
0.12
0.00
0.06
0.06
0.10
0.10
0.00
0.09
0.07
0.00
0.07
0.06
0.10
0.25
0.19
0.00
0.25
0.12
0.00
0.07
0.06
0.06
0.04
0.00
0.00
0.00
0.12
0.00
0.07
0.04
0.19
0.06
0.14
0.07
0.00
0.10
0.19
0.12
0.06
0.07
0.00
0.19
0.12
0.19
0.29
0.12
0.06
0.30
0.43
0.43
0.50
0.56
0.42
0.53
0.82
0.87
0.91
0.92
0.92
0.99
0.93
0.66
0.00
0.29
0.25
0.29
0.21
0.26
0.23
0.23
0.23
0.37
0.41
0.29
0.21
0.21
0.26
0.35
0.29
0.22
0.23
0.23
0.21
0.23
0.29
0.37
0.32
0.21
0.40
0.38
0.32
0.55
0.43
0.29
0.22
0.21
0.23
0.47
0.55
0.55
0.23
0.59
0.80
0.59
0.72
0.55
0.32
0.29
0.30
0.21
0.38
0.38
0.37
0.37
0.39
0.10
0.04
0.04
0.04
0.12
0.18
0.12
0.12
0.30
0.32
0.32
0.42
0.33
0.12
0.09
0.21
0.32
0.21
0.07
0.06
0.09
0.21
0.26
0.12
0.04
0.04
0.14
0.06
0.09
0.07
0.07
0.07
0.09
0.07
0.07
0.00
0.10
0.10
0.04
0.00
0.07
0.07
0.07
0.10
0.12
0.00
0.00
0.00
0.10
0.00
0.07
0.09
0.07
0.06
0.00
0.10
0.00
0.00
0.00
0.00
0.00
0.00
0.07
0.00
0.00
0.10
0.07
0.14
0.06
0.35
0.36
0.07
0.07
0.00
0.12
0.04
0.00
0.10
0.09
0.26
0.18
0.07
0.09
0.04
0.12
0.00
0.00
0.00
0.00
0.10
0.12
0.06
0.14
0.07
0.19
0.35
0.19
0.07
0.18
0.26
0.36
0.49
0.53
0.59
0.75
0.86
0.89
0.93
0.91
0.92
0.94
0.89
0.48
0.12
0.29
0.29
0.25
0.21
0.30
0.29
0.38
0.31
0.21
0.21
0.37
0.31
0.35
0.26
0.23
0.29
0.25
0.38
0.38
0.37
0.37
0.35
0.38
0.37
0.23
0.26
0.21
0.25
0.25
0.22
0.22
0.26
0.21
0.51
0.62
0.55
0.41
0.32
0.43
0.55
0.47
0.51
0.47
0.32
0.32
0.32
0.26
0.25
0.39
0.38
0.29
0.04
0.04
0.06
0.14
0.04
0.10
0.15
0.38
0.38
0.42
0.43
0.33
0.36
0.30
0.18
0.32
0.32
0.12
0.12
0.15
0.07
0.09
0.14
0.09
0.06
0.07
0.04
0.12
0.24
0.12
0.00
0.10
0.00
0.06
0.07
0.09
0.09
0.04
0.00
0.06
0.07
0.06
0.14
0.07
0.00
0.00
0.10
0.12
0.00
0.00
0.07
0.12
0.14
0.07
0.06
0.07
0.06
0.12
0.10
0.00
0.04
0.07
0.04
0.00
0.06
0.07
0.00
0.10
0.00
0.10
0.12
0.06
0.07
0.04
0.04
0.07
0.12
0.00
0.00
0.12
0.14
0.12
0.09
0.07
0.14
0.04
0.00
0.07
0.00
0.12
0.00
0.10
0.10
0.00
0.10
0.25
0.12
0.09
0.30
0.42
0.41
0.41
0.48
0.47
0.52
0.72
0.85
0.87
0.93
0.92
0.97
0.92
0.89
0.50
0.12
0.36
0.35
0.39
0.26
0.32
0.62
0.29
0.25
0.30
0.23
0.26
0.26
0.25
0.35
0.40
0.29
0.32
0.29
0.23
0.23
0.25
0.31
0.26
0.21
0.25
0.26
0.23
0.32
0.29
0.22
0.22
0.32
0.32
0.22
0.22
0.29
0.43
0.55
0.75
0.80
0.83
0.72
0.51
0.23
0.23
0.32
0.30
0.26
0.38
0.19
0.36
0.35
0.29
0.00
0.06
0.07
0.14
0.38
0.24
0.18
0.26
0.33
0.30
0.26
0.18
0.14
0.07
0.04
0.09
0.30
0.30
0.14
0.07
0.09
0.07
0.00
0.00
0.07
0.07
0.00
0.00
0.07
0.12
0.18
0.07
0.00
0.00
0.00
0.04
0.04
0.36
0.00
0.00
0.07
0.09
0.07
0.10
0.00
0.09
0.06
0.00
0.06
0.04
0.19
0.06
0.14
0.06
0.12
0.10
0.00
0.06
0.07
0.04
0.00
0.04
0.00
0.10
0.00
0.10
0.00
0.00
0.07
0.07
0.07
0.25
0.19
0.10
0.10
0.12
0.07
0.06
0.10
0.04
0.12
0.12
0.14
0.33
0.07
0.04
0.12
0.29
0.35
0.04
0.06
0.25
0.36
0.25
0.00
0.12
0.12
0.12
0.38
0.41
0.38
0.47
0.48
0.47
0.59
0.82
0.87
0.91
0.91
0.92
0.92
0.93
0.70
0.12
0.38
0.29
0.25
0.22
0.22
0.26
0.22
0.25
0.25
0.29
0.29
0.30
0.37
0.40
0.21
0.26
0.25
0.25
0.25
0.29
0.25
0.25
0.21
0.23
0.22
0.25
0.21
0.26
0.23
0.22
0.37
0.31
0.30
0.41
0.47
0.37
0.30
0.55
0.66
0.66
0.66
0.66
0.59
0.32
0.29
0.29
0.26
0.23
0.25
0.38
0.39
0.38
0.29
0.10
0.06
0.07
0.14
0.15
0.24
0.36
0.36
0.30
0.33
0.38
0.24
0.12
0.09
0.21
0.21
0.18
0.15
0.07
0.04
0.07
0.07
0.07
0.12
0.15
0.07
0.00
0.00
0.06
0.06
0.04
0.00
0.04
0.07
0.00
0.07
0.07
0.04
0.00
0.04
0.10
0.04
0.07
0.04
0.00
0.00
0.04
0.04
0.04
0.07
0.00
0.12
0.10
0.00
0.07
0.06
0.06
0.00
0.00
0.10
0.10
0.12
0.10
0.00
0.00
0.07
0.07
0.00
0.10
0.12
0.10
0.29
0.35
0.35
0.10
0.06
0.06
0.00
0.04
0.00
0.00
0.07
0.07
0.06
0.00
0.06
0.00
0.00
0.00
0.10
0.12
0.29
0.12
0.10
0.25
0.19
0.12
0.04
0.18
0.24
0.30
0.47
0.54
0.55
0.72
0.86
0.87
0.91
0.92
0.92
0.92
0.91
0.70
0.12
0.39
0.37
0.29
0.22
0.29
0.22
0.26
0.22
0.21
0.23
0.22
0.22
0.22
0.22
0.22
0.35
0.31
0.25
0.29
0.37
0.29
0.21
0.31
0.26
0.23
0.21
0.26
0.25
0.26
0.25
0.21
0.21
0.25
0.21
0.37
0.47
0.41
0.55
0.62
0.59
0.59
0.55
0.43
0.41
0.43
0.32
0.31
0.39
0.29
0.31
0.38
0.36
0.00
0.00
0.00
0.07
0.14
0.14
0.18
0.21
0.24
0.30
0.26
0.15
0.26
0.36
0.26
0.24
0.15
0.14
0.15
0.18
0.14
0.09
0.15
0.24
0.18
0.21
0.24
0.09
0.00
0.00
0.10
0.00
0.06
0.06
0.07
0.04
0.07
0.00
0.00
0.00
0.06
0.06
0.09
0.00
0.12
0.00
0.00
0.00
0.00
0.04
0.04
0.06
0.00
0.10
0.00
0.00
0.19
0.19
0.00
0.00
0.07
0.04
0.00
0.00
0.00
0.00
0.00
0.00
0.00
0.00
0.12
0.25
0.00
0.06
0.00
0.00
0.12
0.00
0.00
0.19
0.12
0.12
0.07
0.00
0.07
0.07
0.04
0.00
0.00
0.10
0.12
0.12
0.06
0.25
0.19
0.19
0.29
0.10
0.04
0.06
0.33
0.32
0.33
0.46
0.46
0.38
0.56
0.85
0.88
0.92
0.92
0.92
0.92
0.93
0.78
0.07
0.36
0.37
0.25
0.22
0.21
0.21
0.21
0.21
0.21
0.26
0.26
0.30
0.22
0.25
0.31
0.37
0.26
0.25
0.22
0.22
0.36
0.38
0.22
0.23
0.25
0.36
0.37
0.21
0.21
0.29
0.22
0.22
0.25
0.22
0.30
0.37
0.37
0.41
0.55
0.55
0.47
0.41
0.37
0.29
0.29
0.38
0.25
0.21
0.29
0.38
0.29
0.35
0.00
0.00
0.14
0.14
0.21
0.15
0.15
0.30
0.50
0.48
0.47
0.46
0.41
0.41
0.30
0.24
0.24
0.30
0.14
0.09
0.09
0.07
0.07
0.07
0.12
0.15
0.12
0.07
0.04
0.04
0.07
0.07
0.09
0.14
0.07
0.04
0.04
0.09
0.15
0.15
0.12
0.04
0.00
0.04
0.09
0.04
0.00
0.00
0.07
0.07
0.06
0.06
0.07
0.07
0.07
0.12
0.06
0.07
0.18
0.07
0.06
0.00
0.10
0.00
0.06
0.07
0.12
0.09
0.00
0.00
0.04
0.04
0.00
0.04
0.07
0.09
0.09
0.04
0.00
0.00
0.07
0.12
0.18
0.30
0.30
0.07
0.06
0.06
0.07
0.04
0.06
0.12
0.00
0.19
0.12
0.12
0.00
0.09
0.30
0.42
0.30
0.41
0.54
0.57
0.55
0.75
0.87
0.90
0.92
0.92
0.97
0.91
0.87
0.46
0.10
0.40
0.25
0.22
0.26
0.26
0.26
0.29
0.26
0.21
0.26
0.29
0.21
0.22
0.26
0.36
0.23
0.26
0.25
0.26
0.26
0.29
0.29
0.26
0.37
0.25
0.22
0.21
0.21
0.25
0.25
0.22
0.22
0.21
0.29
0.32
0.32
0.37
0.43
0.41
0.37
0.51
0.59
0.66
0.59
0.41
0.23
0.23
0.25
0.37
0.38
0.25
0.29
0.25
0.00
0.07
0.07
0.12
0.24
0.33
0.26
0.30
0.26
0.30
0.30
0.15
0.21
0.21
0.21
0.36
0.15
0.14
0.14
0.15
0.14
0.14
0.18
0.15
0.07
0.07
0.12
0.15
0.18
0.15
0.14
0.14
0.15
0.12
0.12
0.15
0.15
0.24
0.30
0.12
0.07
0.07
0.09
0.12
0.07
0.12
0.14
0.15
0.14
0.07
0.07
0.07
0.18
0.15
0.12
0.07
0.07
0.07
0.07
0.07
0.15
0.12
0.07
0.09
0.12
0.09
0.12
0.18
0.14
0.07
0.04
0.07
0.14
0.09
0.07
0.09
0.09
0.12
0.18
0.21
0.30
0.32
0.15
0.09
0.07
0.09
0.14
0.14
0.09
0.12
0.06
0.00
0.04
0.04
0.07
0.09
0.43
0.48
0.48
0.66
0.80
0.61
0.59
0.82
0.87
0.91
0.91
0.92
1.00
0.92
0.87
0.42
0.04
0.19
0.38
0.38
0.36
0.37
0.38
0.39
0.38
0.37
0.35
0.36
0.38
0.38
0.38
0.35
0.39
0.39
0.39
0.38
0.38
0.38
0.38
0.35
0.35
0.35
0.39
0.39
0.36
0.35
0.22
0.22
0.29
0.22
0.21
0.21
0.21
0.21
0.29
0.41
0.43
0.30
0.23
0.22
0.23
0.23
0.21
0.22
0.31
0.39
0.35
0.12
0.00
0.06
0.09
0.09
0.21
0.38
0.43
0.32
0.15
0.26
0.36
0.42
0.30
0.38
0.26
0.26
0.26
0.26
0.30
0.24
0.24
0.26
0.18
0.14
0.15
0.21
0.15
0.21
0.24
0.14
0.14
0.14
0.14
0.12
0.09
0.07
0.07
0.14
0.21
0.15
0.09
0.09
0.12
0.14
0.12
0.15
0.21
0.12
0.07
0.07
0.12
0.14
0.12
0.04
0.07
0.09
0.14
0.12
0.12
0.12
0.18
0.12
0.09
0.14
0.14
0.07
0.14
0.12
0.07
0.09
0.12
0.14
0.14
0.14
0.15
0.18
0.14
0.07
0.07
0.15
0.24
0.33
0.43
0.36
0.24
0.12
0.07
0.07
0.07
0.09
0.07
0.07
0.04
0.06
0.07
0.07
0.07
0.15
0.36
0.49
0.49
0.72
0.72
0.60
0.62
0.85
0.87
0.93
0.91
0.92
1.00
0.92
0.82
0.18
0.25
0.39
0.35
0.29
0.36
0.31
0.29
0.31
0.29
0.31
0.35
0.31
0.26
0.26
0.29
0.29
0.31
0.35
0.35
0.37
0.37
0.29
0.29
0.31
0.38
0.38
0.26
0.26
0.29
0.25
0.21
0.21
0.21
0.23
0.26
0.30
0.37
0.43
0.47
0.51
0.55
0.62
0.66
0.55
0.47
0.43
0.30
0.22
0.29
0.29
0.38
0.35
0.25
0.10
0.00
0.06
0.07
0.09
0.14
0.15
0.21
0.21
0.21
0.21
0.30
0.24
0.21
0.14
0.07
0.09
0.12
0.07
0.07
0.09
0.14
0.14
0.14
0.14
0.07
0.07
0.12
0.07
0.07
0.09
0.12
0.06
0.04
0.00
0.04
0.07
0.07
0.06
0.04
0.06
0.04
0.00
0.06
0.07
0.04
0.00
0.00
0.00
0.00
0.00
0.06
0.06
0.07
0.07
0.04
0.04
0.09
0.00
0.00
0.10
0.10
0.00
0.00
0.04
0.04
0.00
0.00
0.04
0.06
0.00
0.10
0.10
0.10
0.00
0.04
0.06
0.04
0.06
0.07
0.36
0.35
0.25
0.00
0.06
0.04
0.04
0.06
0.00
0.00
0.00
0.00
0.00
0.04
0.00
0.29
0.38
0.39
0.37
0.37
0.55
0.51
0.59
0.84
0.84
0.84
0.84
0.84
0.84
0.84
0.41
0.00
0.24
0.32
0.33
0.41
0.46
0.46
0.33
0.33
0.38
0.43
0.49
0.48
0.46
0.43
0.42
0.42
0.43
0.43
0.42
0.43
0.41
0.36
0.33
0.38
0.41
0.46
0.47
0.42
0.43
0.47
0.47
0.38
0.42
0.47
0.52
0.54
0.55
0.56
0.57
0.59
0.61
0.64
0.57
0.57
0.56
0.52
0.47
0.46
0.43
0.41
0.30
0.15
0.07
0.00
0.10
0.25
0.35
0.38
0.38
0.38
0.31
0.31
0.31
0.35
0.39
0.38
0.36
0.36
0.38
0.18
0.15
0.15
0.18
0.18
0.12
0.15
0.18
0.09
0.09
0.07
0.09
0.07
0.04
0.04
0.14
0.12
0.07
0.07
0.07
0.07
0.12
0.14
0.14
0.07
0.06
0.04
0.07
0.07
0.07
0.07
0.06
0.06
0.07
0.07
0.06
0.07
0.09
0.07
0.04
0.00
0.04
0.07
0.06
0.06
0.07
0.07
0.07
0.07
0.09
0.12
0.09
0.00
0.00
0.06
0.06
0.06
0.07
0.07
0.04
0.04
0.00
0.06
0.07
0.12
0.15
0.26
0.26
0.14
0.07
0.06
0.00
0.00
0.04
0.06
0.06
0.06
0.00
0.00
0.00
0.00
0.00
0.14
0.38
0.46
0.56
0.75
0.70
0.59
0.75
0.87
0.91
0.92
0.91
0.96
0.99
0.87
0.38
0.12
0.36
0.38
0.26
0.25
0.29
0.35
0.37
0.37
0.29
0.22
0.22
0.25
0.25
0.25
0.31
0.29
0.29
0.31
0.35
0.29
0.31
0.37
0.37
0.31
0.25
0.25
0.26
0.29
0.22
0.21
0.23
0.22
0.22
0.29
0.32
0.32
0.43
0.51
0.43
0.43
0.55
0.56
0.55
0.47
0.41
0.32
0.29
0.21
0.29
0.35
0.39
0.29
0.00
0.00
0.04
0.07
0.09
0.12
0.15
0.21
0.24
0.24
0.24
0.24
0.24
0.26
0.26
0.21
0.21
0.15
0.18
0.15
0.18
0.18
0.14
0.15
0.14
0.09
0.09
0.12
0.12
0.09
0.09
0.07
0.07
0.07
0.07
0.07
0.07
0.09
0.09
0.12
0.07
0.07
0.09
0.12
0.07
0.07
0.07
0.07
0.07
0.07
0.07
0.07
0.07
0.07
0.09
0.12
0.12
0.07
0.07
0.07
0.09
0.07
0.00
0.00
0.04
0.00
0.06
0.06
0.06
0.07
0.00
0.06
0.06
0.07
0.06
0.04
0.06
0.07
0.06
0.06
0.06
0.14
0.18
0.21
0.15
0.09
0.04
0.00
0.06
0.04
0.04
0.00
0.00
0.00
0.00
0.00
0.00
0.04
0.07
0.30
0.41
0.52
0.64
0.70
0.59
0.64
0.85
0.89
0.93
0.91
0.92
0.98
0.92
0.57
0.19
0.39
0.38
0.31
0.22
0.22
0.22
0.22
0.25
0.25
0.25
0.29
0.29
0.26
0.21
0.21
0.29
0.29
0.25
0.26
0.35
0.35
0.26
0.26
0.29
0.26
0.25
0.25
0.25
0.22
0.26
0.22
0.21
0.29
0.29
0.32
0.32
0.47
0.47
0.55
0.55
0.62
0.59
0.59
0.55
0.47
0.43
0.41
0.22
0.22
0.35
0.39
0.35
0.35
0.19
0.00
0.00
0.07
0.09
0.12
0.15
0.21
0.21
0.24
0.24
0.18
0.14
0.14
0.15
0.15
0.12
0.09
0.12
0.14
0.07
0.07
0.07
0.04
0.04
0.07
0.12
0.14
0.04
0.04
0.07
0.06
0.06
0.07
0.07
0.07
0.07
0.07
0.07
0.07
0.07
0.07
0.06
0.06
0.04
0.06
0.06
0.04
0.04
0.06
0.07
0.04
0.00
0.00
0.00
0.04
0.04
0.04
0.04
0.00
0.00
0.04
0.00
0.00
0.00
0.00
0.00
0.10
0.04
0.04
0.00
0.00
0.06
0.06
0.06
0.06
0.10
0.12
0.00
0.06
0.00
0.00
0.07
0.09
0.14
0.24
0.14
0.04
0.10
0.12
0.19
0.12
0.10
0.12
0.19
0.19
0.25
0.25
0.12
0.04
0.21
0.32
0.36
0.52
0.53
0.50
0.57
0.81
0.87
0.91
0.92
0.92
0.91
0.93
0.68
0.10
0.36
0.21
0.21
0.30
0.32
0.32
0.26
0.26
0.26
0.26
0.29
0.30
0.32
0.41
0.43
0.32
0.32
0.29
0.21
0.21
0.21
0.26
0.32
0.32
0.32
0.32
0.32
0.32
0.32
0.32
0.37
0.47
0.43
0.41
0.55
0.66
0.66
0.72
0.82
0.83
0.82
0.82
0.83
0.80
0.82
0.66
0.59
0.43
0.32
0.32
0.21
0.31
0.38
0.36
0.35
0.19
0.00
0.00
0.00
0.00
0.04
0.06
0.07
0.07
0.07
0.04
0.04
0.07
0.07
0.07
0.07
0.06
0.04
0.06
0.00
0.00
0.00
0.00
0.00
0.00
0.00
0.00
0.00
0.10
0.10
0.00
0.00
0.00
0.10
0.12
0.10
0.12
0.00
0.00
0.12
0.19
0.10
0.00
0.00
0.00
0.12
0.19
0.12
0.12
0.00
0.10
0.10
0.00
0.00
0.00
0.00
0.10
0.12
0.19
0.12
0.00
0.00
0.00
0.00
0.00
0.00
0.00
0.00
0.00
0.04
0.04
0.00
0.00
0.00
0.00
0.00
0.00
0.00
0.06
0.07
0.14
0.24
0.24
0.15
0.06
0.00
0.00
0.00
0.00
0.00
0.00
0.06
0.07
0.06
0.06
0.07
0.12
0.32
0.43
0.46
0.56
0.72
0.62
0.59
0.82
0.87
0.93
0.91
0.94
0.99
0.91
0.85
0.21
0.25
0.35
0.39
0.38
0.36
0.35
0.31
0.29
0.29
0.40
0.38
0.31
0.29
0.38
0.39
0.39
0.36
0.35
0.37
0.40
0.35
0.26
0.31
0.35
0.31
0.29
0.29
0.35
0.38
0.37
0.29
0.29
0.29
0.22
0.26
0.23
0.32
0.43
0.43
0.32
0.51
0.51
0.43
0.41
0.41
0.37
0.26
0.21
0.26
0.35
0.31
0.39
0.29
0.12
0.04
0.06
0.12
0.14
0.15
0.15
0.30
0.38
0.42
0.43
0.30
0.18
0.21
0.24
0.18
0.15
0.14
0.12
0.09
0.15
0.21
0.21
0.12
0.09
0.09
0.09
0.12
0.07
0.06
0.07
0.07
0.07
0.07
0.14
0.12
0.04
0.04
0.04
0.06
0.07
0.12
0.14
0.06
0.00
0.06
0.07
0.06
0.00
0.00
0.04
0.07
0.07
0.04
0.06
0.09
0.07
0.00
0.00
0.00
0.00
0.00
0.00
0.06
0.07
0.07
0.07
0.07
0.06
0.06
0.06
0.07
0.07
0.00
0.04
0.06
0.00
0.00
0.07
0.07
0.12
0.14
0.15
0.33
0.18
0.06
0.04
0.04
0.04
0.00
0.00
0.00
0.04
0.07
0.04
0.10
0.12
0.04
0.26
0.41
0.47
0.59
0.68
0.61
0.60
0.80
0.87
0.91
0.92
0.92
0.94
0.91
0.87
0.30
0.25
0.38
0.29
0.26
0.26
0.29
0.21
0.23
0.23
0.21
0.26
0.22
0.21
0.26
0.35
0.31
0.25
0.26
0.26
0.26
0.22
0.25
0.22
0.23
0.21
0.22
0.26
0.29
0.26
0.22
0.23
0.25
0.29
0.26
0.47
0.55
0.55
0.55
0.72
0.59
0.47
0.55
0.62
0.56
0.51
0.43
0.21
0.22
0.37
0.21
0.35
0.35
0.35
0.35
0.00
0.04
0.06
0.09
0.21
0.21
0.21
0.24
0.21
0.21
0.14
0.12
0.14
0.15
0.18
0.18
0.12
0.12
0.12
0.09
0.07
0.07
0.12
0.09
0.06
0.04
0.04
0.07
0.07
0.07
0.07
0.07
0.06
0.06
0.07
0.07
0.04
0.04
0.04
0.04
0.04
0.06
0.07
0.07
0.07
0.00
0.12
0.00
0.06
0.00
0.04
0.06
0.00
0.00
0.06
0.04
0.00
0.00
0.00
0.00
0.00
0.04
0.00
0.00
0.04
0.04
0.06
0.04
0.04
0.04
0.00
0.00
0.04
0.12
0.19
0.10
0.04
0.04
0.06
0.07
0.09
0.15
0.21
0.18
0.07
0.10
0.25
0.29
0.19
0.10
0.00
0.00
0.10
0.12
0.19
0.12
0.07
0.18
0.26
0.38
0.56
0.61
0.55
0.56
0.81
0.88
0.91
0.92
0.92
0.92
0.92
0.81
0.04
0.35
0.37
0.25
0.21
0.22
0.21
0.23
0.21
0.21
0.23
0.23
0.25
0.25
0.25
0.22
0.22
0.29
0.25
0.22
0.35
0.25
0.22
0.25
0.25
0.22
0.22
0.22
0.22
0.21
0.21
0.25
0.22
0.21
0.26
0.37
0.43
0.37
0.32
0.37
0.37
0.51
0.59
0.66
0.72
0.56
0.47
0.43
0.30
0.22
0.29
0.36
0.36
0.29
0.10
0.00
0.04
0.04
0.04
0.14
0.30
0.21
0.21
0.18
0.21
0.21
0.21
0.18
0.30
0.26
0.14
0.07
0.07
0.07
0.07
0.09
0.12
0.07
0.09
0.09
0.07
0.09
0.15
0.07
0.04
0.04
0.00
0.00
0.04
0.04
0.06
0.00
0.00
0.04
0.07
0.07
0.07
0.09
0.09
0.04
0.00
0.00
0.00
0.00
0.00
0.00
0.04
0.04
0.00
0.00
0.00
0.00
0.00
0.10
0.00
0.00
0.04
0.00
0.00
0.10
0.10
0.00
0.10
0.12
0.10
0.00
0.00
0.12
0.00
0.10
0.19
0.12
0.10
0.00
0.00
0.14
0.12
0.04
0.10
0.29
0.35
0.29
0.19
0.12
0.12
0.19
0.19
0.19
0.36
0.35
0.12
0.14
0.30
0.21
0.32
0.48
0.48
0.47
0.66
0.86
0.89
0.93
0.90
0.91
0.91
0.87
0.42
0.36
0.25
0.26
0.29
0.29
0.29
0.26
0.23
0.23
0.23
0.29
0.30
0.23
0.30
0.23
0.21
0.26
0.25
0.21
0.30
0.32
0.26
0.26
0.30
0.32
0.32
0.32
0.29
0.30
0.26
0.23
0.29
0.32
0.41
0.55
0.56
0.62
0.66
0.66
0.75
0.83
0.83
0.82
0.80
0.62
0.55
0.56
0.55
0.55
0.37
0.23
0.29
0.35
0.39
0.19
0.10
0.00
0.06
0.06
0.07
0.04
0.09
0.09
0.09
0.14
0.09
0.07
0.07
0.14
0.07
0.04
0.04
0.04
0.06
0.07
0.04
0.00
0.04
0.04
0.00
0.04
0.07
0.06
0.00
0.00
0.06
0.06
0.04
0.07
0.07
0.06
0.00
0.04
0.00
0.00
0.00
0.06
0.07
0.04
0.04
0.00
0.07
0.06
0.07
0.07
0.07
0.07
0.04
0.04
0.07
0.07
0.06
0.04
0.00
0.00
0.07
0.09
0.07
0.07
0.07
0.07
0.07
0.04
0.06
0.07
0.06
0.06
0.00
0.04
0.07
0.07
0.07
0.14
0.09
0.14
0.15
0.24
0.18
0.07
0.07
0.07
0.00
0.00
0.07
0.07
0.00
0.07
0.07
0.04
0.00
0.00
0.14
0.36
0.43
0.52
0.64
0.66
0.60
0.72
0.86
0.88
0.93
0.92
0.97
0.92
0.91
0.68
0.06
0.39
0.37
0.31
0.25
0.29
0.35
0.31
0.25
0.26
0.35
0.29
0.29
0.37
0.26
0.29
0.31
0.35
0.29
0.22
0.26
0.26
0.29
0.29
0.22
0.29
0.26
0.31
0.26
0.22
0.22
0.22
0.29
0.26
0.30
0.43
0.51
0.47
0.47
0.55
0.62
0.59
0.55
0.55
0.55
0.43
0.37
0.30
0.23
0.25
0.29
0.38
0.36
0.19
0.00
0.07
0.07
0.07
0.07
0.15
0.15
0.26
0.26
0.24
0.15
0.18
0.21
0.21
0.24
0.15
0.14
0.14
0.14
0.14
0.07
0.07
0.12
0.09
0.07
0.07
0.07
0.07
0.07
0.07
0.06
0.00
0.06
0.09
0.07
0.06
0.04
0.04
0.06
0.06
0.00
0.04
0.06
0.07
0.07
0.07
0.06
0.00
0.00
0.00
0.00
0.06
0.00
0.04
0.06
0.00
0.00
0.00
0.06
0.06
0.10
0.00
0.00
0.00
0.00
0.04
0.06
0.04
0.04
0.07
0.00
0.10
0.10
0.00
0.00
0.00
0.00
0.04
0.00
0.00
0.04
0.07
0.12
0.14
0.18
0.14
0.06
0.00
0.00
0.00
0.00
0.10
0.10
0.12
0.12
0.10
0.10
0.12
0.04
0.32
0.30
0.42
0.59
0.72
0.59
0.60
0.82
0.87
0.92
0.92
0.93
0.92
0.92
0.75
0.07
0.39
0.31
0.26
0.22
0.23
0.23
0.22
0.25
0.21
0.23
0.29
0.21
0.21
0.21
0.21
0.22
0.26
0.29
0.37
0.25
0.22
0.21
0.21
0.25
0.25
0.21
0.21
0.21
0.21
0.21
0.23
0.23
0.23
0.29
0.37
0.43
0.47
0.55
0.59
0.66
0.66
0.66
0.62
0.59
0.55
0.37
0.32
0.32
0.26
0.22
0.35
0.39
0.35
0.10
0.00
0.00
0.07
0.14
0.14
0.15
0.18
0.18
0.24
0.26
0.26
0.24
0.18
0.15
0.14
0.12
0.12
0.12
0.07
0.07
0.07
0.06
0.07
0.07
0.07
0.07
0.07
0.07
0.07
0.07
0.06
0.04
0.04
0.04
0.00
0.10
0.00
0.00
0.00
0.00
0.07
0.06
0.00
0.00
0.00
0.04
0.00
0.00
0.00
0.00
0.00
0.00
0.04
0.04
0.12
0.00
0.00
0.00
0.00
0.04
0.04
0.00
0.00
0.00
0.06
0.06
0.06
0.04
0.10
0.19
0.10
0.00
0.00
0.00
0.00
0.00
0.00
0.04
0.00
0.04
0.07
0.12
0.18
0.18
0.06
0.00
0.12
0.12
0.19
0.00
0.00
0.00
0.00
0.10
0.10
0.19
0.12
0.07
0.42
0.30
0.53
0.72
0.70
0.53
0.68
0.86
0.89
0.93
0.91
0.92
0.91
0.89
0.48
0.12
0.36
0.36
0.21
0.21
0.25
0.25
0.22
0.22
0.22
0.25
0.25
0.22
0.25
0.25
0.21
0.22
0.26
0.26
0.29
0.31
0.37
0.36
0.26
0.25
0.25
0.22
0.22
0.22
0.22
0.22
0.22
0.26
0.21
0.26
0.30
0.32
0.41
0.55
0.59
0.66
0.72
0.72
0.55
0.43
0.43
0.41
0.29
0.23
0.23
0.26
0.39
0.35
0.25
0.12
0.00
0.00
0.07
0.15
0.18
0.24
0.24
0.24
0.26
0.24
0.15
0.21
0.15
0.15
0.15
0.12
0.09
0.07
0.07
0.07
0.07
0.07
0.07
0.07
0.06
0.07
0.06
0.00
0.04
0.07
0.07
0.06
0.04
0.00
0.00
0.00
0.00
0.00
0.00
0.00
0.00
0.10
0.10
0.00
0.00
0.00
0.10
0.00
0.10
0.12
0.19
0.12
0.00
0.19
0.19
0.29
0.12
0.12
0.00
0.00
0.00
0.12
0.00
0.10
0.10
0.10
0.12
0.00
0.10
0.12
0.19
0.19
0.25
0.19
0.19
0.19
0.19
0.12
0.12
0.10
0.00
0.04
0.07
0.06
0.10
0.35
0.35
0.35
0.36
0.29
0.19
0.19
0.25
0.36
0.25
0.25
0.29
0.25
0.09
0.14
0.26
0.50
0.50
0.43
0.50
0.81
0.87
0.91
0.92
0.91
0.92
0.91
0.60
0.25
0.31
0.21
0.29
0.32
0.32
0.32
0.30
0.29
0.29
0.29
0.37
0.41
0.37
0.32
0.32
0.30
0.26
0.26
0.30
0.26
0.23
0.23
0.26
0.23
0.26
0.23
0.32
0.37
0.41
0.41
0.41
0.41
0.43
0.43
0.32
0.55
0.66
0.59
0.66
0.80
0.82
0.82
0.82
0.82
0.72
0.55
0.47
0.37
0.32
0.37
0.23
0.29
0.38
0.35
0.12
0.00
0.04
0.04
0.07
0.07
0.12
0.15
0.15
0.12
0.12
0.12
0.15
0.12
0.14
0.12
0.09
0.14
0.12
0.14
0.14
0.07
0.07
0.07
0.14
0.07
0.07
0.07
0.07
0.07
0.07
0.09
0.14
0.09
0.04
0.04
0.06
0.06
0.06
0.07
0.07
0.09
0.07
0.12
0.09
0.07
0.07
0.07
0.07
0.07
0.07
0.07
0.07
0.06
0.06
0.07
0.07
0.07
0.07
0.09
0.00
0.07
0.07
0.06
0.06
0.06
0.07
0.07
0.07
0.07
0.07
0.04
0.07
0.07
0.04
0.06
0.07
0.07
0.07
0.07
0.09
0.18
0.24
0.14
0.07
0.00
0.00
0.12
0.12
0.00
0.00
0.12
0.12
0.10
0.12
0.19
0.12
0.04
0.30
0.30
0.30
0.54
0.57
0.54
0.54
0.81
0.87
0.91
0.92
0.92
0.99
0.93
0.82
0.15
0.35
0.31
0.22
0.21
0.23
0.23
0.21
0.25
0.25
0.22
0.21
0.21
0.22
0.26
0.29
0.26
0.25
0.29
0.22
0.21
0.23
0.21
0.29
0.22
0.22
0.25
0.29
0.25
0.29
0.25
0.21
0.30
0.29
0.30
0.32
0.32
0.43
0.43
0.51
0.59
0.56
0.62
0.66
0.56
0.56
0.55
0.47
0.32
0.21
0.26
0.35
0.40
0.36
0.12
0.04
0.06
0.07
0.12
0.21
0.24
0.18
0.21
0.21
0.15
0.18
0.15
0.15
0.15
0.14
0.12
0.07
0.09
0.09
0.07
0.12
0.14
0.07
0.07
0.07
0.07
0.09
0.06
0.06
0.07
0.06
0.00
0.00
0.06
0.06
0.04
0.00
0.00
0.04
0.04
0.06
0.07
0.04
0.10
0.00
0.00
0.04
0.06
0.00
0.00
0.00
0.00
0.00
0.00
0.00
0.07
0.04
0.06
0.00
0.00
0.00
0.00
0.00
0.00
0.00
0.00
0.04
0.00
0.06
0.06
0.04
0.00
0.00
0.00
0.00
0.00
0.07
0.12
0.15
0.15
0.12
0.04
0.00
0.00
0.00
0.00
0.00
0.00
0.00
0.00
0.10
0.10
0.12
0.25
0.00
0.21
0.30
0.46
0.61
0.72
0.54
0.66
0.85
0.88
0.93
0.92
0.94
1.00
0.90
0.48
0.25
0.40
0.31
0.22
0.22
0.22
0.25
0.22
0.21
0.21
0.22
0.22
0.21
0.21
0.21
0.22
0.22
0.25
0.26
0.25
0.25
0.26
0.25
0.22
0.22
0.25
0.26
0.26
0.25
0.21
0.23
0.23
0.29
0.32
0.32
0.41
0.41
0.41
0.51
0.55
0.66
0.72
0.59
0.62
0.55
0.47
0.41
0.41
0.30
0.21
0.26
0.38
0.36
0.29
0.12
0.00
0.04
0.09
0.14
0.14
0.18
0.26
0.30
0.30
0.21
0.15
0.14
0.15
0.15
0.15
0.14
0.14
0.14
0.14
0.14
0.14
0.09
0.07
0.07
0.07
0.09
0.07
0.07
0.06
0.04
0.07
0.07
0.07
0.07
0.07
0.09
0.06
0.00
0.04
0.07
0.07
0.06
0.00
0.04
0.04
0.04
0.07
0.06
0.00
0.00
0.04
0.07
0.06
0.00
0.00
0.00
0.06
0.07
0.06
0.00
0.00
0.00
0.00
0.00
0.00
0.04
0.00
0.06
0.00
0.00
0.00
0.00
0.00
0.00
0.00
0.00
0.04
0.06
0.07
0.14
0.15
0.12
0.06
0.00
0.00
0.00
0.00
0.10
0.10
0.10
0.12
0.10
0.00
0.12
0.12
0.00
0.15
0.30
0.42
0.59
0.68
0.59
0.57
0.81
0.87
0.92
0.91
0.91
0.98
0.93
0.66
0.00
0.38
0.31
0.22
0.22
0.21
0.23
0.21
0.21
0.22
0.22
0.23
0.26
0.22
0.22
0.22
0.25
0.25
0.25
0.25
0.26
0.25
0.25
0.21
0.22
0.26
0.26
0.22
0.26
0.25
0.22
0.21
0.22
0.22
0.32
0.32
0.43
0.51
0.56
0.55
0.66
0.66
0.66
0.55
0.62
0.59
0.55
0.32
0.26
0.21
0.25
0.37
0.39
0.35
0.29
0.12
0.00
0.04
0.06
0.07
0.09
0.07
0.07
0.09
0.14
0.12
0.14
0.09
0.07
0.07
0.07
0.07
0.06
0.04
0.00
0.00
0.00
0.00
0.00
0.00
0.00
0.10
0.10
0.12
0.12
0.12
0.00
0.00
0.00
0.10
0.12
0.25
0.29
0.19
0.25
0.25
0.19
0.00
0.12
0.29
0.25
0.19
0.19
0.19
0.25
0.25
0.19
0.19
0.25
0.12
0.10
0.25
0.35
0.36
0.35
0.29
0.36
0.25
0.25
0.35
0.29
0.19
0.19
0.35
0.29
0.25
0.29
0.36
0.35
0.35
0.35
0.35
0.29
0.36
0.35
0.19
0.00
0.00
0.00
0.00
0.10
0.29
0.29
0.29
0.35
0.35
0.35
0.36
0.35
0.36
0.35
0.35
0.35
0.25
0.07
0.14
0.15
0.30
0.50
0.50
0.50
0.74
0.86
0.91
0.92
0.91
0.91
0.92
0.75
0.10
0.36
0.21
0.30
0.32
0.29
0.23
0.23
0.41
0.32
0.32
0.26
0.30
0.37
0.32
0.29
0.29
0.23
0.23
0.23
0.23
0.26
0.26
0.26
0.29
0.29
0.23
0.26
0.30
0.23
0.23
0.29
0.30
0.26
0.41
0.47
0.59
0.75
0.66
0.66
0.66
0.66
0.59
0.72
0.75
0.72
0.51
0.43
0.32
0.26
0.22
0.36
0.40
0.36
0.29
0.10
0.00
0.04
0.07
0.14
0.15
0.21
0.26
0.30
0.30
0.21
0.15
0.15
0.18
0.18
0.15
0.18
0.15
0.07
0.07
0.12
0.14
0.09
0.07
0.07
0.12
0.09
0.07
0.07
0.14
0.07
0.07
0.04
0.04
0.00
0.07
0.07
0.07
0.07
0.07
0.14
0.12
0.07
0.07
0.06
0.00
0.00
0.07
0.07
0.07
0.07
0.04
0.04
0.07
0.07
0.07
0.07
0.04
0.00
0.04
0.00
0.00
0.06
0.07
0.07
0.04
0.07
0.07
0.06
0.06
0.00
0.04
0.07
0.07
0.00
0.00
0.00
0.04
0.04
0.07
0.07
0.09
0.18
0.24
0.18
0.09
0.07
0.06
0.04
0.00
0.00
0.00
0.04
0.00
0.00
0.04
0.00
0.04
0.15
0.38
0.47
0.59
0.74
0.64
0.57
0.80
0.87
0.90
0.92
0.92
0.92
0.91
0.88
0.26
0.35
0.38
0.38
0.37
0.29
0.26
0.25
0.25
0.22
0.21
0.26
0.22
0.22
0.22
0.22
0.29
0.26
0.35
0.37
0.29
0.26
0.26
0.25
0.22
0.25
0.31
0.29
0.21
0.25
0.31
0.29
0.21
0.21
0.26
0.32
0.43
0.41
0.47
0.55
0.56
0.55
0.62
0.47
0.62
0.55
0.32
0.32
0.32
0.29
0.21
0.31
0.36
0.35
0.25
0.12
0.00
0.07
0.14
0.14
0.15
0.21
0.24
0.30
0.24
0.18
0.18
0.15
0.15
0.15
0.21
0.18
0.09
0.09
0.07
0.07
0.09
0.06
0.00
0.07
0.07
0.07
0.14
0.09
0.04
0.06
0.07
0.07
0.07
0.00
0.00
0.00
0.06
0.07
0.00
0.12
0.00
0.00
0.00
0.04
0.07
0.04
0.00
0.00
0.00
0.04
0.00
0.00
0.00
0.04
0.04
0.00
0.04
0.06
0.04
0.00
0.00
0.00
0.00
0.00
0.04
0.06
0.04
0.12
0.10
0.00
0.00
0.04
0.00
0.00
0.00
0.00
0.00
0.00
0.00
0.07
0.18
0.18
0.09
0.07
0.00
0.12
0.12
0.00
0.00
0.00
0.12
0.12
0.10
0.00
0.00
0.04
0.30
0.41
0.32
0.49
0.68
0.64
0.53
0.72
0.87
0.91
0.92
0.92
0.91
0.92
0.86
0.14
0.35
0.39
0.35
0.25
0.26
0.26
0.23
0.37
0.26
0.22
0.26
0.23
0.29
0.22
0.21
0.22
0.22
0.22
0.22
0.22
0.21
0.25
0.26
0.22
0.21
0.23
0.21
0.25
0.22
0.22
0.21
0.29
0.32
0.30
0.30
0.41
0.43
0.51
0.66
0.66
0.72
0.59
0.59
0.72
0.66
0.41
0.41
0.37
0.29
0.26
0.29
0.35
0.38
0.29
0.00
0.00
0.04
0.12
0.14
0.18
0.21
0.18
0.21
0.18
0.14
0.14
0.15
0.14
0.12
0.09
0.07
0.09
0.07
0.07
0.07
0.07
0.06
0.04
0.07
0.07
0.06
0.00
0.00
0.00
0.04
0.04
0.04
0.00
0.00
0.00
0.00
0.04
0.00
0.10
0.00
0.06
0.00
0.10
0.12
0.04
0.00
0.12
0.00
0.00
0.10
0.12
0.00
0.00
0.10
0.00
0.00
0.00
0.00
0.12
0.12
0.00
0.04
0.19
0.25
0.19
0.12
0.10
0.10
0.10
0.12
0.12
0.12
0.00
0.00
0.19
0.12
0.00
0.00
0.04
0.07
0.14
0.14
0.07
0.00
0.00
0.00
0.12
0.19
0.25
0.19
0.29
0.29
0.19
0.12
0.12
0.04
0.24
0.30
0.36
0.55
0.62
0.57
0.59
0.81
0.88
0.92
0.92
0.91
0.92
0.93
0.74
0.10
0.39
0.35
0.22
0.23
0.21
0.25
0.21
0.21
0.21
0.21
0.23
0.23
0.30
0.29
0.21
0.21
0.21
0.25
0.23
0.23
0.23
0.21
0.21
0.26
0.26
0.23
0.23
0.29
0.26
0.23
0.29
0.37
0.47
0.55
0.55
0.55
0.62
0.83
0.82
0.80
0.80
0.82
0.83
0.82
0.80
0.62
0.62
0.51
0.41
0.37
0.25
0.39
0.38
0.35
0.35
0.00
0.00
0.06
0.07
0.07
0.12
0.14
0.14
0.09
0.09
0.04
0.00
0.04
0.04
0.00
0.12
0.19
0.10
0.00
0.00
0.00
0.00
0.04
0.00
0.00
0.00
0.00
0.00
0.00
0.10
0.00
0.00
0.12
0.10
0.00
0.00
0.00
0.00
0.00
0.00
0.00
0.00
0.00
0.00
0.00
0.12
0.12
0.00
0.00
0.12
0.12
0.00
0.00
0.00
0.10
0.10
0.10
0.12
0.10
0.10
0.12
0.12
0.12
0.10
0.04
0.06
0.00
0.10
0.00
0.00
0.00
0.00
0.00
0.00
0.00
0.12
0.00
0.04
0.07
0.07
0.07
0.04
0.00
0.00
0.10
0.00
0.10
0.00
0.00
0.10
0.10
0.00
0.19
0.25
0.00
0.21
0.21
0.30
0.48
0.54
0.48
0.49
0.75
0.87
0.91
0.93
0.91
0.92
0.93
0.82
0.12
0.35
0.25
0.32
0.30
0.26
0.21
0.21
0.21
0.30
0.22
0.21
0.21
0.22
0.25
0.22
0.25
0.25
0.22
0.25
0.25
0.35
0.35
0.35
0.31
0.26
0.22
0.35
0.31
0.29
0.25
0.21
0.25
0.22
0.21
0.21
0.23
0.29
0.29
0.32
0.26
0.21
0.30
0.41
0.29
0.21
0.21
0.25
0.25
0.36
0.39
0.35
0.36
0.00
0.12
0.12
0.15
0.18
0.24
0.41
0.48
0.49
0.46
0.47
0.48
0.49
0.43
0.47
0.48
0.42
0.32
0.36
0.33
0.24
0.21
0.26
0.21
0.21
0.21
0.18
0.14
0.12
0.15
0.21
0.14
0.09
0.07
0.07
0.14
0.14
0.07
0.14
0.15
0.14
0.07
0.14
0.14
0.21
0.12
0.06
0.07
0.00
0.07
0.09
0.09
0.09
0.12
0.14
0.07
0.07
0.07
0.04
0.09
0.12
0.12
0.14
0.07
0.04
0.06
0.07
0.06
0.04
0.07
0.09
0.12
0.07
0.04
0.04
0.07
0.06
0.04
0.07
0.09
0.07
0.14
0.14
0.18
0.18
0.06
0.00
0.00
0.00
0.06
0.00
0.00
0.00
0.00
0.00
0.00
0.00
0.06
0.30
0.36
0.42
0.54
0.66
0.66
0.59
0.78
0.87
0.91
0.92
0.93
0.99
0.91
0.87
0.41
0.25
0.39
0.38
0.38
0.29
0.21
0.21
0.22
0.25
0.29
0.29
0.22
0.25
0.25
0.22
0.25
0.35
0.29
0.29
0.22
0.29
0.39
0.29
0.29
0.29
0.25
0.25
0.25
0.25
0.25
0.26
0.26
0.23
0.32
0.41
0.37
0.37
0.47
0.55
0.62
0.62
0.56
0.55
0.56
0.59
0.55
0.43
0.32
0.21
0.22
0.31
0.39
0.25
0.00
0.00
0.10
0.04
0.09
0.09
0.21
0.30
0.33
0.30
0.21
0.24
0.15
0.15
0.15
0.15
0.14
0.14
0.14
0.14
0.15
0.15
0.12
0.07
0.07
0.06
0.07
0.12
0.12
0.09
0.09
0.07
0.04
0.06
0.12
0.07
0.04
0.00
0.00
0.07
0.07
0.07
0.06
0.00
0.00
0.07
0.07
0.07
0.07
0.06
0.00
0.00
0.07
0.07
0.06
0.06
0.00
0.00
0.04
0.04
0.04
0.07
0.06
0.00
0.00
0.00
0.00
0.06
0.04
0.06
0.07
0.07
0.07
0.04
0.00
0.00
0.06
0.06
0.06
0.07
0.09
0.15
0.14
0.07
0.07
0.06
0.00
0.00
0.00
0.06
0.04
0.06
0.06
0.00
0.10
0.10
0.10
0.14
0.42
0.46
0.53
0.66
0.59
0.53
0.80
0.87
0.90
0.93
0.92
0.96
0.92
0.87
0.43
0.29
0.39
0.35
0.22
0.22
0.25
0.31
0.31
0.25
0.22
0.21
0.23
0.22
0.25
0.26
0.35
0.25
0.25
0.22
0.22
0.22
0.25
0.21
0.21
0.25
0.29
0.25
0.22
0.22
0.26
0.23
0.30
0.29
0.29
0.30
0.26
0.32
0.43
0.56
0.66
0.66
0.66
0.66
0.59
0.59
0.56
0.55
0.37
0.23
0.25
0.35
0.37
0.40
0.35
0.10
0.00
0.04
0.09
0.18
0.18
0.21
0.21
0.15
0.21
0.18
0.15
0.18
0.21
0.14
0.12
0.18
0.14
0.14
0.07
0.12
0.07
0.06
0.00
0.00
0.06
0.06
0.07
0.07
0.07
0.09
0.12
0.07
0.06
0.00
0.04
0.06
0.00
0.10
0.10
0.00
0.00
0.04
0.07
0.00
0.07
0.07
0.04
0.07
0.07
0.06
0.00
0.00
0.00
0.04
0.04
0.04
0.00
0.00
0.00
0.00
0.00
0.00
0.06
0.06
0.00
0.06
0.07
0.04
0.00
0.04
0.06
0.04
0.00
0.04
0.04
0.00
0.00
0.07
0.14
0.14
0.12
0.09
0.04
0.00
0.00
0.04
0.00
0.00
0.00
0.00
0.00
0.12
0.10
0.00
0.12
0.06
0.30
0.26
0.52
0.72
0.64
0.48
0.60
0.86
0.89
0.93
0.91
0.91
0.91
0.86
0.42
0.36
0.36
0.26
0.25
0.23
0.26
0.23
0.26
0.23
0.21
0.23
0.32
0.29
0.21
0.21
0.22
0.22
0.22
0.21
0.23
0.32
0.30
0.23
0.21
0.26
0.26
0.26
0.32
0.37
0.32
0.32
0.29
0.30
0.51
0.47
0.51
0.62
0.56
0.59
0.75
0.80
0.80
0.82
0.82
0.80
0.72
0.66
0.55
0.47
0.32
0.25
0.35
0.38
0.35
0.25
0.19
0.10
0.00
0.00
0.00
0.07
0.07
0.07
0.07
0.07
0.07
0.07
0.07
0.07
0.07
0.06
0.00
0.00
0.00
0.06
0.00
0.00
0.04
0.00
0.00
0.00
0.00
0.12
0.00
0.06
0.04
0.00
0.10
0.10
0.00
0.10
0.10
0.00
0.10
0.12
0.12
0.19
0.10
0.00
0.00
0.00
0.12
0.12
0.12
0.00
0.00
0.12
0.00
0.10
0.29
0.25
0.12
0.00
0.00
0.00
0.00
0.00
0.00
0.00
0.00
0.00
0.00
0.00
0.00
0.00
0.00
0.00
0.00
0.00
0.00
0.00
0.00
0.00
0.00
0.00
0.00
0.06
0.07
0.07
0.00
0.12
0.12
0.10
0.00
0.00
0.00
0.00
0.00
0.00
0.00
0.00
0.00
0.18
0.47
0.26
0.36
0.59
0.57
0.52
0.70
0.87
0.91
0.92
0.93
0.96
0.92
0.87
0.43
0.19
0.36
0.39
0.37
0.31
0.29
0.29
0.29
0.35
0.31
0.29
0.29
0.31
0.35
0.29
0.29
0.36
0.39
0.39
0.40
0.35
0.37
0.39
0.38
0.37
0.38
0.39
0.26
0.29
0.29
0.29
0.26
0.25
0.22
0.22
0.22
0.22
0.26
0.30
0.41
0.41
0.41
0.32
0.37
0.41
0.29
0.21
0.21
0.25
0.37
0.35
0.25
0.00
0.07
0.12
0.14
0.14
0.21
0.32
0.41
0.42
0.36
0.33
0.30
0.26
0.26
0.33
0.26
0.24
0.21
0.18
0.21
0.21
0.21
0.18
0.21
0.18
0.12
0.14
0.12
0.09
0.07
0.12
0.14
0.09
0.07
0.09
0.12
0.09
0.09
0.07
0.07
0.12
0.15
0.12
0.09
0.07
0.07
0.07
0.07
0.07
0.07
0.07
0.06
0.07
0.07
0.07
0.07
0.07
0.12
0.07
0.07
0.07
0.07
0.07
0.07
0.07
0.04
0.00
0.09
0.07
0.07
0.06
0.07
0.09
0.07
0.06
0.07
0.07
0.07
0.04
0.04
0.06
0.07
0.15
0.21
0.24
0.18
0.09
0.06
0.06
0.07
0.06
0.00
0.00
0.04
0.00
0.00
0.00
0.00
0.00
0.15
0.48
0.46
0.54
0.75
0.70
0.55
0.68
0.87
0.90
0.92
0.92
0.92
0.94
0.87
0.43
0.25
0.38
0.35
0.29
0.29
0.31
0.29
0.29
0.26
0.22
0.21
0.25
0.26
0.25
0.26
0.29
0.26
0.31
0.35
0.29
0.31
0.31
0.31
0.35
0.29
0.31
0.37
0.37
0.29
0.25
0.22
0.22
0.21
0.21
0.26
0.30
0.32
0.37
0.41
0.43
0.51
0.59
0.51
0.43
0.43
0.55
0.41
0.32
0.23
0.25
0.36
0.38
0.29
0.10
0.00
0.00
0.04
0.07
0.09
0.14
0.18
0.24
0.26
0.26
0.24
0.18
0.21
0.18
0.15
0.15
0.14
0.12
0.12
0.07
0.07
0.07
0.09
0.07
0.07
0.09
0.09
0.09
0.07
0.04
0.07
0.07
0.07
0.07
0.09
0.07
0.06
0.07
0.07
0.06
0.06
0.04
0.04
0.06
0.07
0.06
0.00
0.04
0.06
0.06
0.04
0.00
0.06
0.06
0.06
0.00
0.00
0.06
0.06
0.07
0.04
0.00
0.00
0.00
0.00
0.06
0.00
0.00
0.00
0.04
0.06
0.06
0.04
0.06
0.00
0.00
0.00
0.00
0.04
0.07
0.12
0.18
0.18
0.07
0.00
0.00
0.00
0.00
0.00
0.00
0.00
0.10
0.12
0.12
0.19
0.12
0.04
0.21
0.32
0.46
0.59
0.66
0.61
0.56
0.81
0.87
0.91
0.92
0.92
0.95
0.92
0.81
0.09
0.35
0.36
0.26
0.22
0.21
0.21
0.25
0.22
0.21
0.21
0.21
0.21
0.21
0.21
0.22
0.26
0.26
0.26
0.26
0.29
0.29
0.29
0.26
0.22
0.22
0.22
0.25
0.29
0.22
0.22
0.21
0.21
0.22
0.25
0.29
0.32
0.55
0.55
0.55
0.55
0.56
0.62
0.66
0.55
0.47
0.32
0.32
0.26
0.22
0.29
0.35
0.40
0.35
0.12
0.00
0.00
0.06
0.07
0.12
0.15
0.18
0.24
0.26
0.24
0.21
0.21
0.15
0.15
0.15
0.15
0.15
0.15
0.15
0.14
0.09
0.09
0.12
0.07
0.07
0.06
0.04
0.06
0.07
0.07
0.07
0.07
0.06
0.06
0.07
0.07
0.07
0.07
0.09
0.07
0.06
0.00
0.00
0.06
0.04
0.00
0.00
0.00
0.00
0.00
0.00
0.04
0.07
0.04
0.04
0.06
0.06
0.07
0.06
0.00
0.00
0.00
0.00
0.00
0.00
0.00
0.00
0.00
0.04
0.04
0.00
0.00
0.00
0.00
0.00
0.00
0.00
0.00
0.00
0.07
0.14
0.15
0.12
0.07
0.00
0.12
0.19
0.25
0.19
0.19
0.19
0.19
0.19
0.19
0.19
0.19
0.10
0.07
0.21
0.30
0.48
0.59
0.54
0.42
0.62
0.86
0.89
0.93
0.91
0.91
0.91
0.86
0.14
0.40
0.22
0.21
0.30
0.32
0.29
0.29
0.30
0.37
0.32
0.32
0.32
0.32
0.29
0.26
0.26
0.30
0.29
0.29
0.29
0.29
0.29
0.29
0.32
0.32
0.30
0.29
0.32
0.37
0.32
0.37
0.47
0.51
0.59
0.66
0.72
0.66
0.66
0.82
0.83
0.84
0.83
0.83
0.83
0.80
0.80
0.75
0.55
0.55
0.41
0.23
0.29
0.29
0.38
0.36
0.35
0.12
0.00
0.04
0.07
0.07
0.07
0.07
0.09
0.07
0.07
0.07
0.06
0.00
0.00
0.04
0.04
0.04
0.00
0.00
0.00
0.00
0.00
0.00
0.00
0.00
0.00
0.00
0.00
0.00
0.00
0.00
0.12
0.19
0.00
0.10
0.12
0.00
0.00
0.10
0.00
0.00
0.00
0.10
0.19
0.19
0.10
0.00
0.00
0.00
0.00
0.00
0.00
0.12
0.12
0.10
0.00
0.10
0.00
0.00
0.00
0.00
0.00
0.00
0.06
0.00
0.00
0.00
0.00
0.00
0.00
0.06
0.06
0.07
0.07
0.07
0.07
0.07
0.07
0.07
0.09
0.24
0.26
0.26
0.14
0.07
0.00
0.00
0.00
0.04
0.04
0.04
0.06
0.06
0.07
0.06
0.04
0.15
0.41
0.46
0.52
0.68
0.72
0.60
0.74
0.87
0.89
0.93
0.91
0.97
1.00
0.90
0.54
0.00
0.29
0.39
0.39
0.40
0.36
0.35
0.39
0.38
0.38
0.38
0.39
0.37
0.40
0.35
0.38
0.38
0.38
0.39
0.40
0.39
0.38
0.38
0.39
0.39
0.39
0.38
0.40
0.39
0.40
0.35
0.35
0.29
0.29
0.25
0.21
0.23
0.23
0.23
0.32
0.37
0.32
0.43
0.37
0.26
0.23
0.30
0.23
0.35
0.39
0.39
0.35
0.25
0.10
0.04
0.07
0.12
0.14
0.18
0.36
0.41
0.42
0.43
0.36
0.32
0.36
0.41
0.38
0.33
0.33
0.26
0.24
0.21
0.15
0.15
0.15
0.15
0.14
0.12
0.12
0.15
0.15
0.14
0.12
0.12
0.12
0.15
0.14
0.12
0.07
0.07
0.07
0.09
0.07
0.07
0.12
0.07
0.07
0.07
0.07
0.07
0.07
0.07
0.07
0.04
0.04
0.04
0.07
0.07
0.06
0.04
0.04
0.04
0.06
0.07
0.07
0.07
0.07
0.07
0.04
0.00
0.04
0.07
0.07
0.00
0.00
0.00
0.00
0.06
0.06
0.04
0.07
0.07
0.15
0.21
0.24
0.14
0.06
0.00
0.00
0.06
0.06
0.06
0.00
0.10
0.10
0.00
0.00
0.12
0.00
0.24
0.38
0.38
0.52
0.64
0.62
0.57
0.78
0.87
0.91
0.93
0.92
0.91
0.92
0.88
0.30
0.36
0.35
0.29
0.22
0.22
0.25
0.25
0.22
0.21
0.22
0.22
0.22
0.22
0.25
0.26
0.25
0.22
0.26
0.29
0.25
0.21
0.21
0.25
0.22
0.21
0.21
0.22
0.25
0.25
0.22
0.23
0.21
0.23
0.32
0.37
0.37
0.47
0.51
0.59
0.66
0.62
0.59
0.72
0.66
0.62
0.43
0.32
0.30
0.26
0.22
0.37
0.39
0.35
0.19
0.19
0.00
0.07
0.07
0.14
0.18
0.24
0.21
0.21
0.21
0.21
0.15
0.15
0.18
0.15
0.12
0.12
0.12
0.14
0.14
0.09
0.07
0.09
0.09
0.07
0.07
0.07
0.07
0.06
0.00
0.00
0.00
0.07
0.06
0.00
0.00
0.06
0.04
0.04
0.06
0.04
0.06
0.00
0.04
0.06
0.00
0.00
0.00
0.00
0.00
0.00
0.00
0.00
0.07
0.07
0.00
0.00
0.00
0.00
0.00
0.00
0.00
0.00
0.00
0.00
0.00
0.00
0.00
0.00
0.04
0.04
0.04
0.00
0.00
0.00
0.07
0.14
0.15
0.21
0.21
0.07
0.04
0.00
0.04
0.00
0.00
0.00
0.00
0.10
0.10
0.00
0.00
0.10
0.06
0.30
0.41
0.48
0.61
0.64
0.53
0.59
0.84
0.87
0.91
0.91
0.91
0.91
0.92
0.66
0.10
0.40
0.35
0.26
0.22
0.21
0.21
0.22
0.25
0.31
0.35
0.21
0.21
0.21
0.25
0.22
0.21
0.21
0.23
0.21
0.25
0.29
0.29
0.29
0.22
0.21
0.21
0.26
0.26
0.23
0.30
0.26
0.21
0.21
0.30
0.41
0.43
0.47
0.51
0.55
0.59
0.66
0.66
0.66
0.59
0.51
0.47
0.51
0.41
0.26
0.21
0.36
0.39
0.36
0.25
0.12
0.06
0.07
0.07
0.07
0.18
0.09
0.09
0.21
0.30
0.21
0.15
0.15
0.09
0.07
0.07
0.07
0.07
0.07
0.07
0.04
0.00
0.00
0.00
0.07
0.07
0.00
0.00
0.00
0.10
0.12
0.00
0.00
0.06
0.00
0.10
0.29
0.25
0.00
0.06
0.10
0.25
0.12
0.10
0.12
0.19
0.12
0.12
0.25
0.19
0.10
0.19
0.25
0.29
0.19
0.19
0.35
0.29
0.19
0.19
0.19
0.29
0.35
0.35
0.36
0.35
0.35
0.35
0.36
0.35
0.12
0.12
0.29
0.35
0.36
0.35
0.35
0.36
0.19
0.00
0.00
0.00
0.10
0.12
0.29
0.35
0.35
0.35
0.35
0.39
0.39
0.39
0.39
0.39
0.35
0.29
0.04
0.09
0.09
0.24
0.46
0.47
0.38
0.54
0.82
0.88
0.92
0.92
0.91
0.92
0.87
0.33
0.37
0.29
0.32
0.37
0.55
0.59
0.47
0.32
0.51
0.55
0.37
0.32
0.32
0.41
0.43
0.41
0.37
0.32
0.37
0.32
0.32
0.32
0.41
0.29
0.30
0.32
0.41
0.43
0.32
0.29
0.43
0.47
0.43
0.47
0.43
0.41
0.47
0.55
0.66
0.72
0.66
0.72
0.72
0.80
0.72
0.55
0.41
0.43
0.37
0.23
0.31
0.36
0.40
0.29
0.12
0.00
0.04
0.07
0.07
0.07
0.09
0.14
0.15
0.18
0.15
0.24
0.18
0.09
0.14
0.09
0.07
0.07
0.09
0.09
0.09
0.07
0.07
0.07
0.12
0.12
0.07
0.07
0.07
0.09
0.07
0.07
0.07
0.07
0.09
0.12
0.07
0.07
0.07
0.07
0.09
0.09
0.14
0.12
0.07
0.07
0.07
0.07
0.07
0.09
0.12
0.07
0.14
0.12
0.07
0.09
0.12
0.14
0.15
0.15
0.14
0.09
0.09
0.12
0.15
0.18
0.15
0.15
0.15
0.15
0.14
0.12
0.15
0.15
0.14
0.12
0.12
0.14
0.15
0.24
0.38
0.43
0.43
0.32
0.18
0.09
0.07
0.00
0.06
0.06
0.07
0.07
0.07
0.06
0.07
0.06
0.12
0.41
0.47
0.49
0.64
0.78
0.68
0.66
0.85
0.87
0.93
0.91
0.92
0.98
0.93
0.82
0.21
0.25
0.38
0.40
0.39
0.38
0.29
0.29
0.29
0.29
0.29
0.29
0.31
0.36
0.26
0.29
0.36
0.38
0.29
0.26
0.38
0.38
0.31
0.35
0.31
0.35
0.29
0.26
0.26
0.25
0.25
0.29
0.22
0.21
0.26
0.26
0.26
0.37
0.51
0.55
0.51
0.55
0.51
0.47
0.55
0.51
0.41
0.29
0.21
0.22
0.29
0.38
0.25
0.10
0.06
0.12
0.12
0.06
0.07
0.14
0.12
0.15
0.15
0.18
0.36
0.30
0.21
0.21
0.15
0.15
0.12
0.12
0.07
0.07
0.09
0.09
0.07
0.06
0.07
0.09
0.12
0.14
0.09
0.06
0.07
0.06
0.00
0.00
0.00
0.00
0.00
0.00
0.04
0.00
0.00
0.00
0.06
0.06
0.04
0.00
0.00
0.06
0.04
0.00
0.00
0.00
0.00
0.07
0.04
0.00
0.00
0.00
0.00
0.00
0.00
0.00
0.00
0.00
0.00
0.00
0.00
0.10
0.10
0.12
0.19
0.10
0.00
0.00
0.00
0.00
0.00
0.10
0.10
0.06
0.07
0.09
0.14
0.09
0.00
0.10
0.00
0.00
0.00
0.10
0.12
0.12
0.36
0.29
0.19
0.12
0.12
0.15
0.30
0.41
0.57
0.62
0.54
0.53
0.80
0.87
0.92
0.92
0.91
0.92
0.94
0.77
0.00
0.37
0.26
0.26
0.21
0.23
0.23
0.23
0.21
0.22
0.23
0.30
0.32
0.29
0.29
0.23
0.23
0.21
0.21
0.22
0.29
0.26
0.26
0.26
0.32
0.32
0.41
0.26
0.23
0.37
0.41
0.26
0.30
0.43
0.55
0.55
0.62
0.55
0.55
0.80
0.80
0.72
0.55
0.55
0.59
0.55
0.43
0.37
0.29
0.22
0.29
0.37
0.35
0.29
0.29
0.10
0.04
0.00
0.04
0.12
0.12
0.15
0.24
0.18
0.24
0.15
0.14
0.09
0.09
0.09
0.12
0.14
0.14
0.07
0.07
0.07
0.06
0.07
0.07
0.04
0.00
0.00
0.06
0.07
0.06
0.07
0.07
0.06
0.00
0.06
0.06
0.00
0.06
0.07
0.07
0.04
0.00
0.00
0.04
0.04
0.06
0.07
0.07
0.07
0.00
0.07
0.06
0.07
0.00
0.00
0.10
0.00
0.00
0.00
0.00
0.09
0.07
0.07
0.06
0.04
0.00
0.00
0.04
0.06
0.07
0.06
0.07
0.07
0.07
0.07
0.09
0.15
0.26
0.30
0.30
0.21
0.09
0.07
0.00
0.00
0.06
0.04
0.00
0.00
0.00
0.10
0.10
0.04
0.06
0.24
0.47
0.46
0.60
0.80
0.64
0.54
0.78
0.87
0.91
0.92
0.92
0.99
0.90
0.86
0.24
0.19
0.38
0.31
0.35
0.35
0.26
0.31
0.37
0.37
0.35
0.25
0.29
0.37
0.38
0.35
0.35
0.37
0.36
0.38
0.40
0.36
0.38
0.40
0.31
0.37
0.38
0.39
0.37
0.29
0.37
0.35
0.25
0.22
0.25
0.25
0.25
0.26
0.30
0.32
0.41
0.43
0.47
0.47
0.37
0.29
0.30
0.26
0.31
0.37
0.40
0.35
0.25
0.12
0.00
0.07
0.14
0.12
0.12
0.24
0.38
0.41
0.33
0.33
0.43
0.42
0.41
0.41
0.36
0.26
0.24
0.24
0.21
0.15
0.14
0.07
0.12
0.14
0.14
0.14
0.14
0.14
0.12
0.14
0.09
0.07
0.07
0.12
0.12
0.09
0.09
0.07
0.07
0.07
0.04
0.04
0.06
0.07
0.07
0.04
0.04
0.06
0.07
0.07
0.06
0.06
0.06
0.00
0.00
0.00
0.00
0.00
0.00
0.00
0.00
0.00
0.00
0.00
0.00
0.00
0.19
0.12
0.00
0.00
0.00
0.10
0.19
0.10
0.12
0.19
0.12
0.12
0.00
0.00
0.04
0.07
0.07
0.04
0.12
0.29
0.29
0.25
0.25
0.25
0.19
0.19
0.19
0.19
0.19
0.29
0.19
0.07
0.24
0.26
0.41
0.55
0.53
0.42
0.62
0.86
0.89
0.93
0.92
0.91
0.91
0.87
0.26
0.36
0.40
0.26
0.29
0.23
0.21
0.26
0.23
0.23
0.21
0.21
0.23
0.21
0.21
0.21
0.21
0.21
0.21
0.21
0.21
0.22
0.22
0.22
0.21
0.22
0.22
0.21
0.21
0.21
0.21
0.21
0.23
0.23
0.32
0.32
0.43
0.51
0.47
0.55
0.62
0.59
0.66
0.72
0.66
0.66
0.55
0.37
0.32
0.23
0.25
0.38
0.36
0.25
0.12
0.00
0.04
0.07
0.12
0.15
0.18
0.24
0.26
0.24
0.21
0.18
0.18
0.24
0.21
0.18
0.07
0.07
0.09
0.09
0.04
0.00
0.06
0.06
0.06
0.06
0.06
0.06
0.06
0.06
0.04
0.00
0.00
0.07
0.07
0.06
0.06
0.07
0.04
0.00
0.00
0.00
0.00
0.10
0.10
0.00
0.00
0.00
0.00
0.00
0.00
0.00
0.00
0.00
0.00
0.00
0.12
0.10
0.00
0.00
0.00
0.10
0.00
0.00
0.00
0.00
0.00
0.10
0.00
0.00
0.00
0.04
0.00
0.00
0.00
0.00
0.10
0.10
0.00
0.07
0.07
0.09
0.12
0.07
0.00
0.12
0.12
0.12
0.12
0.10
0.10
0.12
0.25
0.19
0.12
0.12
0.00
0.14
0.32
0.30
0.49
0.59
0.57
0.52
0.72
0.87
0.90
0.93
0.91
0.92
0.92
0.85
0.12
0.36
0.38
0.26
0.22
0.21
0.21
0.21
0.23
0.26
0.21
0.21
0.21
0.21
0.21
0.25
0.25
0.22
0.22
0.21
0.21
0.22
0.26
0.26
0.25
0.25
0.22
0.22
0.21
0.21
0.22
0.22
0.23
0.23
0.32
0.32
0.47
0.55
0.59
0.66
0.47
0.47
0.47
0.47
0.47
0.43
0.41
0.26
0.25
0.29
0.37
0.39
0.25
0.12
0.00
0.04
0.06
0.07
0.14
0.21
0.26
0.32
0.38
0.33
0.33
0.33
0.26
0.24
0.24
0.26
0.24
0.18
0.18
0.18
0.15
0.15
0.15
0.14
0.12
0.12
0.15
0.14
0.14
0.14
0.09
0.09
0.12
0.00
0.00
0.07
0.04
0.00
0.00
0.00
0.00
0.00
0.00
0.00
0.00
0.00
0.00
0.00
0.00
0.00
0.00
0.12
0.12
0.00
0.00
0.00
0.00
0.00
0.00
0.00
0.00
0.00
0.00
0.00
0.00
0.00
0.00
0.00
0.00
0.00
0.00
0.00
0.00
0.00
0.00
0.00
0.00
0.07
0.07
0.15
0.06
0.00
0.19
0.19
0.10
0.10
0.19
0.10
0.00
0.00
0.10
0.10
0.10
0.04
0.14
0.24
0.33
0.54
0.68
0.59
0.53
0.70
0.86
0.89
0.94
0.91
0.91
0.92
0.86
0.12
0.39
0.26
0.23
0.21
0.21
0.30
0.29
0.23
0.30
0.26
0.26
0.26
0.30
0.37
0.32
0.37
0.32
0.32
0.41
0.43
0.43
0.37
0.32
0.32
0.32
0.32
0.26
0.30
0.37
0.32
0.30
0.30
0.37
0.41
0.55
0.51
0.55
0.66
0.72
0.66
0.66
0.66
0.62
0.56
0.55
0.59
0.56
0.43
0.26
0.26
0.38
0.39
0.40
0.39
0.38
0.25
0.00
0.04
0.07
0.07
0.07
0.07
0.07
0.09
0.09
0.07
0.07
0.07
0.04
0.12
0.19
0.25
0.35
0.35
0.36
0.38
0.38
0.35
0.36
0.39
0.40
0.35
0.35
0.35
0.35
0.38
0.39
0.38
0.35
0.37
0.29
0.31
0.38
0.38
0.38
0.38
0.40
0.29
0.29
0.38
0.38
0.39
0.39
0.36
0.35
0.35
0.35
0.36
0.39
0.40
0.39
0.39
0.36
0.35
0.36
0.35
0.35
0.35
0.35
0.36
0.39
0.39
0.36
0.29
0.25
0.36
0.40
0.36
0.35
0.36
0.12
0.04
0.12
0.00
0.19
0.36
0.38
0.35
0.36
0.31
0.37
0.29
0.29
0.29
0.31
0.38
0.38
0.36
0.00
0.04
0.07
0.30
0.48
0.38
0.30
0.56
0.85
0.89
0.93
0.92
0.91
0.93
0.82
0.04
0.31
0.22
0.23
0.26
0.32
0.32
0.43
0.32
0.37
0.32
0.43
0.43
0.32
0.32
0.25
0.21
0.21
0.30
0.22
0.29
0.21
0.23
0.26
0.29
0.23
0.37
0.43
0.30
0.21
0.25
0.22
0.21
0.26
0.41
0.51
0.41
0.37
0.41
0.37
0.32
0.43
0.66
0.75
0.55
0.26
0.29
0.41
0.21
0.29
0.25
0.38
0.36
0.00
0.00
0.00
0.12
0.09
0.18
0.24
0.21
0.09
0.24
0.30
0.07
0.07
0.14
0.24
0.07
0.07
0.09
0.09
0.26
0.32
0.24
0.15
0.07
0.10
0.00
0.04
0.06
0.12
0.09
0.07
0.09
0.07
0.00
0.06
0.04
0.00
0.00
0.07
0.06
0.07
0.00
0.12
0.00
0.00
0.00
0.04
0.07
0.21
0.00
0.04
0.07
0.10
0.00
0.07
0.04
0.10
0.12
0.12
0.00
0.00
0.00
0.07
0.04
0.04
0.07
0.06
0.00
0.00
0.00
0.00
0.07
0.14
0.18
0.07
0.25
0.35
0.00
0.09
0.18
0.21
0.18
0.07
0.06
0.09
0.04
0.19
0.12
0.04
0.00
0.10
0.00
0.00
0.00
0.00
0.07
0.30
0.26
0.41
0.54
0.53
0.48
0.61
0.85
0.87
0.91
0.92
0.91
0.93
0.92
0.81
0.24
0.12
0.39
0.29
0.25
0.22
0.21
0.25
0.25
0.21
0.29
0.38
0.31
0.26
0.22
0.22
0.37
0.37
0.36
0.38
0.40
0.26
0.29
0.39
0.36
0.38
0.29
0.29
0.39
0.29
0.29
0.25
0.22
0.29
0.32
0.29
0.30
0.23
0.23
0.43
0.55
0.41
0.37
0.30
0.21
0.25
0.21
0.30
0.23
0.30
0.23
0.35
0.35
0.19
0.12
0.06
0.18
0.15
0.14
0.15
0.15
0.21
0.26
0.43
0.30
0.21
0.12
0.09
0.09
0.09
0.09
0.14
0.21
0.09
0.07
0.14
0.09
0.07
0.07
0.09
0.09
0.07
0.07
0.07
0.06
0.06
0.07
0.14
0.26
0.14
0.04
0.07
0.07
0.09
0.07
0.07
0.04
0.06
0.12
0.09
0.04
0.06
0.07
0.04
0.07
0.14
0.06
0.04
0.07
0.07
0.04
0.10
0.04
0.12
0.09
0.04
0.09
0.18
0.12
0.04
0.10
0.10
0.00
0.07
0.07
0.09
0.07
0.04
0.04
0.07
0.12
0.18
0.18
0.07
0.07
0.12
0.09
0.00
0.00
0.07
0.07
0.04
0.04
0.07
0.07
0.24
0.07
0.12
0.00
0.15
0.49
0.52
0.55
0.62
0.60
0.59
0.75
0.87
0.89
0.93
0.91
0.97
0.94
0.91
0.70
0.09
0.35
0.40
0.37
0.39
0.39
0.35
0.23
0.29
0.26
0.29
0.29
0.29
0.31
0.37
0.39
0.36
0.35
0.35
0.35
0.38
0.26
0.37
0.37
0.38
0.39
0.38
0.38
0.36
0.25
0.38
0.36
0.29
0.21
0.30
0.22
0.26
0.29
0.35
0.22
0.30
0.37
0.55
0.51
0.29
0.21
0.31
0.40
0.39
0.36
0.19
0.12
0.19
0.04
0.06
0.07
0.07
0.07
0.15
0.42
0.42
0.18
0.15
0.30
0.41
0.47
0.30
0.18
0.26
0.14
0.21
0.14
0.15
0.15
0.07
0.07
0.14
0.14
0.14
0.21
0.12
0.07
0.09
0.12
0.07
0.07
0.06
0.12
0.30
0.26
0.07
0.06
0.09
0.09
0.04
0.00
0.06
0.06
0.07
0.12
0.12
0.07
0.07
0.09
0.18
0.07
0.07
0.07
0.12
0.07
0.07
0.14
0.07
0.06
0.06
0.07
0.04
0.04
0.07
0.12
0.07
0.00
0.10
0.06
0.12
0.14
0.14
0.06
0.10
0.06
0.21
0.21
0.14
0.30
0.30
0.07
0.00
0.00
0.06
0.00
0.10
0.06
0.00
0.07
0.09
0.07
0.04
0.15
0.32
0.46
0.47
0.57
0.70
0.56
0.49
0.80
0.88
0.90
0.92
0.91
0.92
0.91
0.86
0.33
0.12
0.35
0.29
0.22
0.35
0.26
0.21
0.30
0.26
0.23
0.26
0.22
0.36
0.40
0.39
0.38
0.31
0.36
0.36
0.35
0.37
0.26
0.22
0.37
0.29
0.36
0.26
0.38
0.29
0.29
0.38
0.26
0.41
0.29
0.29
0.36
0.30
0.32
0.32
0.43
0.41
0.43
0.41
0.32
0.22
0.26
0.21
0.40
0.35
0.35
0.38
0.38
0.29
0.00
0.00
0.00
0.07
0.15
0.21
0.33
0.46
0.49
0.47
0.21
0.15
0.24
0.26
0.15
0.07
0.07
0.21
0.36
0.42
0.15
0.14
0.09
0.07
0.09
0.12
0.07
0.04
0.14
0.18
0.09
0.07
0.07
0.07
0.15
0.09
0.07
0.07
0.06
0.12
0.18
0.09
0.04
0.00
0.04
0.09
0.12
0.06
0.00
0.07
0.15
0.14
0.07
0.04
0.06
0.14
0.33
0.14
0.07
0.00
0.14
0.07
0.00
0.06
0.07
0.07
0.09
0.15
0.21
0.18
0.07
0.00
0.00
0.00
0.07
0.12
0.12
0.14
0.15
0.26
0.42
0.32
0.12
0.06
0.04
0.04
0.06
0.07
0.06
0.00
0.04
0.04
0.04
0.04
0.24
0.49
0.48
0.49
0.59
0.66
0.56
0.60
0.80
0.87
0.91
0.91
0.91
1.00
0.92
0.68
0.04
0.38
0.25
0.22
0.36
0.35
0.26
0.25
0.23
0.51
0.41
0.29
0.36
0.29
0.26
0.22
0.26
0.25
0.25
0.26
0.26
0.29
0.35
0.22
0.26
0.26
0.21
0.25
0.26
0.26
0.35
0.35
0.26
0.22
0.29
0.30
0.23
0.32
0.30
0.25
0.38
0.25
0.43
0.41
0.32
0.29
0.22
0.36
0.39
0.40
0.38
0.36
0.12
0.04
0.12
0.15
0.07
0.06
0.12
0.30
0.32
0.30
0.38
0.32
0.18
0.15
0.15
0.18
0.21
0.15
0.14
0.14
0.21
0.21
0.15
0.14
0.04
0.07
0.09
0.12
0.14
0.09
0.06
0.09
0.09
0.12
0.12
0.07
0.09
0.14
0.14
0.07
0.07
0.04
0.04
0.12
0.07
0.04
0.00
0.10
0.00
0.06
0.04
0.00
0.00
0.00
0.19
0.00
0.06
0.07
0.04
0.00
0.00
0.00
0.06
0.06
0.06
0.00
0.00
0.10
0.12
0.00
0.04
0.00
0.04
0.07
0.14
0.00
0.25
0.25
0.09
0.14
0.07
0.12
0.04
0.12
0.19
0.00
0.04
0.00
0.00
0.19
0.36
0.25
0.00
0.00
0.10
0.07
